# sky130 pfet_01v8 gm/ID Processed Lookup Table
# Corner: sf
# Temperature: 25C
# W = 2.0 um
# L = 0.18 um (180 nm)
# Columns: gm/id [1/V]  gm/gds [V/V]  id/W [A/m]  ft [Hz]  Cgg/W [F/m]  Cgd/W [F/m]  Cgs/W [F/m]  Cdb/W [F/m]  vgs [V]  vth [V]  vdsat [V]
# vdsat = BSIM4 saturation voltage (|VDS|_sat, positive); use for headroom / saturation / cascode-bias calculations
#           gm/id          gm/gds            id/W              ft           Cgg/W           Cgd/W           Cgs/W           Cdb/W             vgs             vth           vdsat
    1.439385e+00    1.875529e+00    8.430690e+01    1.454750e+10    1.327615e-09    3.344351e-11    1.051248e-09    1.323807e-10   -1.800000e+00    8.666810e-01    7.059522e-01
    1.468430e+00    1.943555e+00    8.309340e+01    1.464777e+10    1.325771e-09    3.049953e-11    1.051593e-09    1.319020e-10   -1.790000e+00    8.666810e-01    6.996425e-01
    1.498291e+00    2.015199e+00    8.186665e+01    1.474487e+10    1.323983e-09    2.768547e-11    1.051872e-09    1.314378e-10   -1.780000e+00    8.666810e-01    6.933274e-01
    1.528807e+00    2.090685e+00    8.063695e+01    1.483861e+10    1.322250e-09    2.499847e-11    1.052086e-09    1.309880e-10   -1.770000e+00    8.666810e-01    6.870064e-01
    1.560052e+00    2.170242e+00    7.940115e+01    1.492878e+10    1.320571e-09    2.243538e-11    1.052235e-09    1.305525e-10   -1.760000e+00    8.666810e-01    6.806791e-01
    1.592038e+00    2.254113e+00    7.815965e+01    1.501516e+10    1.318943e-09    1.999283e-11    1.052324e-09    1.301309e-10   -1.750000e+00    8.666810e-01    6.743452e-01
    1.624780e+00    2.342540e+00    7.691260e+01    1.509752e+10    1.317366e-09    1.766726e-11    1.052352e-09    1.297230e-10   -1.740000e+00    8.666810e-01    6.680041e-01
    1.658288e+00    2.435768e+00    7.566040e+01    1.517562e+10    1.315838e-09    1.545493e-11    1.052323e-09    1.293285e-10   -1.730000e+00    8.666810e-01    6.616555e-01
    1.692573e+00    2.534043e+00    7.440340e+01    1.524919e+10    1.314357e-09    1.335202e-11    1.052238e-09    1.289472e-10   -1.720000e+00    8.666810e-01    6.552988e-01
    1.727644e+00    2.637605e+00    7.314185e+01    1.531799e+10    1.312921e-09    1.135460e-11    1.052097e-09    1.285786e-10   -1.710000e+00    8.666810e-01    6.489337e-01
    1.763508e+00    2.746683e+00    7.187625e+01    1.538174e+10    1.311528e-09    9.458695e-12    1.051905e-09    1.282224e-10   -1.700000e+00    8.666810e-01    6.425597e-01
    1.800173e+00    2.861497e+00    7.060690e+01    1.544016e+10    1.310176e-09    7.660310e-12    1.051661e-09    1.278782e-10   -1.690000e+00    8.666810e-01    6.361765e-01
    1.837643e+00    2.982245e+00    6.933430e+01    1.549299e+10    1.308863e-09    5.955445e-12    1.051368e-09    1.275458e-10   -1.680000e+00    8.666810e-01    6.297834e-01
    1.875923e+00    3.109102e+00    6.805885e+01    1.553993e+10    1.307587e-09    4.340137e-12    1.051027e-09    1.272245e-10   -1.670000e+00    8.666810e-01    6.233802e-01
    1.915017e+00    3.242214e+00    6.678100e+01    1.558072e+10    1.306346e-09    2.810455e-12    1.050640e-09    1.269141e-10   -1.660000e+00    8.666810e-01    6.169664e-01
    1.954930e+00    3.381699e+00    6.550125e+01    1.561511e+10    1.305137e-09    1.362541e-12    1.050209e-09    1.266140e-10   -1.650000e+00    8.666810e-01    6.105415e-01
    1.995664e+00    3.527633e+00    6.422015e+01    1.564283e+10    1.303958e-09    7.390290e-15    1.049733e-09    1.263238e-10   -1.640000e+00    8.666810e-01    6.041051e-01
    2.037225e+00    3.680056e+00    6.293820e+01    1.566366e+10    1.302808e-09    1.303028e-12    1.049215e-09    1.260433e-10   -1.630000e+00    8.666810e-01    5.976568e-01
    2.079621e+00    3.838967e+00    6.165595e+01    1.567740e+10    1.301683e-09    2.527960e-12    1.048656e-09    1.257718e-10   -1.620000e+00    8.666810e-01    5.911961e-01
    2.122858e+00    4.004325e+00    6.037400e+01    1.568386e+10    1.300583e-09    3.685665e-12    1.048056e-09    1.255090e-10   -1.610000e+00    8.666810e-01    5.847226e-01
    2.166949e+00    4.176050e+00    5.909285e+01    1.568290e+10    1.299504e-09    4.779503e-12    1.047418e-09    1.252543e-10   -1.600000e+00    8.666810e-01    5.782359e-01
    2.211909e+00    4.354030e+00    5.781315e+01    1.567439e+10    1.298445e-09    5.812715e-12    1.046740e-09    1.250076e-10   -1.590000e+00    8.666810e-01    5.717355e-01
    2.257756e+00    4.538117e+00    5.653550e+01    1.565826e+10    1.297403e-09    6.788410e-12    1.046025e-09    1.247682e-10   -1.580000e+00    8.666810e-01    5.652210e-01
    2.304510e+00    4.728141e+00    5.526050e+01    1.563446e+10    1.296376e-09    7.709580e-12    1.045271e-09    1.245356e-10   -1.570000e+00    8.666810e-01    5.586920e-01
    2.352202e+00    4.923913e+00    5.398875e+01    1.560296e+10    1.295362e-09    8.579075e-12    1.044480e-09    1.243096e-10   -1.560000e+00    8.666810e-01    5.521480e-01
    2.400862e+00    5.125229e+00    5.272085e+01    1.556377e+10    1.294360e-09    9.399625e-12    1.043652e-09    1.240898e-10   -1.550000e+00    8.666810e-01    5.455887e-01
    2.450525e+00    5.331878e+00    5.145745e+01    1.551694e+10    1.293366e-09    1.017383e-11    1.042786e-09    1.238755e-10   -1.540000e+00    8.666810e-01    5.390135e-01
    2.501235e+00    5.543655e+00    5.019910e+01    1.546255e+10    1.292378e-09    1.090417e-11    1.041884e-09    1.236666e-10   -1.530000e+00    8.666810e-01    5.324222e-01
    2.553038e+00    5.760353e+00    4.894644e+01    1.540066e+10    1.291395e-09    1.159300e-11    1.040944e-09    1.234624e-10   -1.520000e+00    8.666810e-01    5.258142e-01
    2.605985e+00    5.981777e+00    4.770005e+01    1.533139e+10    1.290415e-09    1.224254e-11    1.039966e-09    1.232628e-10   -1.510000e+00    8.666810e-01    5.191892e-01
    2.660133e+00    6.207745e+00    4.646052e+01    1.525487e+10    1.289434e-09    1.285491e-11    1.038950e-09    1.230671e-10   -1.500000e+00    8.666810e-01    5.125468e-01
    2.715544e+00    6.438091e+00    4.522842e+01    1.517121e+10    1.288452e-09    1.343212e-11    1.037894e-09    1.228750e-10   -1.490000e+00    8.666810e-01    5.058866e-01
    2.772285e+00    6.672663e+00    4.400431e+01    1.508058e+10    1.287464e-09    1.397605e-11    1.036799e-09    1.226861e-10   -1.480000e+00    8.666810e-01    4.992082e-01
    2.830427e+00    6.911330e+00    4.278875e+01    1.498311e+10    1.286470e-09    1.448848e-11    1.035663e-09    1.225000e-10   -1.470000e+00    8.666810e-01    4.925111e-01
    2.890048e+00    7.153975e+00    4.158228e+01    1.487896e+10    1.285467e-09    1.497110e-11    1.034484e-09    1.223162e-10   -1.460000e+00    8.666810e-01    4.857951e-01
    2.951230e+00    7.400501e+00    4.038543e+01    1.476828e+10    1.284453e-09    1.542549e-11    1.033262e-09    1.221344e-10   -1.450000e+00    8.666810e-01    4.790597e-01
    3.014059e+00    7.650820e+00    3.919872e+01    1.465122e+10    1.283423e-09    1.585315e-11    1.031995e-09    1.219541e-10   -1.440000e+00    8.666810e-01    4.723046e-01
    3.078631e+00    7.904868e+00    3.802265e+01    1.452794e+10    1.282378e-09    1.625547e-11    1.030680e-09    1.217749e-10   -1.430000e+00    8.666810e-01    4.655294e-01
    3.145042e+00    8.162584e+00    3.685773e+01    1.439859e+10    1.281313e-09    1.663376e-11    1.029317e-09    1.215963e-10   -1.420000e+00    8.666810e-01    4.587338e-01
    3.213401e+00    8.423929e+00    3.570443e+01    1.426332e+10    1.280226e-09    1.698925e-11    1.027902e-09    1.214179e-10   -1.410000e+00    8.666810e-01    4.519175e-01
    3.283816e+00    8.688852e+00    3.456323e+01    1.412226e+10    1.279114e-09    1.732310e-11    1.026434e-09    1.212392e-10   -1.400000e+00    8.666810e-01    4.450801e-01
    3.356410e+00    8.957333e+00    3.343460e+01    1.397556e+10    1.277974e-09    1.763637e-11    1.024910e-09    1.210598e-10   -1.390000e+00    8.666810e-01    4.382213e-01
    3.431306e+00    9.229337e+00    3.231898e+01    1.382335e+10    1.276803e-09    1.793008e-11    1.023327e-09    1.208791e-10   -1.380000e+00    8.666810e-01    4.313408e-01
    3.508643e+00    9.504853e+00    3.121681e+01    1.366578e+10    1.275597e-09    1.820516e-11    1.021681e-09    1.206966e-10   -1.370000e+00    8.666810e-01    4.244383e-01
    3.588562e+00    9.783855e+00    3.012855e+01    1.350296e+10    1.274354e-09    1.846247e-11    1.019969e-09    1.205119e-10   -1.360000e+00    8.666810e-01    4.175137e-01
    3.671216e+00    1.006633e+01    2.905460e+01    1.333500e+10    1.273069e-09    1.870282e-11    1.018188e-09    1.203242e-10   -1.350000e+00    8.666810e-01    4.105665e-01
    3.756773e+00    1.035225e+01    2.799537e+01    1.316206e+10    1.271738e-09    1.892697e-11    1.016333e-09    1.201332e-10   -1.340000e+00    8.666810e-01    4.035967e-01
    3.845404e+00    1.064159e+01    2.695128e+01    1.298421e+10    1.270358e-09    1.913560e-11    1.014400e-09    1.199381e-10   -1.330000e+00    8.666810e-01    3.966040e-01
    3.937297e+00    1.093434e+01    2.592273e+01    1.280158e+10    1.268924e-09    1.932933e-11    1.012385e-09    1.197384e-10   -1.320000e+00    8.666810e-01    3.895883e-01
    4.032655e+00    1.123046e+01    2.491010e+01    1.261427e+10    1.267432e-09    1.950876e-11    1.010281e-09    1.195333e-10   -1.310000e+00    8.666810e-01    3.825494e-01
    4.131691e+00    1.152992e+01    2.391378e+01    1.242237e+10    1.265878e-09    1.967441e-11    1.008084e-09    1.193222e-10   -1.300000e+00    8.666810e-01    3.754871e-01
    4.234638e+00    1.183268e+01    2.293414e+01    1.222600e+10    1.264255e-09    1.982677e-11    1.005787e-09    1.191044e-10   -1.290000e+00    8.666810e-01    3.684016e-01
    4.341736e+00    1.213868e+01    2.197155e+01    1.202520e+10    1.262559e-09    1.996626e-11    1.003386e-09    1.188789e-10   -1.280000e+00    8.666810e-01    3.612927e-01
    4.453254e+00    1.244785e+01    2.102637e+01    1.182009e+10    1.260785e-09    2.009329e-11    1.000873e-09    1.186450e-10   -1.270000e+00    8.666810e-01    3.541604e-01
    4.569479e+00    1.276015e+01    2.009895e+01    1.161074e+10    1.258925e-09    2.020819e-11    9.982390e-10    1.184020e-10   -1.260000e+00    8.666810e-01    3.470050e-01
    4.690707e+00    1.307545e+01    1.918965e+01    1.139721e+10    1.256975e-09    2.031127e-11    9.954790e-10    1.181487e-10   -1.250000e+00    8.666810e-01    3.398265e-01
    4.817272e+00    1.339369e+01    1.829880e+01    1.117957e+10    1.254929e-09    2.040280e-11    9.925840e-10    1.178842e-10   -1.240000e+00    8.666810e-01    3.326251e-01
    4.949523e+00    1.371474e+01    1.742675e+01    1.095787e+10    1.252777e-09    2.048300e-11    9.895445e-10    1.176075e-10   -1.230000e+00    8.666810e-01    3.254014e-01
    5.087831e+00    1.403844e+01    1.657383e+01    1.073216e+10    1.250514e-09    2.055204e-11    9.863525e-10    1.173176e-10   -1.220000e+00    8.666810e-01    3.181555e-01
    5.232598e+00    1.436466e+01    1.574037e+01    1.050248e+10    1.248131e-09    2.061010e-11    9.829975e-10    1.170131e-10   -1.210000e+00    8.666810e-01    3.108883e-01
    5.384257e+00    1.469321e+01    1.492668e+01    1.026887e+10    1.245622e-09    2.065727e-11    9.794695e-10    1.166929e-10   -1.200000e+00    8.666810e-01    3.036002e-01
    5.543262e+00    1.502387e+01    1.413308e+01    1.003136e+10    1.242977e-09    2.069363e-11    9.757575e-10    1.163558e-10   -1.190000e+00    8.666810e-01    2.962922e-01
    5.710102e+00    1.535642e+01    1.335991e+01    9.789951e+09    1.240186e-09    2.071924e-11    9.718505e-10    1.160004e-10   -1.180000e+00    8.666810e-01    2.889654e-01
    5.885293e+00    1.569060e+01    1.260746e+01    9.544668e+09    1.237243e-09    2.073409e-11    9.677355e-10    1.156251e-10   -1.170000e+00    8.666810e-01    2.816209e-01
    6.069384e+00    1.602608e+01    1.187604e+01    9.295517e+09    1.234136e-09    2.073818e-11    9.634000e-10    1.152285e-10   -1.160000e+00    8.666810e-01    2.742602e-01
    6.262953e+00    1.636252e+01    1.116596e+01    9.042502e+09    1.230854e-09    2.073144e-11    9.588315e-10    1.148089e-10   -1.150000e+00    8.666810e-01    2.668852e-01
    6.466597e+00    1.669954e+01    1.047751e+01    8.785606e+09    1.227389e-09    2.071382e-11    9.540155e-10    1.143648e-10   -1.140000e+00    8.666810e-01    2.594978e-01
    6.680957e+00    1.703669e+01    9.810975e+00    8.524837e+09    1.223728e-09    2.068519e-11    9.489375e-10    1.138942e-10   -1.130000e+00    8.666810e-01    2.521006e-01
    6.906667e+00    1.737348e+01    9.166665e+00    8.260186e+09    1.219861e-09    2.064543e-11    9.435835e-10    1.133955e-10   -1.120000e+00    8.666810e-01    2.446964e-01
    7.144401e+00    1.770936e+01    8.544845e+00    7.991656e+09    1.215776e-09    2.059437e-11    9.379365e-10    1.128667e-10   -1.110000e+00    8.666810e-01    2.372885e-01
    7.394823e+00    1.804373e+01    7.945795e+00    7.719266e+09    1.211461e-09    2.053184e-11    9.319820e-10    1.123058e-10   -1.100000e+00    8.666810e-01    2.298808e-01
    7.658580e+00    1.837589e+01    7.369780e+00    7.443040e+09    1.206903e-09    2.045764e-11    9.257030e-10    1.117107e-10   -1.090000e+00    8.666810e-01    2.224778e-01
    7.936332e+00    1.870511e+01    6.817035e+00    7.163043e+09    1.202092e-09    2.037155e-11    9.190825e-10    1.110793e-10   -1.080000e+00    8.666810e-01    2.150846e-01
    8.228651e+00    1.903058e+01    6.287805e+00    6.879366e+09    1.197015e-09    2.027334e-11    9.121045e-10    1.104096e-10   -1.070000e+00    8.666810e-01    2.077071e-01
    8.536062e+00    1.935139e+01    5.782300e+00    6.592147e+09    1.191658e-09    2.016278e-11    9.047515e-10    1.096991e-10   -1.060000e+00    8.666810e-01    2.003522e-01
    8.858988e+00    1.966656e+01    5.300705e+00    6.301586e+09    1.186009e-09    2.003959e-11    8.970065e-10    1.089458e-10   -1.050000e+00    8.666810e-01    1.930275e-01
    9.197721e+00    1.997506e+01    4.843168e+00    6.007962e+09    1.180057e-09    1.990355e-11    8.888530e-10    1.081472e-10   -1.040000e+00    8.666810e-01    1.857418e-01
    9.552350e+00    2.027575e+01    4.409812e+00    5.711634e+09    1.173789e-09    1.975437e-11    8.802735e-10    1.073012e-10   -1.030000e+00    8.666810e-01    1.785050e-01
    9.922742e+00    2.056743e+01    4.000701e+00    5.413088e+09    1.167193e-09    1.959184e-11    8.712530e-10    1.064054e-10   -1.020000e+00    8.666810e-01    1.713281e-01
    1.030847e+01    2.084886e+01    3.615846e+00    5.112919e+09    1.160261e-09    1.941569e-11    8.617750e-10    1.054577e-10   -1.010000e+00    8.666810e-01    1.642234e-01
    1.070875e+01    2.111869e+01    3.255193e+00    4.811874e+09    1.152979e-09    1.922572e-11    8.518260e-10    1.044559e-10   -1.000000e+00    8.666810e-01    1.572044e-01
    1.112239e+01    2.137558e+01    2.918607e+00    4.510855e+09    1.145341e-09    1.902172e-11    8.413915e-10    1.033978e-10   -9.900000e-01    8.666810e-01    1.502859e-01
    1.154768e+01    2.161816e+01    2.605866e+00    4.210926e+09    1.137337e-09    1.880353e-11    8.304605e-10    1.022815e-10   -9.800000e-01    8.666810e-01    1.434841e-01
    1.198242e+01    2.184504e+01    2.316648e+00    3.913320e+09    1.128962e-09    1.857101e-11    8.190220e-10    1.011052e-10   -9.700000e-01    8.666810e-01    1.368160e-01
    1.242381e+01    2.205486e+01    2.050522e+00    3.619431e+09    1.120209e-09    1.832408e-11    8.070680e-10    9.986735e-11   -9.600000e-01    8.666810e-01    1.302998e-01
    1.286847e+01    2.224635e+01    1.806939e+00    3.330785e+09    1.111076e-09    1.806269e-11    7.945915e-10    9.856635e-11   -9.500000e-01    8.666810e-01    1.239541e-01
    1.331244e+01    2.241830e+01    1.585226e+00    3.049020e+09    1.101561e-09    1.778687e-11    7.815900e-10    9.720115e-11   -9.400000e-01    8.666810e-01    1.177983e-01
    1.375127e+01    2.256968e+01    1.384588e+00    2.775835e+09    1.091666e-09    1.749670e-11    7.680620e-10    9.577085e-11   -9.300000e-01    8.666810e-01    1.118513e-01
    1.418012e+01    2.269963e+01    1.204103e+00    2.512930e+09    1.081392e-09    1.719233e-11    7.540100e-10    9.427490e-11   -9.200000e-01    8.666810e-01    1.061319e-01
    1.459394e+01    2.280753e+01    1.042738e+00    2.261941e+09    1.070746e-09    1.687401e-11    7.394400e-10    9.271315e-11   -9.100000e-01    8.666810e-01    1.006576e-01
    1.498771e+01    2.289304e+01    8.993555e-01    2.024361e+09    1.059739e-09    1.654207e-11    7.243610e-10    9.108585e-11   -9.000000e-01    8.666810e-01    9.544443e-02
    1.535667e+01    2.295623e+01    7.727335e-01    1.801477e+09    1.048379e-09    1.619689e-11    7.087860e-10    8.939360e-11   -8.900000e-01    8.666810e-01    9.050632e-02
    1.569670e+01    2.299748e+01    6.615870e-01    1.594298e+09    1.036683e-09    1.583899e-11    6.927330e-10    8.763765e-11   -8.800000e-01    8.666810e-01    8.585450e-02
    1.600451e+01    2.301766e+01    5.645945e-01    1.403513e+09    1.024667e-09    1.546896e-11    6.762225e-10    8.581955e-11   -8.700000e-01    8.666810e-01    8.149715e-02
    1.627803e+01    2.301806e+01    4.804224e-01    1.229456e+09    1.012354e-09    1.508751e-11    6.592800e-10    8.394145e-11   -8.600000e-01    8.666810e-01    7.743910e-02
    1.651652e+01    2.300046e+01    4.077540e-01    1.072108e+09    9.997655e-10    1.469543e-11    6.419355e-10    8.200600e-11   -8.500000e-01    8.666810e-01    7.368163e-02
    1.672072e+01    2.296708e+01    3.453125e-01    9.311099e+08    9.869305e-10    1.429358e-11    6.242225e-10    8.001640e-11   -8.400000e-01    8.666810e-01    7.022249e-02
    1.689293e+01    2.292058e+01    2.918840e-01    8.058062e+08    9.738785e-10    1.388297e-11    6.061785e-10    7.797630e-11   -8.300000e-01    8.666810e-01    6.705605e-02
    1.703682e+01    2.286396e+01    2.463334e-01    6.952972e+08    9.606415e-10    1.346463e-11    5.878450e-10    7.588990e-11   -8.200000e-01    8.666810e-01    6.417356e-02
    1.715729e+01    2.280050e+01    2.076177e-01    5.985028e+08    9.472550e-10    1.303969e-11    5.692660e-10    7.376190e-11   -8.100000e-01    8.666810e-01    6.156360e-02
    1.726023e+01    2.273364e+01    1.747923e-01    5.142285e+08    9.337550e-10    1.260938e-11    5.504895e-10    7.159735e-11   -8.000000e-01    8.666810e-01    5.921253e-02
    1.735218e+01    2.266689e+01    1.470143e-01    4.412254e+08    9.201815e-10    1.217493e-11    5.315655e-10    6.940170e-11   -7.900000e-01    8.666810e-01    5.710506e-02
    1.744003e+01    2.260366e+01    1.235405e-01    3.782451e+08    9.065740e-10    1.173763e-11    5.125450e-10    6.718080e-11   -7.800000e-01    8.666810e-01    5.522473e-02
    1.753073e+01    2.254721e+01    1.037226e-01    3.240820e+08    8.929735e-10    1.129881e-11    4.934826e-10    6.494075e-11   -7.700000e-01    8.666810e-01    5.355448e-02
    1.763099e+01    2.250049e+01    8.700120e-02    2.776035e+08    8.794215e-10    1.085982e-11    4.744316e-10    6.268780e-11   -7.600000e-01    8.666810e-01    5.207704e-02
    1.774711e+01    2.246605e+01    7.289700e-02    2.377715e+08    8.659595e-10    1.042197e-11    4.554463e-10    6.042850e-11   -7.500000e-01    8.666810e-01    5.077537e-02
    1.788482e+01    2.244597e+01    6.100205e-02    2.036525e+08    8.526275e-10    9.986585e-12    4.365805e-10    5.816925e-11   -7.400000e-01    8.666810e-01    4.963297e-02
    1.804908e+01    2.244186e+01    5.097130e-02    1.744207e+08    8.394655e-10    9.554960e-12    4.178867e-10    5.591655e-11   -7.300000e-01    8.666810e-01    4.863406e-02
    1.824411e+01    2.245473e+01    4.251358e-02    1.493555e+08    8.265125e-10    9.128325e-12    3.994159e-10    5.367685e-11   -7.200000e-01    8.666810e-01    4.776383e-02
