# sky130 pfet_01v8 gm/ID Processed Lookup Table
# Corner: sf
# Temperature: 25C
# W = 2.0 um
# L = 5 um (5000 nm)
# Columns: gm/id [1/V]  gm/gds [V/V]  id/W [A/m]  ft [Hz]  Cgg/W [F/m]  Cgd/W [F/m]  Cgs/W [F/m]  Cdb/W [F/m]  vgs [V]  vth [V]  vdsat [V]
# vdsat = BSIM4 saturation voltage (|VDS|_sat, positive); use for headroom / saturation / cascode-bias calculations
#           gm/id          gm/gds            id/W              ft           Cgg/W           Cgd/W           Cgs/W           Cdb/W             vgs             vth           vdsat
    2.357050e+00    8.250435e+00    3.262053e+00    4.361564e+07    2.805677e-08    1.945489e-09    2.619251e-08    2.795401e-09   -1.800000e+00    1.053637e+00    6.303611e-01
    2.404162e+00    9.033625e+00    3.185164e+00    4.358828e+07    2.796056e-08    1.824008e-09    2.618818e-08    2.777223e-09   -1.790000e+00    1.053637e+00    6.222723e-01
    2.451773e+00    9.921654e+00    3.108913e+00    4.353251e+07    2.786733e-08    1.708232e-09    2.618151e-08    2.759623e-09   -1.780000e+00    1.053637e+00    6.141887e-01
    2.500178e+00    1.092896e+01    3.032884e+00    4.344703e+07    2.777709e-08    1.598166e-09    2.617254e-08    2.742614e-09   -1.770000e+00    1.053637e+00    6.061102e-01
    2.549218e+00    1.207149e+01    2.957273e+00    4.333092e+07    2.768986e-08    1.493778e-09    2.616132e-08    2.726198e-09   -1.760000e+00    1.053637e+00    5.980368e-01
    2.598861e+00    1.336669e+01    2.882124e+00    4.318360e+07    2.760559e-08    1.394998e-09    2.614788e-08    2.710378e-09   -1.750000e+00    1.053637e+00    5.899685e-01
    2.649079e+00    1.483348e+01    2.807483e+00    4.300478e+07    2.752425e-08    1.301727e-09    2.613226e-08    2.695150e-09   -1.740000e+00    1.053637e+00    5.819054e-01
    2.699867e+00    1.649207e+01    2.733394e+00    4.279465e+07    2.744576e-08    1.213835e-09    2.611453e-08    2.680508e-09   -1.730000e+00    1.053637e+00    5.738473e-01
    2.751230e+00    1.836399e+01    2.659902e+00    4.255369e+07    2.737003e-08    1.131168e-09    2.609473e-08    2.666441e-09   -1.720000e+00    1.053637e+00    5.657943e-01
    2.803193e+00    2.047179e+01    2.587048e+00    4.228278e+07    2.729694e-08    1.053552e-09    2.607290e-08    2.652936e-09   -1.710000e+00    1.053637e+00    5.577463e-01
    2.855796e+00    2.283892e+01    2.514875e+00    4.198302e+07    2.722639e-08    9.807980e-10    2.604911e-08    2.639975e-09   -1.700000e+00    1.053637e+00    5.497035e-01
    2.909097e+00    2.548956e+01    2.443421e+00    4.165580e+07    2.715822e-08    9.127020e-10    2.602339e-08    2.627541e-09   -1.690000e+00    1.053637e+00    5.416656e-01
    2.963166e+00    2.844832e+01    2.372724e+00    4.130263e+07    2.709229e-08    8.490525e-10    2.599578e-08    2.615612e-09   -1.680000e+00    1.053637e+00    5.336328e-01
    3.018090e+00    3.174015e+01    2.302817e+00    4.092522e+07    2.702843e-08    7.896320e-10    2.596633e-08    2.604166e-09   -1.670000e+00    1.053637e+00    5.256050e-01
    3.073963e+00    3.539005e+01    2.233732e+00    4.052522e+07    2.696650e-08    7.342205e-10    2.593507e-08    2.593178e-09   -1.660000e+00    1.053637e+00    5.175823e-01
    3.130892e+00    3.942298e+01    2.165498e+00    4.010438e+07    2.690632e-08    6.825985e-10    2.590202e-08    2.582624e-09   -1.650000e+00    1.053637e+00    5.095646e-01
    3.188987e+00    4.386367e+01    2.098142e+00    3.966436e+07    2.684771e-08    6.345475e-10    2.586720e-08    2.572477e-09   -1.640000e+00    1.053637e+00    5.015519e-01
    3.248370e+00    4.873659e+01    2.031687e+00    3.920680e+07    2.679050e-08    5.898540e-10    2.583061e-08    2.562711e-09   -1.630000e+00    1.053637e+00    4.935443e-01
    3.309167e+00    5.406582e+01    1.966155e+00    3.873326e+07    2.673453e-08    5.483100e-10    2.579226e-08    2.553298e-09   -1.620000e+00    1.053637e+00    4.855417e-01
    3.371508e+00    5.987508e+01    1.901566e+00    3.824515e+07    2.667960e-08    5.097145e-10    2.575215e-08    2.544212e-09   -1.610000e+00    1.053637e+00    4.775441e-01
    3.435528e+00    6.618761e+01    1.837938e+00    3.774381e+07    2.662555e-08    4.738740e-10    2.571026e-08    2.535426e-09   -1.600000e+00    1.053637e+00    4.695517e-01
    3.501366e+00    7.302642e+01    1.775286e+00    3.723047e+07    2.657220e-08    4.406038e-10    2.566656e-08    2.526912e-09   -1.590000e+00    1.053637e+00    4.615643e-01
    3.569174e+00    8.041426e+01    1.713623e+00    3.670626e+07    2.651936e-08    4.097279e-10    2.562103e-08    2.518644e-09   -1.580000e+00    1.053637e+00    4.535820e-01
    3.639094e+00    8.837360e+01    1.652965e+00    3.617216e+07    2.646687e-08    3.810798e-10    2.557362e-08    2.510594e-09   -1.570000e+00    1.053637e+00    4.456049e-01
    3.711285e+00    9.692686e+01    1.593322e+00    3.562907e+07    2.641456e-08    3.545023e-10    2.552428e-08    2.502736e-09   -1.560000e+00    1.053637e+00    4.376330e-01
    3.785912e+00    1.060965e+02    1.534703e+00    3.507784e+07    2.636223e-08    3.298470e-10    2.547294e-08    2.495045e-09   -1.550000e+00    1.053637e+00    4.296664e-01
    3.863144e+00    1.159057e+02    1.477120e+00    3.451916e+07    2.630973e-08    3.069753e-10    2.541954e-08    2.487492e-09   -1.540000e+00    1.053637e+00    4.217051e-01
    3.943158e+00    1.263772e+02    1.420580e+00    3.395368e+07    2.625688e-08    2.857571e-10    2.536400e-08    2.480054e-09   -1.530000e+00    1.053637e+00    4.137492e-01
    4.026151e+00    1.375352e+02    1.365090e+00    3.338201e+07    2.620348e-08    2.660710e-10    2.530623e-08    2.472704e-09   -1.520000e+00    1.053637e+00    4.057988e-01
    4.112312e+00    1.494041e+02    1.310661e+00    3.280461e+07    2.614939e-08    2.478039e-10    2.524611e-08    2.465417e-09   -1.510000e+00    1.053637e+00    3.978540e-01
    4.201855e+00    1.620094e+02    1.257296e+00    3.222191e+07    2.609441e-08    2.308506e-10    2.518354e-08    2.458165e-09   -1.500000e+00    1.053637e+00    3.899149e-01
    4.295010e+00    1.753782e+02    1.205003e+00    3.163436e+07    2.603835e-08    2.151134e-10    2.511841e-08    2.450927e-09   -1.490000e+00    1.053637e+00    3.819818e-01
    4.392007e+00    1.895382e+02    1.153788e+00    3.104222e+07    2.598104e-08    2.005014e-10    2.505056e-08    2.443673e-09   -1.480000e+00    1.053637e+00    3.740548e-01
    4.493111e+00    2.045194e+02    1.103656e+00    3.044583e+07    2.592228e-08    1.869306e-10    2.497985e-08    2.436378e-09   -1.470000e+00    1.053637e+00    3.661341e-01
    4.598587e+00    2.203532e+02    1.054613e+00    2.984540e+07    2.586188e-08    1.743233e-10    2.490611e-08    2.429017e-09   -1.460000e+00    1.053637e+00    3.582200e-01
    4.708725e+00    2.370728e+02    1.006663e+00    2.924110e+07    2.579965e-08    1.626075e-10    2.482919e-08    2.421563e-09   -1.450000e+00    1.053637e+00    3.503128e-01
    4.823842e+00    2.547139e+02    9.598120e-01    2.863313e+07    2.573537e-08    1.517166e-10    2.474889e-08    2.413989e-09   -1.440000e+00    1.053637e+00    3.424128e-01
    4.944266e+00    2.733141e+02    9.140650e-01    2.802158e+07    2.566885e-08    1.415892e-10    2.466501e-08    2.406267e-09   -1.430000e+00    1.053637e+00    3.345206e-01
    5.070360e+00    2.929135e+02    8.694260e-01    2.740652e+07    2.559986e-08    1.321684e-10    2.457734e-08    2.398368e-09   -1.420000e+00    1.053637e+00    3.266366e-01
    5.202503e+00    3.135546e+02    8.259005e-01    2.678800e+07    2.552818e-08    1.234020e-10    2.448566e-08    2.390266e-09   -1.410000e+00    1.053637e+00    3.187613e-01
    5.341106e+00    3.352826e+02    7.834930e-01    2.616602e+07    2.545358e-08    1.152416e-10    2.438972e-08    2.381927e-09   -1.400000e+00    1.053637e+00    3.108955e-01
    5.486612e+00    3.581452e+02    7.422080e-01    2.554054e+07    2.537581e-08    1.076424e-10    2.428926e-08    2.373323e-09   -1.390000e+00    1.053637e+00    3.030400e-01
    5.639491e+00    3.821922e+02    7.020505e-01    2.491151e+07    2.529463e-08    1.005634e-10    2.418401e-08    2.364421e-09   -1.380000e+00    1.053637e+00    2.951956e-01
    5.800244e+00    4.074762e+02    6.630255e-01    2.427881e+07    2.520979e-08    9.396650e-11    2.407370e-08    2.355188e-09   -1.370000e+00    1.053637e+00    2.873636e-01
    5.969404e+00    4.340515e+02    6.251380e-01    2.364231e+07    2.512101e-08    8.781665e-11    2.395801e-08    2.345591e-09   -1.360000e+00    1.053637e+00    2.795450e-01
    6.147545e+00    4.619742e+02    5.883930e-01    2.300185e+07    2.502802e-08    8.208160e-11    2.383663e-08    2.335594e-09   -1.350000e+00    1.053637e+00    2.717415e-01
    6.335265e+00    4.913010e+02    5.527960e-01    2.235724e+07    2.493054e-08    7.673145e-11    2.370924e-08    2.325161e-09   -1.340000e+00    1.053637e+00    2.639547e-01
    6.533196e+00    5.220897e+02    5.183525e-01    2.170824e+07    2.482827e-08    7.173860e-11    2.357548e-08    2.314253e-09   -1.330000e+00    1.053637e+00    2.561866e-01
    6.742004e+00    5.543962e+02    4.850680e-01    2.105462e+07    2.472091e-08    6.707770e-11    2.343498e-08    2.302832e-09   -1.320000e+00    1.053637e+00    2.484395e-01
    6.962384e+00    5.882742e+02    4.529479e-01    2.039611e+07    2.460816e-08    6.272525e-11    2.328740e-08    2.290857e-09   -1.310000e+00    1.053637e+00    2.407160e-01
    7.195047e+00    6.237742e+02    4.219980e-01    1.973246e+07    2.448968e-08    5.865950e-11    2.313232e-08    2.278287e-09   -1.300000e+00    1.053637e+00    2.330192e-01
    7.440723e+00    6.609393e+02    3.922239e-01    1.906339e+07    2.436516e-08    5.486045e-11    2.296936e-08    2.265078e-09   -1.290000e+00    1.053637e+00    2.253526e-01
    7.700143e+00    6.998032e+02    3.636313e-01    1.838866e+07    2.423428e-08    5.130960e-11    2.279812e-08    2.251185e-09   -1.280000e+00    1.053637e+00    2.177203e-01
    7.974027e+00    7.403872e+02    3.362254e-01    1.770806e+07    2.409668e-08    4.798975e-11    2.261817e-08    2.236566e-09   -1.270000e+00    1.053637e+00    2.101269e-01
    8.263067e+00    7.826949e+02    3.100114e-01    1.702144e+07    2.395206e-08    4.488510e-11    2.242910e-08    2.221173e-09   -1.260000e+00    1.053637e+00    2.025778e-01
    8.567903e+00    8.267078e+02    2.849939e-01    1.632872e+07    2.380007e-08    4.198098e-11    2.223048e-08    2.204959e-09   -1.250000e+00    1.053637e+00    1.950790e-01
    8.889087e+00    8.723791e+02    2.611766e-01    1.562994e+07    2.364037e-08    3.926382e-11    2.202191e-08    2.187877e-09   -1.240000e+00    1.053637e+00    1.876374e-01
    9.227053e+00    9.196266e+02    2.385622e-01    1.492528e+07    2.347266e-08    3.672103e-11    2.180295e-08    2.169881e-09   -1.230000e+00    1.053637e+00    1.802609e-01
    9.582074e+00    9.683263e+02    2.171522e-01    1.421515e+07    2.329660e-08    3.434098e-11    2.157321e-08    2.150922e-09   -1.220000e+00    1.053637e+00    1.729582e-01
    9.954201e+00    1.018303e+03    1.969464e-01    1.350016e+07    2.311189e-08    3.211287e-11    2.133230e-08    2.130955e-09   -1.210000e+00    1.053637e+00    1.657391e-01
    1.034321e+01    1.069323e+03    1.779422e-01    1.278122e+07    2.291828e-08    3.002666e-11    2.107983e-08    2.109934e-09   -1.200000e+00    1.053637e+00    1.586147e-01
    1.074854e+01    1.121085e+03    1.601343e-01    1.205958e+07    2.271547e-08    2.807308e-11    2.081546e-08    2.087814e-09   -1.190000e+00    1.053637e+00    1.515969e-01
    1.116919e+01    1.173216e+03    1.435146e-01    1.133686e+07    2.250325e-08    2.624348e-11    2.053888e-08    2.064555e-09   -1.180000e+00    1.053637e+00    1.446989e-01
    1.160371e+01    1.225265e+03    1.280708e-01    1.061511e+07    2.228140e-08    2.452985e-11    2.024981e-08    2.040117e-09   -1.170000e+00    1.053637e+00    1.379350e-01
    1.205007e+01    1.276699e+03    1.137864e-01    9.896821e+06    2.204978e-08    2.292473e-11    1.994800e-08    2.014464e-09   -1.160000e+00    1.053637e+00    1.313206e-01
    1.250562e+01    1.326913e+03    1.006401e-01    9.184926e+06    2.180825e-08    2.142118e-11    1.963329e-08    1.987566e-09   -1.150000e+00    1.053637e+00    1.248717e-01
    1.296711e+01    1.375236e+03    8.860520e-02    8.482794e+06    2.155676e-08    2.001274e-11    1.930555e-08    1.959395e-09   -1.140000e+00    1.053637e+00    1.186051e-01
    1.343059e+01    1.420945e+03    7.764925e-02    7.794151e+06    2.129529e-08    1.869341e-11    1.896474e-08    1.929931e-09   -1.130000e+00    1.053637e+00    1.125380e-01
    1.389154e+01    1.463302e+03    6.773390e-02    7.123012e+06    2.102389e-08    1.745760e-11    1.861087e-08    1.899159e-09   -1.120000e+00    1.053637e+00    1.066874e-01
    1.434493e+01    1.501571e+03    5.881495e-02    6.473534e+06    2.074269e-08    1.630006e-11    1.824406e-08    1.867073e-09   -1.110000e+00    1.053637e+00    1.010701e-01
    1.478537e+01    1.535076e+03    5.084245e-02    5.849865e+06    2.045187e-08    1.521592e-11    1.786452e-08    1.833673e-09   -1.100000e+00    1.053637e+00    9.570175e-02
    1.520734e+01    1.563230e+03    4.376133e-02    5.255961e+06    2.015171e-08    1.420063e-11    1.747253e-08    1.798969e-09   -1.090000e+00    1.053637e+00    9.059668e-02
    1.560551e+01    1.585596e+03    3.751213e-02    4.695397e+06    1.984256e-08    1.324994e-11    1.706850e-08    1.762982e-09   -1.080000e+00    1.053637e+00    8.576722e-02
    1.597499e+01    1.601909e+03    3.203202e-02    4.171162e+06    1.952485e-08    1.235986e-11    1.665294e-08    1.725740e-09   -1.070000e+00    1.053637e+00    8.122327e-02
    1.631171e+01    1.612124e+03    2.725600e-02    3.685533e+06    1.919912e-08    1.152667e-11    1.622647e-08    1.687283e-09   -1.060000e+00    1.053637e+00    7.697186e-02
    1.661276e+01    1.616422e+03    2.311822e-02    3.239939e+06    1.886598e-08    1.074689e-11    1.578980e-08    1.647663e-09   -1.050000e+00    1.053637e+00    7.301686e-02
    1.687662e+01    1.615211e+03    1.955327e-02    2.834920e+06    1.852612e-08    1.001725e-11    1.534377e-08    1.606942e-09   -1.040000e+00    1.053637e+00    6.935882e-02
    1.710339e+01    1.609111e+03    1.649756e-02    2.470135e+06    1.818031e-08    9.334670e-12    1.488933e-08    1.565193e-09   -1.030000e+00    1.053637e+00    6.599492e-02
    1.729484e+01    1.598912e+03    1.389033e-02    2.144429e+06    1.782943e-08    8.696290e-12    1.442752e-08    1.522498e-09   -1.020000e+00    1.053637e+00    6.291911e-02
    1.745436e+01    1.585535e+03    1.167468e-02    1.855954e+06    1.747438e-08    8.099405e-12    1.395946e-08    1.478953e-09   -1.010000e+00    1.053637e+00    6.012239e-02
    1.758682e+01    1.569973e+03    9.798170e-03    1.602308e+06    1.711617e-08    7.541470e-12    1.348638e-08    1.434661e-09   -1.000000e+00    1.053637e+00    5.759319e-02
    1.769828e+01    1.553241e+03    8.213305e-03    1.380712e+06    1.675584e-08    7.020110e-12    1.300955e-08    1.389735e-09   -9.900000e-01    1.053637e+00    5.531782e-02
    1.779571e+01    1.536331e+03    6.877650e-03    1.188169e+06    1.639447e-08    6.533070e-12    1.253033e-08    1.344293e-09   -9.800000e-01    1.053637e+00    5.328102e-02
    1.788654e+01    1.520163e+03    5.753820e-03    1.021605e+06    1.603319e-08    6.078245e-12    1.205011e-08    1.298465e-09   -9.700000e-01    1.053637e+00    5.146643e-02
    1.797847e+01    1.505571e+03    4.809257e-03    8.780014e+05    1.567312e-08    5.653640e-12    1.157030e-08    1.252380e-09   -9.600000e-01    1.053637e+00    4.985710e-02
    1.807892e+01    1.493272e+03    4.015917e-03    7.544818e+05    1.531541e-08    5.257385e-12    1.109231e-08    1.206172e-09   -9.500000e-01    1.053637e+00    4.843595e-02
    1.819497e+01    1.483868e+03    3.349838e-03    6.483797e+05    1.496118e-08    4.887714e-12    1.061756e-08    1.159981e-09   -9.400000e-01    1.053637e+00    4.718613e-02
    1.833299e+01    1.477843e+03    2.790702e-03    5.572768e+05    1.461153e-08    4.542965e-12    1.014745e-08    1.113941e-09   -9.300000e-01    1.053637e+00    4.609136e-02
    1.849856e+01    1.475565e+03    2.321376e-03    4.790212e+05    1.426754e-08    4.221570e-12    9.683295e-09    1.068188e-09   -9.200000e-01    1.053637e+00    4.513610e-02
    1.869633e+01    1.477295e+03    1.927482e-03    4.117274e+05    1.393019e-08    3.922053e-12    9.226395e-09    1.022854e-09   -9.100000e-01    1.053637e+00    4.430577e-02
    1.892988e+01    1.483195e+03    1.596980e-03    3.537643e+05    1.360046e-08    3.643023e-12    8.777950e-09    9.780650e-10   -9.000000e-01    1.053637e+00    4.358682e-02
    1.920168e+01    1.493329e+03    1.319812e-03    3.037381e+05    1.327921e-08    3.383168e-12    8.339085e-09    9.339430e-10   -8.900000e-01    1.053637e+00    4.296676e-02
    1.951303e+01    1.507673e+03    1.087573e-03    2.604688e+05    1.296724e-08    3.141253e-12    7.910815e-09    8.906015e-10   -8.800000e-01    1.053637e+00    4.243419e-02
    1.986397e+01    1.526110e+03    8.932370e-04    2.229660e+05    1.266526e-08    2.916114e-12    7.494055e-09    8.481440e-10   -8.700000e-01    1.053637e+00    4.197876e-02
    2.025331e+01    1.548442e+03    7.309145e-04    1.904041e+05    1.237389e-08    2.706657e-12    7.089605e-09    8.066660e-10   -8.600000e-01    1.053637e+00    4.159108e-02
    2.067854e+01    1.574381e+03    5.956575e-04    1.620984e+05    1.209366e-08    2.511852e-12    6.698150e-09    7.662525e-10   -8.500000e-01    1.053637e+00    4.126272e-02
    2.113593e+01    1.603562e+03    4.832908e-04    1.374830e+05    1.182500e-08    2.330728e-12    6.320245e-09    7.269780e-10   -8.400000e-01    1.053637e+00    4.098608e-02
    2.162061e+01    1.635546e+03    3.902768e-04    1.160898e+05    1.156823e-08    2.162376e-12    5.956345e-09    6.889050e-10   -8.300000e-01    1.053637e+00    4.075432e-02
    2.212660e+01    1.669828e+03    3.136053e-04    9.752895e+04    1.132361e-08    2.005938e-12    5.606780e-09    6.520865e-10   -8.200000e-01    1.053637e+00    4.056135e-02
    2.264722e+01    1.705863e+03    2.507046e-04    8.147330e+04    1.109129e-08    1.860612e-12    5.271760e-09    6.165635e-10   -8.100000e-01    1.053637e+00    4.040170e-02
    2.317506e+01    1.743068e+03    1.993709e-04    6.764248e+04    1.087134e-08    1.725642e-12    4.951403e-09    5.823680e-10   -8.000000e-01    1.053637e+00    4.027048e-02
    2.370245e+01    1.780859e+03    1.577128e-04    5.579169e+04    1.066377e-08    1.600322e-12    4.645724e-09    5.495205e-10   -7.900000e-01    1.053637e+00    4.016338e-02
    2.422164e+01    1.818665e+03    1.241072e-04    4.570208e+04    1.046850e-08    1.483988e-12    4.354649e-09    5.180325e-10   -7.800000e-01    1.053637e+00    4.007657e-02
    2.472502e+01    1.855951e+03    9.716355e-05    3.717397e+04    1.028540e-08    1.376021e-12    4.078022e-09    4.879069e-10   -7.700000e-01    1.053637e+00    4.000670e-02
    2.520529e+01    1.892242e+03    7.569575e-05    3.002263e+04    1.011427e-08    1.275837e-12    3.815614e-09    4.591390e-10   -7.600000e-01    1.053637e+00    3.995086e-02
    2.565551e+01    1.927124e+03    5.869710e-05    2.407584e+04    9.954880e-09    1.182895e-12    3.567133e-09    4.317160e-10   -7.500000e-01    1.053637e+00    3.990653e-02
    2.606912e+01    1.960271e+03    4.531932e-05    1.917327e+04    9.806945e-09    1.096684e-12    3.332235e-09    4.056192e-10   -7.400000e-01    1.053637e+00    3.987158e-02
    2.643963e+01    1.991432e+03    3.485342e-05    1.516657e+04    9.670155e-09    1.016732e-12    3.110528e-09    3.808240e-10   -7.300000e-01    1.053637e+00    3.984419e-02
    2.676047e+01    2.020440e+03    2.671183e-05    1.192008e+04    9.544170e-09    9.425945e-13    2.901585e-09    3.573011e-10   -7.200000e-01    1.053637e+00    3.982286e-02
