# sky130 pfet_01v8 gm/ID Processed Lookup Table
# Corner: sf
# Temperature: 25C
# W = 2.0 um
# L = 6 um (6000 nm)
# Columns: gm/id [1/V]  gm/gds [V/V]  id/W [A/m]  ft [Hz]  Cgg/W [F/m]  Cgd/W [F/m]  Cgs/W [F/m]  Cdb/W [F/m]  vgs [V]  vth [V]  vdsat [V]
# vdsat = BSIM4 saturation voltage (|VDS|_sat, positive); use for headroom / saturation / cascode-bias calculations
#           gm/id          gm/gds            id/W              ft           Cgg/W           Cgd/W           Cgs/W           Cdb/W             vgs             vth           vdsat
    2.371637e+00    8.667106e+00    2.703340e+00    3.037093e+07    3.359780e-08    2.401237e-09    3.137924e-08    3.345840e-09   -1.800000e+00    1.053852e+00    6.282068e-01
    2.418603e+00    9.510524e+00    2.639227e+00    3.034490e+07    3.347924e-08    2.251583e-09    3.137446e-08    3.323460e-09   -1.790000e+00    1.053852e+00    6.201586e-01
    2.466016e+00    1.046927e+01    2.575687e+00    3.029893e+07    3.336429e-08    2.108832e-09    3.136688e-08    3.301782e-09   -1.780000e+00    1.053852e+00    6.121150e-01
    2.514207e+00    1.155969e+01    2.512343e+00    3.023219e+07    3.325297e-08    1.973015e-09    3.135652e-08    3.280822e-09   -1.770000e+00    1.053852e+00    6.040760e-01
    2.563008e+00    1.279996e+01    2.449368e+00    3.014407e+07    3.314532e-08    1.844110e-09    3.134344e-08    3.260588e-09   -1.760000e+00    1.053852e+00    5.960416e-01
    2.612390e+00    1.421010e+01    2.386799e+00    3.003425e+07    3.304131e-08    1.722056e-09    3.132766e-08    3.241084e-09   -1.750000e+00    1.053852e+00    5.880119e-01
    2.662329e+00    1.581199e+01    2.324675e+00    2.990258e+07    3.294089e-08    1.606744e-09    3.130925e-08    3.222308e-09   -1.740000e+00    1.053852e+00    5.799867e-01
    2.712826e+00    1.762937e+01    2.263031e+00    2.974929e+07    3.284400e-08    1.498030e-09    3.128828e-08    3.204254e-09   -1.730000e+00    1.053852e+00    5.719662e-01
    2.763891e+00    1.968767e+01    2.201903e+00    2.957476e+07    3.275051e-08    1.395740e-09    3.126479e-08    3.186910e-09   -1.720000e+00    1.053852e+00    5.639503e-01
    2.815552e+00    2.201395e+01    2.141326e+00    2.937963e+07    3.266030e-08    1.299671e-09    3.123885e-08    3.170260e-09   -1.710000e+00    1.053852e+00    5.559389e-01
    2.867856e+00    2.463680e+01    2.081333e+00    2.916475e+07    3.257324e-08    1.209598e-09    3.121052e-08    3.154287e-09   -1.700000e+00    1.053852e+00    5.479322e-01
    2.920861e+00    2.758606e+01    2.021957e+00    2.893108e+07    3.248914e-08    1.125278e-09    3.117985e-08    3.138967e-09   -1.690000e+00    1.053852e+00    5.399300e-01
    2.974646e+00    3.089277e+01    1.963225e+00    2.867974e+07    3.240785e-08    1.046457e-09    3.114690e-08    3.124277e-09   -1.680000e+00    1.053852e+00    5.319324e-01
    3.029293e+00    3.458886e+01    1.905168e+00    2.841188e+07    3.232917e-08    9.728710e-10    3.111170e-08    3.110188e-09   -1.670000e+00    1.053852e+00    5.239394e-01
    3.084902e+00    3.870707e+01    1.847808e+00    2.812870e+07    3.225289e-08    9.042535e-10    3.107431e-08    3.096670e-09   -1.660000e+00    1.053852e+00    5.159509e-01
    3.141582e+00    4.328078e+01    1.791169e+00    2.783140e+07    3.217882e-08    8.403340e-10    3.103474e-08    3.083694e-09   -1.650000e+00    1.053852e+00    5.079671e-01
    3.199444e+00    4.834367e+01    1.735272e+00    2.752111e+07    3.210674e-08    7.808460e-10    3.099302e-08    3.071227e-09   -1.640000e+00    1.053852e+00    4.999878e-01
    3.258607e+00    5.392986e+01    1.680137e+00    2.719897e+07    3.203644e-08    7.255260e-10    3.094917e-08    3.059237e-09   -1.630000e+00    1.053852e+00    4.920131e-01
    3.319202e+00    6.007372e+01    1.625779e+00    2.686606e+07    3.196771e-08    6.741175e-10    3.090318e-08    3.047691e-09   -1.620000e+00    1.053852e+00    4.840431e-01
    3.381356e+00    6.680964e+01    1.572216e+00    2.652333e+07    3.190032e-08    6.263715e-10    3.085506e-08    3.036555e-09   -1.610000e+00    1.053852e+00    4.760777e-01
    3.445202e+00    7.417211e+01    1.519460e+00    2.617170e+07    3.183406e-08    5.820480e-10    3.080478e-08    3.025795e-09   -1.600000e+00    1.053852e+00    4.681169e-01
    3.510883e+00    8.219580e+01    1.467523e+00    2.581201e+07    3.176871e-08    5.409185e-10    3.075232e-08    3.015378e-09   -1.590000e+00    1.053852e+00    4.601608e-01
    3.578544e+00    9.091539e+01    1.416417e+00    2.544502e+07    3.170405e-08    5.027640e-10    3.069763e-08    3.005273e-09   -1.580000e+00    1.053852e+00    4.522094e-01
    3.648334e+00    1.003657e+02    1.366151e+00    2.507142e+07    3.163987e-08    4.673773e-10    3.064068e-08    2.995443e-09   -1.570000e+00    1.053852e+00    4.442627e-01
    3.720408e+00    1.105817e+02    1.316736e+00    2.469181e+07    3.157595e-08    4.345627e-10    3.058139e-08    2.985857e-09   -1.560000e+00    1.053852e+00    4.363209e-01
    3.794928e+00    1.215985e+02    1.268178e+00    2.430675e+07    3.151208e-08    4.041359e-10    3.051970e-08    2.976483e-09   -1.550000e+00    1.053852e+00    4.283839e-01
    3.872066e+00    1.334519e+02    1.220485e+00    2.391673e+07    3.144804e-08    3.759237e-10    3.045551e-08    2.967288e-09   -1.540000e+00    1.053852e+00    4.204518e-01
    3.951999e+00    1.461778e+02    1.173665e+00    2.352220e+07    3.138362e-08    3.497641e-10    3.038875e-08    2.958241e-09   -1.530000e+00    1.053852e+00    4.125248e-01
    4.034916e+00    1.598131e+02    1.127721e+00    2.312353e+07    3.131860e-08    3.255058e-10    3.031928e-08    2.949309e-09   -1.520000e+00    1.053852e+00    4.046029e-01
    4.121016e+00    1.743951e+02    1.082661e+00    2.272106e+07    3.125275e-08    3.030077e-10    3.024699e-08    2.940462e-09   -1.510000e+00    1.053852e+00    3.966862e-01
    4.210509e+00    1.899623e+02    1.038490e+00    2.231511e+07    3.118587e-08    2.821388e-10    3.017175e-08    2.931668e-09   -1.500000e+00    1.053852e+00    3.887749e-01
    4.303621e+00    2.065543e+02    9.952110e-01    2.190591e+07    3.111773e-08    2.627770e-10    3.009340e-08    2.922895e-09   -1.490000e+00    1.053852e+00    3.808691e-01
    4.400588e+00    2.242118e+02    9.528305e-01    2.149371e+07    3.104810e-08    2.448094e-10    3.001178e-08    2.914112e-09   -1.480000e+00    1.053852e+00    3.729691e-01
    4.501663e+00    2.429770e+02    9.113525e-01    2.107869e+07    3.097676e-08    2.281311e-10    2.992671e-08    2.905288e-09   -1.470000e+00    1.053852e+00    3.650750e-01
    4.607125e+00    2.628938e+02    8.707800e-01    2.066100e+07    3.090346e-08    2.126453e-10    2.983800e-08    2.896390e-09   -1.460000e+00    1.053852e+00    3.571872e-01
    4.717259e+00    2.840079e+02    8.311175e-01    2.024079e+07    3.082797e-08    1.982623e-10    2.974544e-08    2.887386e-09   -1.450000e+00    1.053852e+00    3.493059e-01
    4.832375e+00    3.063667e+02    7.923695e-01    1.981814e+07    3.075004e-08    1.848993e-10    2.964882e-08    2.878244e-09   -1.440000e+00    1.053852e+00    3.414315e-01
    4.952812e+00    3.300199e+02    7.545385e-01    1.939313e+07    3.066941e-08    1.724798e-10    2.954789e-08    2.868929e-09   -1.430000e+00    1.053852e+00    3.335645e-01
    5.078924e+00    3.550188e+02    7.176290e-01    1.896582e+07    3.058583e-08    1.609330e-10    2.944239e-08    2.859408e-09   -1.420000e+00    1.053852e+00    3.257054e-01
    5.211098e+00    3.814176e+02    6.816440e-01    1.853622e+07    3.049901e-08    1.501940e-10    2.933205e-08    2.849646e-09   -1.410000e+00    1.053852e+00    3.178547e-01
    5.349742e+00    4.092719e+02    6.465875e-01    1.810434e+07    3.040869e-08    1.402024e-10    2.921658e-08    2.839606e-09   -1.400000e+00    1.053852e+00    3.100132e-01
    5.495294e+00    4.386397e+02    6.124635e-01    1.767014e+07    3.031457e-08    1.309031e-10    2.909569e-08    2.829252e-09   -1.390000e+00    1.053852e+00    3.021816e-01
    5.648224e+00    4.695806e+02    5.792755e-01    1.723357e+07    3.021635e-08    1.222447e-10    2.896903e-08    2.818544e-09   -1.380000e+00    1.053852e+00    2.943609e-01
    5.809035e+00    5.021554e+02    5.470275e-01    1.679457e+07    3.011372e-08    1.141802e-10    2.883626e-08    2.807444e-09   -1.370000e+00    1.053852e+00    2.865522e-01
    5.978264e+00    5.364262e+02    5.157230e-01    1.635304e+07    3.000637e-08    1.066660e-10    2.869704e-08    2.795911e-09   -1.360000e+00    1.053852e+00    2.787568e-01
    6.156477e+00    5.724549e+02    4.853662e-01    1.590884e+07    2.989395e-08    9.966200e-11    2.855096e-08    2.783902e-09   -1.350000e+00    1.053852e+00    2.709761e-01
    6.344275e+00    6.103037e+02    4.559614e-01    1.546187e+07    2.977613e-08    9.313130e-11    2.839764e-08    2.771373e-09   -1.340000e+00    1.053852e+00    2.632118e-01
    6.542290e+00    6.500309e+02    4.275128e-01    1.501194e+07    2.965256e-08    8.703980e-11    2.823668e-08    2.758280e-09   -1.330000e+00    1.053852e+00    2.554659e-01
    6.751189e+00    6.916928e+02    4.000246e-01    1.455890e+07    2.952286e-08    8.135595e-11    2.806762e-08    2.744575e-09   -1.320000e+00    1.053852e+00    2.477408e-01
    6.971658e+00    7.353386e+02    3.735014e-01    1.410256e+07    2.938668e-08    7.605075e-11    2.789003e-08    2.730210e-09   -1.310000e+00    1.053852e+00    2.400391e-01
    7.204412e+00    7.810101e+02    3.479476e-01    1.364273e+07    2.924363e-08    7.109730e-11    2.770344e-08    2.715136e-09   -1.300000e+00    1.053852e+00    2.323639e-01
    7.450176e+00    8.287363e+02    3.233678e-01    1.317923e+07    2.909332e-08    6.647090e-11    2.750737e-08    2.699300e-09   -1.290000e+00    1.053852e+00    2.247186e-01
    7.709676e+00    8.785315e+02    2.997662e-01    1.271189e+07    2.893535e-08    6.214865e-11    2.730136e-08    2.682650e-09   -1.280000e+00    1.053852e+00    2.171075e-01
    7.983634e+00    9.303885e+02    2.771471e-01    1.224056e+07    2.876933e-08    5.810940e-11    2.708490e-08    2.665132e-09   -1.270000e+00    1.053852e+00    2.095351e-01
    8.272733e+00    9.842746e+02    2.555146e-01    1.176514e+07    2.859485e-08    5.433360e-11    2.685747e-08    2.646692e-09   -1.260000e+00    1.053852e+00    2.020067e-01
    8.577609e+00    1.040124e+03    2.348721e-01    1.128556e+07    2.841154e-08    5.080320e-11    2.661861e-08    2.627274e-09   -1.250000e+00    1.053852e+00    1.945286e-01
    8.898810e+00    1.097830e+03    2.152226e-01    1.080187e+07    2.821897e-08    4.750141e-11    2.636778e-08    2.606822e-09   -1.240000e+00    1.053852e+00    1.871075e-01
    9.236761e+00    1.157238e+03    1.965682e-01    1.031418e+07    2.801678e-08    4.441281e-11    2.610451e-08    2.585280e-09   -1.230000e+00    1.053852e+00    1.797514e-01
    9.591730e+00    1.218136e+03    1.789097e-01    9.822785e+06    2.780457e-08    4.152302e-11    2.582830e-08    2.562591e-09   -1.220000e+00    1.053852e+00    1.724689e-01
    9.963759e+00    1.280242e+03    1.622467e-01    9.328101e+06    2.758201e-08    3.881877e-11    2.553869e-08    2.538700e-09   -1.210000e+00    1.053852e+00    1.652700e-01
    1.035262e+01    1.343203e+03    1.465768e-01    8.830764e+06    2.734874e-08    3.628773e-11    2.523524e-08    2.513554e-09   -1.200000e+00    1.053852e+00    1.581656e-01
    1.075773e+01    1.406577e+03    1.318957e-01    8.331640e+06    2.710445e-08    3.391848e-11    2.491753e-08    2.487100e-09   -1.190000e+00    1.053852e+00    1.511676e-01
    1.117810e+01    1.469836e+03    1.181960e-01    7.831852e+06    2.684889e-08    3.170041e-11    2.458519e-08    2.459289e-09   -1.180000e+00    1.053852e+00    1.442894e-01
    1.161226e+01    1.532356e+03    1.054675e-01    7.332822e+06    2.658180e-08    2.962367e-11    2.423789e-08    2.430075e-09   -1.170000e+00    1.053852e+00    1.375452e-01
    1.205817e+01    1.593425e+03    9.369640e-02    6.836273e+06    2.630299e-08    2.767913e-11    2.387536e-08    2.399415e-09   -1.160000e+00    1.053852e+00    1.309502e-01
    1.251321e+01    1.652253e+03    8.286470e-02    6.344233e+06    2.601234e-08    2.585825e-11    2.349738e-08    2.367273e-09   -1.150000e+00    1.053852e+00    1.245205e-01
    1.297411e+01    1.707984e+03    7.295010e-02    5.859028e+06    2.570976e-08    2.415315e-11    2.310382e-08    2.333617e-09   -1.140000e+00    1.053852e+00    1.182729e-01
    1.343693e+01    1.759726e+03    6.392565e-02    5.383232e+06    2.539524e-08    2.255644e-11    2.269463e-08    2.298424e-09   -1.130000e+00    1.053852e+00    1.122244e-01
    1.389718e+01    1.806586e+03    5.575940e-02    4.919609e+06    2.506885e-08    2.106126e-11    2.226985e-08    2.261676e-09   -1.120000e+00    1.053852e+00    1.063921e-01
    1.434986e+01    1.847718e+03    4.841463e-02    4.471026e+06    2.473074e-08    1.966122e-11    2.182960e-08    2.223366e-09   -1.110000e+00    1.053852e+00    1.007925e-01
    1.478961e+01    1.882371e+03    4.185000e-02    4.040341e+06    2.438115e-08    1.835037e-11    2.137415e-08    2.183495e-09   -1.100000e+00    1.053852e+00    9.544135e-02
    1.521096e+01    1.909939e+03    3.601989e-02    3.630268e+06    2.402041e-08    1.712312e-11    2.090385e-08    2.142076e-09   -1.090000e+00    1.053852e+00    9.035280e-02
    1.560862e+01    1.930023e+03    3.087515e-02    3.243260e+06    2.364895e-08    1.597427e-11    2.041920e-08    2.099133e-09   -1.080000e+00    1.053852e+00    8.553910e-02
    1.597777e+01    1.942465e+03    2.636386e-02    2.881372e+06    2.326729e-08    1.489897e-11    1.992080e-08    2.054702e-09   -1.070000e+00    1.053852e+00    8.101004e-02
    1.631440e+01    1.947375e+03    2.243236e-02    2.546156e+06    2.287607e-08    1.389267e-11    1.940940e-08    2.008830e-09   -1.060000e+00    1.053852e+00    7.677260e-02
    1.661567e+01    1.945146e+03    1.902633e-02    2.238585e+06    2.247604e-08    1.295112e-11    1.888587e-08    1.961579e-09   -1.050000e+00    1.053852e+00    7.283056e-02
    1.688013e+01    1.936435e+03    1.609187e-02    1.959021e+06    2.206801e-08    1.207031e-11    1.835122e-08    1.913023e-09   -1.040000e+00    1.053852e+00    6.918444e-02
    1.710790e+01    1.922134e+03    1.357655e-02    1.707220e+06    2.165294e-08    1.124653e-11    1.780658e-08    1.863250e-09   -1.030000e+00    1.053852e+00    6.583138e-02
    1.730082e+01    1.903316e+03    1.143035e-02    1.482378e+06    2.123185e-08    1.047626e-11    1.725320e-08    1.812359e-09   -1.020000e+00    1.053852e+00    6.276535e-02
    1.746232e+01    1.881177e+03    9.606425e-03    1.283212e+06    2.080585e-08    9.756215e-12    1.669244e-08    1.760462e-09   -1.010000e+00    1.053852e+00    5.997736e-02
    1.759728e+01    1.856965e+03    8.061620e-03    1.108067e+06    2.037614e-08    9.083310e-12    1.612574e-08    1.707684e-09   -1.000000e+00    1.053852e+00    5.745590e-02
    1.771177e+01    1.831925e+03    6.756840e-03    9.550239e+05    1.994397e-08    8.454630e-12    1.555467e-08    1.654158e-09   -9.900000e-01    1.053852e+00    5.518735e-02
    1.781279e+01    1.807239e+03    5.657170e-03    8.220157e+05    1.951063e-08    7.867460e-12    1.498082e-08    1.600027e-09   -9.800000e-01    1.053852e+00    5.315650e-02
    1.790776e+01    1.783983e+03    4.731866e-03    7.069244e+05    1.907747e-08    7.319220e-12    1.440586e-08    1.545442e-09   -9.700000e-01    1.053852e+00    5.134710e-02
    1.800432e+01    1.763113e+03    3.954143e-03    6.076692e+05    1.864584e-08    6.807500e-12    1.383148e-08    1.490559e-09   -9.600000e-01    1.053852e+00    4.974230e-02
    1.810992e+01    1.745429e+03    3.300926e-03    5.222676e+05    1.821711e-08    6.330025e-12    1.325937e-08    1.435538e-09   -9.500000e-01    1.053852e+00    4.832511e-02
    1.823156e+01    1.731593e+03    2.752507e-03    4.488825e+05    1.779261e-08    5.884655e-12    1.269122e-08    1.380542e-09   -9.400000e-01    1.053852e+00    4.707879e-02
    1.837559e+01    1.722113e+03    2.292166e-03    3.858475e+05    1.737368e-08    5.469370e-12    1.212869e-08    1.325733e-09   -9.300000e-01    1.053852e+00    4.598712e-02
    1.854750e+01    1.717369e+03    1.905810e-03    3.316800e+05    1.696156e-08    5.082275e-12    1.157339e-08    1.271271e-09   -9.200000e-01    1.053852e+00    4.503467e-02
    1.875182e+01    1.717610e+03    1.581604e-03    2.850801e+05    1.655748e-08    4.721572e-12    1.102682e-08    1.217314e-09   -9.100000e-01    1.053852e+00    4.420691e-02
    1.899203e+01    1.722969e+03    1.309638e-03    2.449245e+05    1.616257e-08    4.385582e-12    1.049044e-08    1.164012e-09   -9.000000e-01    1.053852e+00    4.349035e-02
    1.927041e+01    1.733470e+03    1.081632e-03    2.102531e+05    1.577787e-08    4.072717e-12    9.965580e-09    1.111508e-09   -8.900000e-01    1.053852e+00    4.287256e-02
    1.958808e+01    1.749036e+03    8.906635e-04    1.802532e+05    1.540433e-08    3.781480e-12    9.453455e-09    1.059936e-09   -8.800000e-01    1.053852e+00    4.234216e-02
    1.994487e+01    1.769486e+03    7.309420e-04    1.542431e+05    1.504280e-08    3.510468e-12    8.955145e-09    1.009421e-09   -8.700000e-01    1.053852e+00    4.188882e-02
    2.033931e+01    1.794541e+03    5.976135e-04    1.316547e+05    1.469401e-08    3.258352e-12    8.471610e-09    9.600740e-10   -8.600000e-01    1.053852e+00    4.150318e-02
    2.076868e+01    1.823833e+03    4.865947e-04    1.120173e+05    1.435858e-08    3.023892e-12    8.003655e-09    9.119970e-10   -8.500000e-01    1.053852e+00    4.117679e-02
    2.122900e+01    1.856903e+03    3.944400e-04    9.494133e+04    1.403703e-08    2.805912e-12    7.551950e-09    8.652770e-10   -8.400000e-01    1.053852e+00    4.090204e-02
    2.171510e+01    1.893207e+03    3.182272e-04    8.010441e+04    1.372976e-08    2.603316e-12    7.117020e-09    8.199890e-10   -8.300000e-01    1.053852e+00    4.067211e-02
    2.222088e+01    1.932142e+03    2.554686e-04    6.723806e+04    1.343704e-08    2.415067e-12    6.699255e-09    7.761950e-10   -8.200000e-01    1.053852e+00    4.048085e-02
    2.273938e+01    1.973052e+03    2.040379e-04    5.611569e+04    1.315907e-08    2.240197e-12    6.298910e-09    7.339435e-10   -8.100000e-01    1.053852e+00    4.032280e-02
    2.326314e+01    2.015259e+03    1.621131e-04    4.654295e+04    1.289593e-08    2.077794e-12    5.916120e-09    6.932720e-10   -8.000000e-01    1.053852e+00    4.019306e-02
    2.378436e+01    2.058082e+03    1.281308e-04    3.834921e+04    1.264762e-08    1.927008e-12    5.550890e-09    6.542045e-10   -7.900000e-01    1.053852e+00    4.008729e-02
    2.429522e+01    2.100863e+03    1.007499e-04    3.138143e+04    1.241403e-08    1.787036e-12    5.203135e-09    6.167545e-10   -7.800000e-01    1.053852e+00    4.000166e-02
    2.478797e+01    2.142994e+03    7.882320e-05    2.549957e+04    1.219501e-08    1.657132e-12    4.872658e-09    5.809255e-10   -7.700000e-01    1.053852e+00    3.993283e-02
    2.525524e+01    2.183935e+03    6.137280e-05    2.057387e+04    1.199034e-08    1.536594e-12    4.559186e-09    5.467110e-10   -7.600000e-01    1.053852e+00    3.987789e-02
    2.568984e+01    2.223231e+03    4.757043e-05    1.648341e+04    1.179971e-08    1.424768e-12    4.262368e-09    5.140960e-10   -7.500000e-01    1.053852e+00    3.983432e-02
    2.608480e+01    2.260512e+03    3.671929e-05    1.311569e+04    1.162280e-08    1.321042e-12    3.981786e-09    4.830582e-10   -7.400000e-01    1.053852e+00    3.980001e-02
    2.643315e+01    2.295513e+03    2.823806e-05    1.036690e+04    1.145923e-08    1.224844e-12    3.716970e-09    4.535678e-10   -7.300000e-01    1.053852e+00    3.977314e-02
    2.672744e+01    2.328052e+03    2.164598e-05    8.142290e+03    1.130858e-08    1.135640e-12    3.467409e-09    4.255898e-10   -7.200000e-01    1.053852e+00    3.975224e-02
