# sky130 nfet_01v8 gm/ID Processed Lookup Table
# Corner: fs
# Temperature: 25C
# W = 2.0 um
# L = 4.68 um (4680 nm)
# Columns: gm/id [1/V]  gm/gds [V/V]  id/W [A/m]  ft [Hz]  Cgg/W [F/m]  Cgd/W [F/m]  Cgs/W [F/m]  Vov [V]
#         gm/id          gm/gds            id/W              ft           Cgg/W           Cgd/W           Cgs/W             Vov
    2.805283e+01    2.281773e+02    8.800380e-09    4.072490e+00    9.648020e-09    1.451780e-13    3.780873e-10   -5.718703e-01
    2.805231e+01    2.281730e+02    1.012551e-08    4.694300e+00    9.630185e-09    1.506558e-13    3.928241e-10   -5.668703e-01
    2.805174e+01    2.281684e+02    1.165014e-08    5.410583e+00    9.613175e-09    1.563526e-13    4.082749e-10   -5.618703e-01
    2.805114e+01    2.281635e+02    1.340429e-08    6.235600e+00    9.597015e-09    1.622782e-13    4.244769e-10   -5.568703e-01
    2.805048e+01    2.281582e+02    1.542252e-08    7.185748e+00    9.581730e-09    1.684424e-13    4.414689e-10   -5.518703e-01
    2.804978e+01    2.281526e+02    1.774457e-08    8.279871e+00    9.567350e-09    1.748559e-13    4.592917e-10   -5.468703e-01
    2.804903e+01    2.281464e+02    2.041616e-08    9.539626e+00    9.553900e-09    1.815295e-13    4.779879e-10   -5.418703e-01
    2.804824e+01    2.281400e+02    2.348989e-08    1.098991e+01    9.541410e-09    1.884749e-13    4.976004e-10   -5.368703e-01
    2.804737e+01    2.281329e+02    2.702626e-08    1.265929e+01    9.529915e-09    1.957040e-13    5.181775e-10   -5.318703e-01
    2.804644e+01    2.281254e+02    3.109489e-08    1.458058e+01    9.519455e-09    2.032294e-13    5.397680e-10   -5.268703e-01
    2.804545e+01    2.281173e+02    3.577586e-08    1.679150e+01    9.510055e-09    2.110642e-13    5.624220e-10   -5.218703e-01
    2.804439e+01    2.281087e+02    4.116128e-08    1.933530e+01    9.501760e-09    2.192222e-13    5.861935e-10   -5.168703e-01
    2.804325e+01    2.280995e+02    4.735712e-08    2.226162e+01    9.494605e-09    2.277180e-13    6.111375e-10   -5.118703e-01
    2.804203e+01    2.280895e+02    5.448525e-08    2.562741e+01    9.488635e-09    2.365664e-13    6.373105e-10   -5.068703e-01
    2.804071e+01    2.280789e+02    6.268595e-08    2.949802e+01    9.483890e-09    2.457832e-13    6.647735e-10   -5.018703e-01
    2.803930e+01    2.280676e+02    7.212045e-08    3.394831e+01    9.480420e-09    2.553849e-13    6.935875e-10   -4.968703e-01
    2.803779e+01    2.280553e+02    8.297425e-08    3.906414e+01    9.478270e-09    2.653887e-13    7.238180e-10   -4.918703e-01
    2.803619e+01    2.280423e+02    9.546075e-08    4.494391e+01    9.477485e-09    2.758126e-13    7.555315e-10   -4.868703e-01
    2.803445e+01    2.280282e+02    1.098254e-07    5.170027e+01    9.478120e-09    2.866752e-13    7.887970e-10   -4.818703e-01
    2.803260e+01    2.280132e+02    1.263505e-07    5.946226e+01    9.480230e-09    2.979965e-13    8.236875e-10   -4.768703e-01
    2.803061e+01    2.279970e+02    1.453606e-07    6.837766e+01    9.483860e-09    3.097966e-13    8.602760e-10   -4.718703e-01
    2.802848e+01    2.279798e+02    1.672292e-07    7.861540e+01    9.489080e-09    3.220973e-13    8.986395e-10   -4.668703e-01
    2.802618e+01    2.279612e+02    1.923856e-07    9.036885e+01    9.495940e-09    3.349207e-13    9.388575e-10   -4.618703e-01
    2.802373e+01    2.279414e+02    2.213239e-07    1.038592e+02    9.504505e-09    3.482903e-13    9.810110e-10   -4.568703e-01
    2.802112e+01    2.279202e+02    2.546115e-07    1.193390e+02    9.514835e-09    3.622304e-13    1.025184e-09   -4.518703e-01
    2.801829e+01    2.278974e+02    2.929019e-07    1.370969e+02    9.527000e-09    3.767665e-13    1.071463e-09   -4.468703e-01
    2.801527e+01    2.278730e+02    3.369457e-07    1.574629e+02    9.541060e-09    3.919251e-13    1.119936e-09   -4.418703e-01
    2.801204e+01    2.278469e+02    3.876063e-07    1.808133e+02    9.557085e-09    4.077339e-13    1.170693e-09   -4.368703e-01
    2.800858e+01    2.278190e+02    4.458764e-07    2.075775e+02    9.575145e-09    4.242217e-13    1.223826e-09   -4.318703e-01
    2.800485e+01    2.277890e+02    5.128975e-07    2.382457e+02    9.595310e-09    4.414187e-13    1.279430e-09   -4.268703e-01
    2.800088e+01    2.277569e+02    5.899810e-07    2.733760e+02    9.617660e-09    4.593563e-13    1.337600e-09   -4.218703e-01
    2.799662e+01    2.277226e+02    6.786355e-07    3.136054e+02    9.642260e-09    4.780669e-13    1.398434e-09   -4.168703e-01
    2.799206e+01    2.276858e+02    7.805945e-07    3.596583e+02    9.669195e-09    4.975848e-13    1.462031e-09   -4.118703e-01
    2.798716e+01    2.276464e+02    8.978510e-07    4.123608e+02    9.698530e-09    5.179455e-13    1.528490e-09   -4.068703e-01
    2.798192e+01    2.276042e+02    1.032695e-06    4.726516e+02    9.730350e-09    5.391855e-13    1.597912e-09   -4.018703e-01
    2.797630e+01    2.275592e+02    1.187758e-06    5.415994e+02    9.764730e-09    5.613430e-13    1.670397e-09   -3.968703e-01
    2.797029e+01    2.275109e+02    1.366064e-06    6.204182e+02    9.801755e-09    5.844590e-13    1.746048e-09   -3.918703e-01
    2.796385e+01    2.274592e+02    1.571090e-06    7.104890e+02    9.841490e-09    6.085735e-13    1.824967e-09   -3.868703e-01
    2.795695e+01    2.274039e+02    1.806826e-06    8.133781e+02    9.884025e-09    6.337310e-13    1.907252e-09   -3.818703e-01
    2.794958e+01    2.273449e+02    2.077860e-06    9.308662e+02    9.929430e-09    6.599750e-13    1.993007e-09   -3.768703e-01
    2.794167e+01    2.272817e+02    2.389459e-06    1.064970e+03    9.977790e-09    6.873530e-13    2.082328e-09   -3.718703e-01
    2.793321e+01    2.272142e+02    2.747673e-06    1.217981e+03    1.002917e-08    7.159125e-13    2.175314e-09   -3.668703e-01
    2.792417e+01    2.271422e+02    3.159450e-06    1.392495e+03    1.008366e-08    7.457045e-13    2.272060e-09   -3.618703e-01
    2.791448e+01    2.270651e+02    3.632768e-06    1.591449e+03    1.014132e-08    7.767800e-13    2.372659e-09   -3.568703e-01
    2.790412e+01    2.269826e+02    4.176784e-06    1.818174e+03    1.020222e-08    8.091930e-13    2.477202e-09   -3.518703e-01
    2.789303e+01    2.268948e+02    4.802010e-06    2.076437e+03    1.026645e-08    8.430000e-13    2.585775e-09   -3.468703e-01
    2.788117e+01    2.268009e+02    5.520510e-06    2.370500e+03    1.033404e-08    8.782580e-13    2.698460e-09   -3.418703e-01
    2.786849e+01    2.267009e+02    6.346130e-06    2.705184e+03    1.040509e-08    9.150270e-13    2.815335e-09   -3.368703e-01
    2.785494e+01    2.265940e+02    7.294745e-06    3.085934e+03    1.047962e-08    9.533690e-13    2.936475e-09   -3.318703e-01
    2.784046e+01    2.264801e+02    8.384570e-06    3.518902e+03    1.055772e-08    9.933480e-13    3.061945e-09   -3.268703e-01
    2.782499e+01    2.263588e+02    9.636490e-06    4.011034e+03    1.063942e-08    1.035030e-12    3.191807e-09   -3.218703e-01
    2.780847e+01    2.262295e+02    1.107446e-05    4.570163e+03    1.072476e-08    1.078484e-12    3.326117e-09   -3.168703e-01
    2.779083e+01    2.260919e+02    1.272591e-05    5.205134e+03    1.081380e-08    1.123781e-12    3.464921e-09   -3.118703e-01
    2.777199e+01    2.259455e+02    1.462230e-05    5.925907e+03    1.090656e-08    1.170992e-12    3.608260e-09   -3.068703e-01
    2.775190e+01    2.257899e+02    1.679964e-05    6.743713e+03    1.100307e-08    1.220194e-12    3.756163e-09   -3.018703e-01
    2.773047e+01    2.256245e+02    1.929921e-05    7.671193e+03    1.110335e-08    1.271465e-12    3.908655e-09   -2.968703e-01
    2.770759e+01    2.254487e+02    2.216822e-05    8.722574e+03    1.120741e-08    1.324883e-12    4.065750e-09   -2.918703e-01
    2.768323e+01    2.252622e+02    2.546074e-05    9.913878e+03    1.131526e-08    1.380533e-12    4.227449e-09   -2.868703e-01
    2.765730e+01    2.250647e+02    2.923859e-05    1.126311e+04    1.142689e-08    1.438498e-12    4.393748e-09   -2.818703e-01
    2.762967e+01    2.248554e+02    3.357251e-05    1.279049e+04    1.154231e-08    1.498867e-12    4.564628e-09   -2.768703e-01
    2.760027e+01    2.246339e+02    3.854334e-05    1.451874e+04    1.166149e-08    1.561730e-12    4.740065e-09   -2.718703e-01
    2.756900e+01    2.243998e+02    4.424345e-05    1.647338e+04    1.178440e-08    1.627180e-12    4.920017e-09   -2.668703e-01
    2.753576e+01    2.241525e+02    5.077835e-05    1.868303e+04    1.191101e-08    1.695311e-12    5.104435e-09   -2.618703e-01
    2.750046e+01    2.238917e+02    5.826850e-05    2.117979e+04    1.204127e-08    1.766222e-12    5.293260e-09   -2.568703e-01
    2.746300e+01    2.236170e+02    6.685130e-05    2.399961e+04    1.217514e-08    1.840015e-12    5.486420e-09   -2.518703e-01
    2.742326e+01    2.233283e+02    7.668355e-05    2.718277e+04    1.231254e-08    1.916792e-12    5.683825e-09   -2.468703e-01
    2.738113e+01    2.230251e+02    8.794395e-05    3.077436e+04    1.245342e-08    1.996661e-12    5.885380e-09   -2.418703e-01
    2.733653e+01    2.227073e+02    1.008360e-04    3.482478e+04    1.259768e-08    2.079730e-12    6.090985e-09   -2.368703e-01
    2.728936e+01    2.223750e+02    1.155913e-04    3.939040e+04    1.274525e-08    2.166113e-12    6.300510e-09   -2.318703e-01
    2.723950e+01    2.220279e+02    1.324737e-04    4.453420e+04    1.289601e-08    2.255923e-12    6.513835e-09   -2.268703e-01
    2.718687e+01    2.216666e+02    1.517829e-04    5.032642e+04    1.304986e-08    2.349280e-12    6.730815e-09   -2.218703e-01
    2.713136e+01    2.212911e+02    1.738596e-04    5.684546e+04    1.320671e-08    2.446304e-12    6.951300e-09   -2.168703e-01
    2.707291e+01    2.209022e+02    1.990906e-04    6.417877e+04    1.336640e-08    2.547122e-12    7.175125e-09   -2.118703e-01
    2.701142e+01    2.205005e+02    2.279148e-04    7.242358e+04    1.352882e-08    2.651860e-12    7.402120e-09   -2.068703e-01
    2.694683e+01    2.200871e+02    2.608300e-04    8.168842e+04    1.369383e-08    2.760648e-12    7.632110e-09   -2.018703e-01
    2.687908e+01    2.196632e+02    2.984000e-04    9.209369e+04    1.386128e-08    2.873622e-12    7.864900e-09   -1.968703e-01
    2.680812e+01    2.192304e+02    3.412632e-04    1.037736e+05    1.403102e-08    2.990918e-12    8.100300e-09   -1.918703e-01
    2.673395e+01    2.187909e+02    3.901419e-04    1.168769e+05    1.420290e-08    3.112678e-12    8.338100e-09   -1.868703e-01
    2.665653e+01    2.183466e+02    4.458525e-04    1.315692e+05    1.437675e-08    3.239047e-12    8.578095e-09   -1.818703e-01
    2.657588e+01    2.179008e+02    5.093170e-04    1.480339e+05    1.455241e-08    3.370173e-12    8.820065e-09   -1.768703e-01
    2.649206e+01    2.174566e+02    5.815760e-04    1.664748e+05    1.472969e-08    3.506206e-12    9.063790e-09   -1.718703e-01
    2.640507e+01    2.170177e+02    6.638035e-04    1.871177e+05    1.490844e-08    3.647305e-12    9.309055e-09   -1.668703e-01
    2.631505e+01    2.165884e+02    7.573210e-04    2.102128e+05    1.508847e-08    3.793628e-12    9.555620e-09   -1.618703e-01
    2.622207e+01    2.161739e+02    8.636185e-04    2.360377e+05    1.526960e-08    3.945337e-12    9.803260e-09   -1.568703e-01
    2.612626e+01    2.157795e+02    9.843715e-04    2.648997e+05    1.545165e-08    4.102602e-12    1.005175e-08   -1.518703e-01
    2.602782e+01    2.154117e+02    1.121464e-03    2.971396e+05    1.563444e-08    4.265594e-12    1.030085e-08   -1.468703e-01
    2.592692e+01    2.150774e+02    1.277011e-03    3.331347e+05    1.581779e-08    4.434488e-12    1.055032e-08   -1.418703e-01
    2.582378e+01    2.147841e+02    1.453392e-03    3.733030e+05    1.600152e-08    4.609467e-12    1.079996e-08   -1.368703e-01
    2.571864e+01    2.145404e+02    1.653273e-03    4.181077e+05    1.618544e-08    4.790714e-12    1.104952e-08   -1.318703e-01
    2.561175e+01    2.143553e+02    1.879646e-03    4.680620e+05    1.636937e-08    4.978420e-12    1.129878e-08   -1.268703e-01
    2.550339e+01    2.142384e+02    2.135865e-03    5.237345e+05    1.655315e-08    5.172780e-12    1.154750e-08   -1.218703e-01
    2.539383e+01    2.142001e+02    2.425688e-03    5.857551e+05    1.673660e-08    5.373995e-12    1.179550e-08   -1.168703e-01
    2.528334e+01    2.142514e+02    2.753323e-03    6.548219e+05    1.691954e-08    5.582270e-12    1.204254e-08   -1.118703e-01
    2.517220e+01    2.144038e+02    3.123479e-03    7.317077e+05    1.710182e-08    5.797810e-12    1.228843e-08   -1.068703e-01
    2.506060e+01    2.146687e+02    3.541427e-03    8.172669e+05    1.728328e-08    6.020840e-12    1.253295e-08   -1.018703e-01
    2.494875e+01    2.150581e+02    4.013056e-03    9.124453e+05    1.746375e-08    6.251575e-12    1.277592e-08   -9.687030e-02
    2.483677e+01    2.155839e+02    4.544951e-03    1.018286e+06    1.764309e-08    6.490245e-12    1.301716e-08   -9.187030e-02
    2.472472e+01    2.162581e+02    5.144460e-03    1.135941e+06    1.782115e-08    6.737085e-12    1.325647e-08   -8.687030e-02
    2.461255e+01    2.170920e+02    5.819790e-03    1.266674e+06    1.799780e-08    6.992335e-12    1.349370e-08   -8.187030e-02
    2.450016e+01    2.180962e+02    6.580075e-03    1.411872e+06    1.817291e-08    7.256245e-12    1.372869e-08   -7.687030e-02
    2.438727e+01    2.192807e+02    7.435490e-03    1.573053e+06    1.834635e-08    7.529065e-12    1.396127e-08   -7.187030e-02
    2.427347e+01    2.206539e+02    8.397360e-03    1.751866e+06    1.851800e-08    7.811055e-12    1.419130e-08   -6.687030e-02
    2.415829e+01    2.222229e+02    9.478225e-03    1.950098e+06    1.868774e-08    8.102485e-12    1.441865e-08   -6.187030e-02
    2.404102e+01    2.239932e+02    1.069201e-02    2.169674e+06    1.885549e-08    8.403630e-12    1.464320e-08   -5.687030e-02
    2.392089e+01    2.259678e+02    1.205408e-02    2.412653e+06    1.902114e-08    8.714780e-12    1.486483e-08   -5.187030e-02
    2.379697e+01    2.281477e+02    1.358137e-02    2.681222e+06    1.918459e-08    9.036225e-12    1.508343e-08   -4.687030e-02
    2.366822e+01    2.305309e+02    1.529253e-02    2.977685e+06    1.934578e-08    9.368265e-12    1.529891e-08   -4.187030e-02
    2.353351e+01    2.331131e+02    1.720795e-02    3.304444e+06    1.950463e-08    9.711205e-12    1.551117e-08   -3.687030e-02
    2.339167e+01    2.358866e+02    1.934991e-02    3.663983e+06    1.966105e-08    1.006537e-11    1.572014e-08   -3.187030e-02
    2.324145e+01    2.388409e+02    2.174262e-02    4.058832e+06    1.981501e-08    1.043109e-11    1.592574e-08   -2.687030e-02
    2.308165e+01    2.419621e+02    2.441228e-02    4.491535e+06    1.996643e-08    1.080871e-11    1.612791e-08   -2.187030e-02
    2.291112e+01    2.452339e+02    2.738712e-02    4.964629e+06    2.011528e-08    1.119856e-11    1.632662e-08   -1.687030e-02
    2.272874e+01    2.486363e+02    3.069739e-02    5.480563e+06    2.026151e-08    1.160101e-11    1.652180e-08   -1.187030e-02
    2.253359e+01    2.521474e+02    3.437532e-02    6.041695e+06    2.040509e-08    1.201644e-11    1.671341e-08   -6.870300e-03
    2.232483e+01    2.557420e+02    3.845508e-02    6.650201e+06    2.054599e-08    1.244522e-11    1.690145e-08   -1.870300e-03
    2.210184e+01    2.593936e+02    4.297264e-02    7.308058e+06    2.068420e-08    1.288775e-11    1.708587e-08    3.129700e-03
    2.186423e+01    2.630737e+02    4.796563e-02    8.016973e+06    2.081968e-08    1.334444e-11    1.726668e-08    8.129700e-03
    2.161176e+01    2.667522e+02    5.347320e-02    8.778329e+06    2.095244e-08    1.381570e-11    1.744385e-08    1.312970e-02
    2.134447e+01    2.703991e+02    5.953580e-02    9.593175e+06    2.108246e-08    1.430198e-11    1.761739e-08    1.812970e-02
    2.106264e+01    2.739834e+02    6.619475e-02    1.046215e+07    2.120975e-08    1.480372e-11    1.778731e-08    2.312970e-02
    2.076669e+01    2.774748e+02    7.349230e-02    1.138546e+07    2.133431e-08    1.532138e-11    1.795361e-08    2.812970e-02
    2.045735e+01    2.808438e+02    8.147090e-02    1.236290e+07    2.145615e-08    1.585543e-11    1.811632e-08    3.312970e-02
    2.013544e+01    2.840619e+02    9.017325e-02    1.339377e+07    2.157528e-08    1.640638e-11    1.827545e-08    3.812970e-02
    1.980199e+01    2.871027e+02    9.964175e-02    1.447693e+07    2.169171e-08    1.697474e-11    1.843104e-08    4.312970e-02
    1.945813e+01    2.899415e+02    1.099181e-01    1.561080e+07    2.180547e-08    1.756102e-11    1.858311e-08    4.812970e-02
    1.910513e+01    2.925564e+02    1.210432e-01    1.679337e+07    2.191658e-08    1.816579e-11    1.873170e-08    5.312970e-02
    1.874429e+01    2.949278e+02    1.330565e-01    1.802221e+07    2.202507e-08    1.878958e-11    1.887684e-08    5.812970e-02
    1.837699e+01    2.970398e+02    1.459960e-01    1.929458e+07    2.213096e-08    1.943299e-11    1.901857e-08    6.312970e-02
    1.800460e+01    2.988785e+02    1.598979e-01    2.060740e+07    2.223429e-08    2.009663e-11    1.915696e-08    6.812970e-02
    1.762851e+01    3.004336e+02    1.747960e-01    2.195733e+07    2.233509e-08    2.078110e-11    1.929203e-08    7.312970e-02
    1.725007e+01    3.016978e+02    1.907219e-01    2.334084e+07    2.243339e-08    2.148706e-11    1.942385e-08    7.812970e-02
    1.687057e+01    3.026667e+02    2.077049e-01    2.475426e+07    2.252925e-08    2.221516e-11    1.955247e-08    8.312970e-02
    1.649126e+01    3.033387e+02    2.257713e-01    2.619379e+07    2.262269e-08    2.296611e-11    1.967792e-08    8.812970e-02
    1.611330e+01    3.037152e+02    2.449448e-01    2.765566e+07    2.271376e-08    2.374061e-11    1.980030e-08    9.312970e-02
    1.573779e+01    3.037995e+02    2.652465e-01    2.913608e+07    2.280250e-08    2.453939e-11    1.991963e-08    9.812970e-02
    1.536571e+01    3.035975e+02    2.866943e-01    3.063134e+07    2.288895e-08    2.536322e-11    2.003598e-08    1.031297e-01
    1.499796e+01    3.031169e+02    3.093037e-01    3.213786e+07    2.297315e-08    2.621289e-11    2.014942e-08    1.081297e-01
    1.463536e+01    3.023671e+02    3.330874e-01    3.365218e+07    2.305517e-08    2.708922e-11    2.025999e-08    1.131297e-01
    1.427859e+01    3.013590e+02    3.580552e-01    3.517105e+07    2.313504e-08    2.799305e-11    2.036777e-08    1.181297e-01
    1.392832e+01    3.001048e+02    3.842147e-01    3.669148e+07    2.321281e-08    2.892526e-11    2.047283e-08    1.231297e-01
    1.358504e+01    2.986171e+02    4.115712e-01    3.821062e+07    2.328852e-08    2.988676e-11    2.057521e-08    1.281297e-01
    1.324918e+01    2.969093e+02    4.401275e-01    3.972590e+07    2.336222e-08    3.087848e-11    2.067498e-08    1.331297e-01
    1.292114e+01    2.949959e+02    4.698845e-01    4.123506e+07    2.343395e-08    3.190140e-11    2.077219e-08    1.381297e-01
    1.260119e+01    2.928910e+02    5.008415e-01    4.273604e+07    2.350379e-08    3.295653e-11    2.086693e-08    1.431297e-01
    1.228956e+01    2.906089e+02    5.329955e-01    4.422707e+07    2.357175e-08    3.404491e-11    2.095925e-08    1.481297e-01
    1.198639e+01    2.881634e+02    5.663425e-01    4.570658e+07    2.363790e-08    3.516764e-11    2.104920e-08    1.531297e-01
    1.169177e+01    2.855688e+02    6.008775e-01    4.717330e+07    2.370227e-08    3.632581e-11    2.113685e-08    1.581297e-01
    1.140576e+01    2.828386e+02    6.365935e-01    4.862620e+07    2.376492e-08    3.752061e-11    2.122226e-08    1.631297e-01
    1.112837e+01    2.799858e+02    6.734830e-01    5.006440e+07    2.382589e-08    3.875324e-11    2.130549e-08    1.681297e-01
    1.085953e+01    2.770230e+02    7.115380e-01    5.148728e+07    2.388523e-08    4.002494e-11    2.138659e-08    1.731297e-01
    1.059919e+01    2.739621e+02    7.507495e-01    5.289437e+07    2.394298e-08    4.133700e-11    2.146564e-08    1.781297e-01
    1.034722e+01    2.708144e+02    7.911085e-01    5.428543e+07    2.399919e-08    4.269079e-11    2.154267e-08    1.831297e-01
