# sky130 nfet_01v8 gm/ID Processed Lookup Table
# Corner: fs
# Temperature: 25C
# W = 2.0 um
# L = 0.72 um (720 nm)
# Columns: gm/id [1/V]  gm/gds [V/V]  id/W [A/m]  ft [Hz]  Cgg/W [F/m]  Cgd/W [F/m]  Cgs/W [F/m]  Vov [V]
#         gm/id          gm/gds            id/W              ft           Cgg/W           Cgd/W           Cgs/W             Vov
    2.730233e+01    1.700465e+02    2.362013e-08    6.687976e+01    1.534643e-09    6.435775e-15    3.759283e-11   -6.465479e-01
    2.730198e+01    1.700448e+02    2.707498e-08    7.687934e+01    1.530287e-09    6.661900e-15    3.885567e-11   -6.415479e-01
    2.730162e+01    1.700430e+02    3.103510e-08    8.836873e+01    1.526030e-09    6.894415e-15    4.017446e-11   -6.365479e-01
    2.730123e+01    1.700411e+02    3.557439e-08    1.015690e+02    1.521874e-09    7.133450e-15    4.155212e-11   -6.315479e-01
    2.730080e+01    1.700390e+02    4.077753e-08    1.167336e+02    1.517821e-09    7.379120e-15    4.299176e-11   -6.265479e-01
    2.730035e+01    1.700368e+02    4.674158e-08    1.341536e+02    1.513873e-09    7.631530e-15    4.449666e-11   -6.215479e-01
    2.729986e+01    1.700343e+02    5.357780e-08    1.541630e+02    1.510030e-09    7.890810e-15    4.607025e-11   -6.165479e-01
    2.729935e+01    1.700317e+02    6.141370e-08    1.771445e+02    1.506295e-09    8.157070e-15    4.771615e-11   -6.115479e-01
    2.729881e+01    1.700288e+02    7.039540e-08    2.035375e+02    1.502671e-09    8.430430e-15    4.943815e-11   -6.065479e-01
    2.729821e+01    1.700257e+02    8.069050e-08    2.338456e+02    1.499158e-09    8.711000e-15    5.124025e-11   -6.015479e-01
    2.729758e+01    1.700224e+02    9.249090e-08    2.686464e+02    1.495762e-09    8.998910e-15    5.312665e-11   -5.965479e-01
    2.729691e+01    1.700188e+02    1.060167e-07    3.086019e+02    1.492483e-09    9.294275e-15    5.510170e-11   -5.915479e-01
    2.729619e+01    1.700149e+02    1.215201e-07    3.544711e+02    1.489324e-09    9.597215e-15    5.717015e-11   -5.865479e-01
    2.729542e+01    1.700107e+02    1.392900e-07    4.071238e+02    1.486289e-09    9.907850e-15    5.933670e-11   -5.815479e-01
    2.729458e+01    1.700062e+02    1.596579e-07    4.675567e+02    1.483381e-09    1.022631e-14    6.160655e-11   -5.765479e-01
    2.729370e+01    1.700014e+02    1.830033e-07    5.369113e+02    1.480604e-09    1.055272e-14    6.398495e-11   -5.715479e-01
    2.729274e+01    1.699961e+02    2.097613e-07    6.164957e+02    1.477959e-09    1.088720e-14    6.647755e-11   -5.665479e-01
    2.729173e+01    1.699905e+02    2.404305e-07    7.078075e+02    1.475454e-09    1.122989e-14    6.909015e-11   -5.615479e-01
    2.729064e+01    1.699845e+02    2.755825e-07    8.125617e+02    1.473090e-09    1.158093e-14    7.182890e-11   -5.565479e-01
    2.728947e+01    1.699780e+02    3.158722e-07    9.327207e+02    1.470873e-09    1.194046e-14    7.470015e-11   -5.515479e-01
    2.728823e+01    1.699710e+02    3.620499e-07    1.070532e+03    1.468806e-09    1.230862e-14    7.771045e-11   -5.465479e-01
    2.728689e+01    1.699635e+02    4.149756e-07    1.228564e+03    1.466896e-09    1.268557e-14    8.086685e-11   -5.415479e-01
    2.728546e+01    1.699554e+02    4.756350e-07    1.409758e+03    1.465146e-09    1.307148e-14    8.417675e-11   -5.365479e-01
    2.728394e+01    1.699468e+02    5.451570e-07    1.617475e+03    1.463562e-09    1.346650e-14    8.764770e-11   -5.315479e-01
    2.728227e+01    1.699374e+02    6.248365e-07    1.855561e+03    1.462150e-09    1.387084e-14    9.128770e-11   -5.265479e-01
    2.728053e+01    1.699274e+02    7.161550e-07    2.128407e+03    1.460916e-09    1.428470e-14    9.510490e-11   -5.215479e-01
    2.727865e+01    1.699167e+02    8.208125e-07    2.441034e+03    1.459867e-09    1.470826e-14    9.910800e-11   -5.165479e-01
    2.727664e+01    1.699052e+02    9.407555e-07    2.799177e+03    1.459007e-09    1.514178e-14    1.033058e-10   -5.115479e-01
    2.727450e+01    1.698929e+02    1.078213e-06    3.209383e+03    1.458344e-09    1.558550e-14    1.077076e-10   -5.065479e-01
    2.727219e+01    1.698797e+02    1.235743e-06    3.679126e+03    1.457886e-09    1.603970e-14    1.123232e-10   -5.015479e-01
    2.726973e+01    1.698655e+02    1.416271e-06    4.216938e+03    1.457640e-09    1.650466e-14    1.171623e-10   -4.965479e-01
    2.726710e+01    1.698504e+02    1.623151e-06    4.832545e+03    1.457613e-09    1.698073e-14    1.222354e-10   -4.915479e-01
    2.726427e+01    1.698341e+02    1.860226e-06    5.537046e+03    1.457812e-09    1.746827e-14    1.275531e-10   -4.865479e-01
    2.726127e+01    1.698167e+02    2.131896e-06    6.343095e+03    1.458247e-09    1.796767e-14    1.331266e-10   -4.815479e-01
    2.725804e+01    1.697981e+02    2.443204e-06    7.265096e+03    1.458926e-09    1.847938e-14    1.389671e-10   -4.765479e-01
    2.725459e+01    1.697781e+02    2.799923e-06    8.319468e+03    1.459857e-09    1.900390e-14    1.450864e-10   -4.715479e-01
    2.725089e+01    1.697565e+02    3.208668e-06    9.524901e+03    1.461050e-09    1.954176e-14    1.514966e-10   -4.665479e-01
    2.724695e+01    1.697337e+02    3.677012e-06    1.090267e+04    1.462514e-09    2.009358e-14    1.582102e-10   -4.615479e-01
    2.724274e+01    1.697093e+02    4.213631e-06    1.247698e+04    1.464259e-09    2.066003e-14    1.652400e-10   -4.565479e-01
    2.723822e+01    1.696830e+02    4.828459e-06    1.427533e+04    1.466295e-09    2.124186e-14    1.725990e-10   -4.515479e-01
    2.723339e+01    1.696550e+02    5.532870e-06    1.632900e+04    1.468631e-09    2.183988e-14    1.803006e-10   -4.465479e-01
    2.722823e+01    1.696249e+02    6.339885e-06    1.867351e+04    1.471279e-09    2.245504e-14    1.883584e-10   -4.415479e-01
    2.722270e+01    1.695928e+02    7.264420e-06    2.134920e+04    1.474248e-09    2.308833e-14    1.967866e-10   -4.365479e-01
    2.721681e+01    1.695584e+02    8.323535e-06    2.440185e+04    1.477551e-09    2.374090e-14    2.055991e-10   -4.315479e-01
    2.721050e+01    1.695216e+02    9.536775e-06    2.788337e+04    1.481198e-09    2.441399e-14    2.148106e-10   -4.265479e-01
    2.720375e+01    1.694823e+02    1.092650e-05    3.185264e+04    1.485200e-09    2.510899e-14    2.244355e-10   -4.215479e-01
    2.719655e+01    1.694403e+02    1.251831e-05    3.637635e+04    1.489568e-09    2.582743e-14    2.344887e-10   -4.165479e-01
    2.718885e+01    1.693954e+02    1.434148e-05    4.153006e+04    1.494316e-09    2.657099e-14    2.449851e-10   -4.115479e-01
    2.718062e+01    1.693474e+02    1.642953e-05    4.739929e+04    1.499452e-09    2.734152e-14    2.559398e-10   -4.065479e-01
    2.717181e+01    1.692960e+02    1.882078e-05    5.408070e+04    1.504991e-09    2.814106e-14    2.673677e-10   -4.015479e-01
    2.716243e+01    1.692414e+02    2.155908e-05    6.168377e+04    1.510943e-09    2.897188e-14    2.792839e-10   -3.965479e-01
    2.715240e+01    1.691829e+02    2.469460e-05    7.033199e+04    1.517321e-09    2.983640e-14    2.917035e-10   -3.915479e-01
    2.714168e+01    1.691205e+02    2.828467e-05    8.016496e+04    1.524135e-09    3.073734e-14    3.046416e-10   -3.865479e-01
    2.713024e+01    1.690538e+02    3.239487e-05    9.134018e+04    1.531398e-09    3.167764e-14    3.181127e-10   -3.815479e-01
    2.711802e+01    1.689827e+02    3.710015e-05    1.040354e+05    1.539121e-09    3.266051e-14    3.321315e-10   -3.765479e-01
    2.710498e+01    1.689069e+02    4.248618e-05    1.184508e+05    1.547316e-09    3.368944e-14    3.467125e-10   -3.715479e-01
    2.709106e+01    1.688259e+02    4.865085e-05    1.348121e+05    1.555993e-09    3.476827e-14    3.618695e-10   -3.665479e-01
    2.707621e+01    1.687397e+02    5.570600e-05    1.533734e+05    1.565164e-09    3.590112e-14    3.776162e-10   -3.615479e-01
    2.706039e+01    1.686478e+02    6.377935e-05    1.744206e+05    1.574840e-09    3.709247e-14    3.939658e-10   -3.565479e-01
    2.704348e+01    1.685499e+02    7.301685e-05    1.982753e+05    1.585029e-09    3.834719e-14    4.109309e-10   -3.515479e-01
    2.702549e+01    1.684457e+02    8.358490e-05    2.252987e+05    1.595743e-09    3.967053e-14    4.285234e-10   -3.465479e-01
    2.700630e+01    1.683347e+02    9.567365e-05    2.558967e+05    1.606989e-09    4.106814e-14    4.467548e-10   -3.415479e-01
    2.698587e+01    1.682166e+02    1.094999e-04    2.905248e+05    1.618777e-09    4.254613e-14    4.656356e-10   -3.365479e-01
    2.696409e+01    1.680911e+02    1.253111e-04    3.296939e+05    1.631115e-09    4.411104e-14    4.851756e-10   -3.315479e-01
    2.694092e+01    1.679576e+02    1.433892e-04    3.739765e+05    1.644011e-09    4.576991e-14    5.053835e-10   -3.265479e-01
    2.691625e+01    1.678158e+02    1.640557e-04    4.240144e+05    1.657469e-09    4.753028e-14    5.262675e-10   -3.215479e-01
    2.689000e+01    1.676652e+02    1.876770e-04    4.805253e+05    1.671497e-09    4.940019e-14    5.478340e-10   -3.165479e-01
    2.686212e+01    1.675055e+02    2.146703e-04    5.443135e+05    1.686100e-09    5.138825e-14    5.700885e-10   -3.115479e-01
    2.683246e+01    1.673361e+02    2.455107e-04    6.162754e+05    1.701282e-09    5.350360e-14    5.930365e-10   -3.065479e-01
    2.680096e+01    1.671566e+02    2.807389e-04    6.974154e+05    1.717044e-09    5.575605e-14    6.166800e-10   -3.015479e-01
    2.676752e+01    1.669666e+02    3.209698e-04    7.888531e+05    1.733390e-09    5.815590e-14    6.410215e-10   -2.965479e-01
    2.673203e+01    1.667655e+02    3.669027e-04    8.918369e+05    1.750320e-09    6.071410e-14    6.660615e-10   -2.915479e-01
    2.669440e+01    1.665530e+02    4.193323e-04    1.007760e+06    1.767835e-09    6.344235e-14    6.917990e-10   -2.865479e-01
    2.665453e+01    1.663286e+02    4.791612e-04    1.138172e+06    1.785933e-09    6.635280e-14    7.182310e-10   -2.815479e-01
    2.661230e+01    1.660919e+02    5.474140e-04    1.284798e+06    1.804610e-09    6.945845e-14    7.453540e-10   -2.765479e-01
    2.656763e+01    1.658424e+02    6.252525e-04    1.449559e+06    1.823865e-09    7.277295e-14    7.731625e-10   -2.715479e-01
    2.652037e+01    1.655798e+02    7.139960e-04    1.634586e+06    1.843689e-09    7.631055e-14    8.016490e-10   -2.665479e-01
    2.647047e+01    1.653038e+02    8.151365e-04    1.842246e+06    1.864080e-09    8.008635e-14    8.308045e-10   -2.615479e-01
    2.641781e+01    1.650140e+02    9.303650e-04    2.075165e+06    1.885028e-09    8.411600e-14    8.606190e-10   -2.565479e-01
    2.636226e+01    1.647102e+02    1.061596e-03    2.336254e+06    1.906523e-09    8.841595e-14    8.910795e-10   -2.515479e-01
    2.630377e+01    1.643923e+02    1.210992e-03    2.628736e+06    1.928557e-09    9.300345e-14    9.221730e-10   -2.465479e-01
    2.624222e+01    1.640602e+02    1.380998e-03    2.956177e+06    1.951116e-09    9.789640e-14    9.538835e-10   -2.415479e-01
    2.617754e+01    1.637137e+02    1.574373e-03    3.322521e+06    1.974190e-09    1.031134e-13    9.861940e-10   -2.365479e-01
    2.610966e+01    1.633531e+02    1.794231e-03    3.732122e+06    1.997761e-09    1.086739e-13    1.019086e-09   -2.315479e-01
    2.603851e+01    1.629787e+02    2.044080e-03    4.189790e+06    2.021817e-09    1.145979e-13    1.052539e-09   -2.265479e-01
    2.596401e+01    1.625905e+02    2.327874e-03    4.700820e+06    2.046340e-09    1.209062e-13    1.086531e-09   -2.215479e-01
    2.588616e+01    1.621893e+02    2.650061e-03    5.271063e+06    2.071312e-09    1.276204e-13    1.121039e-09   -2.165479e-01
    2.580492e+01    1.617757e+02    3.015639e-03    5.906946e+06    2.096713e-09    1.347629e-13    1.156039e-09   -2.115479e-01
    2.572029e+01    1.613507e+02    3.430226e-03    6.615553e+06    2.122524e-09    1.423564e-13    1.191503e-09   -2.065479e-01
    2.563226e+01    1.609152e+02    3.900125e-03    7.404662e+06    2.148723e-09    1.504247e-13    1.227406e-09   -2.015479e-01
    2.554090e+01    1.604706e+02    4.432409e-03    8.282837e+06    2.175289e-09    1.589921e-13    1.263718e-09   -1.965479e-01
    2.544623e+01    1.600184e+02    5.034995e-03    9.259471e+06    2.202199e-09    1.680835e-13    1.300410e-09   -1.915479e-01
    2.534835e+01    1.595606e+02    5.716750e-03    1.034489e+07    2.229427e-09    1.777247e-13    1.337452e-09   -1.865479e-01
    2.524738e+01    1.590989e+02    6.487585e-03    1.155041e+07    2.256951e-09    1.879418e-13    1.374812e-09   -1.815479e-01
    2.514341e+01    1.586360e+02    7.358595e-03    1.288848e+07    2.284744e-09    1.987619e-13    1.412458e-09   -1.765479e-01
    2.503661e+01    1.581742e+02    8.342145e-03    1.437272e+07    2.312781e-09    2.102124e-13    1.450358e-09   -1.715479e-01
    2.492718e+01    1.577166e+02    9.452040e-03    1.601809e+07    2.341036e-09    2.223215e-13    1.488478e-09   -1.665479e-01
    2.481531e+01    1.572664e+02    1.070368e-02    1.784102e+07    2.369482e-09    2.351178e-13    1.526784e-09   -1.615479e-01
    2.470121e+01    1.568269e+02    1.211422e-02    1.985949e+07    2.398091e-09    2.486305e-13    1.565243e-09   -1.565479e-01
    2.458514e+01    1.564018e+02    1.370275e-02    2.209326e+07    2.426837e-09    2.628895e-13    1.603821e-09   -1.515479e-01
    2.446735e+01    1.559949e+02    1.549053e-02    2.456399e+07    2.455694e-09    2.779252e-13    1.642483e-09   -1.465479e-01
    2.434809e+01    1.556102e+02    1.750117e-02    2.729544e+07    2.484632e-09    2.937683e-13    1.681196e-09   -1.415479e-01
    2.422763e+01    1.552518e+02    1.976095e-02    3.031364e+07    2.513626e-09    3.104502e-13    1.719924e-09   -1.365479e-01
    2.410620e+01    1.549237e+02    2.229901e-02    3.364715e+07    2.542648e-09    3.280028e-13    1.758636e-09   -1.315479e-01
    2.398407e+01    1.546302e+02    2.514775e-02    3.732731e+07    2.571672e-09    3.464585e-13    1.797299e-09   -1.265479e-01
    2.386141e+01    1.543749e+02    2.834306e-02    4.138830e+07    2.600671e-09    3.658500e-13    1.835878e-09   -1.215479e-01
    2.373839e+01    1.541614e+02    3.192476e-02    4.586761e+07    2.629620e-09    3.862108e-13    1.874342e-09   -1.165479e-01
    2.361513e+01    1.539932e+02    3.593694e-02    5.080612e+07    2.658493e-09    4.075745e-13    1.912661e-09   -1.115479e-01
    2.349165e+01    1.538727e+02    4.042841e-02    5.624834e+07    2.687266e-09    4.299755e-13    1.950804e-09   -1.065479e-01
    2.336793e+01    1.538021e+02    4.545314e-02    6.224270e+07    2.715914e-09    4.534484e-13    1.988741e-09   -1.015479e-01
    2.324387e+01    1.537830e+02    5.107075e-02    6.884164e+07    2.744414e-09    4.780285e-13    2.026443e-09   -9.654790e-02
    2.311928e+01    1.538155e+02    5.734695e-02    7.610181e+07    2.772743e-09    5.037515e-13    2.063883e-09   -9.154790e-02
    2.299380e+01    1.538992e+02    6.435425e-02    8.408403e+07    2.800881e-09    5.306535e-13    2.101035e-09   -8.654790e-02
    2.286709e+01    1.540324e+02    7.217225e-02    9.285346e+07    2.828806e-09    5.587715e-13    2.137874e-09   -8.154790e-02
    2.273859e+01    1.542121e+02    8.088845e-02    1.024793e+08    2.856497e-09    5.881425e-13    2.174375e-09   -7.654790e-02
    2.260775e+01    1.544344e+02    9.059850e-02    1.130350e+08    2.883937e-09    6.188045e-13    2.210516e-09   -7.154790e-02
    2.247387e+01    1.546937e+02    1.014071e-01    1.245972e+08    2.911107e-09    6.507955e-13    2.246275e-09   -6.654790e-02
    2.233619e+01    1.549834e+02    1.134282e-01    1.372460e+08    2.937991e-09    6.841550e-13    2.281632e-09   -6.154790e-02
    2.219390e+01    1.552954e+02    1.267856e-01    1.510643e+08    2.964571e-09    7.189215e-13    2.316568e-09   -5.654790e-02
    2.204615e+01    1.556205e+02    1.416133e-01    1.661363e+08    2.990835e-09    7.551365e-13    2.351066e-09   -5.154790e-02
    2.189210e+01    1.559485e+02    1.580559e-01    1.825478e+08    3.016767e-09    7.928400e-13    2.385111e-09   -4.654790e-02
    2.173089e+01    1.562683e+02    1.762686e-01    2.003839e+08    3.042355e-09    8.320735e-13    2.418685e-09   -4.154790e-02
    2.156171e+01    1.565679e+02    1.964178e-01    2.197289e+08    3.067587e-09    8.728800e-13    2.451777e-09   -3.654790e-02
    2.138381e+01    1.568350e+02    2.186804e-01    2.406646e+08    3.092453e-09    9.153025e-13    2.484373e-09   -3.154790e-02
    2.119655e+01    1.570568e+02    2.432444e-01    2.632686e+08    3.116944e-09    9.593840e-13    2.516464e-09   -2.654790e-02
    2.099932e+01    1.572204e+02    2.703076e-01    2.876132e+08    3.141049e-09    1.005171e-12    2.548039e-09   -2.154790e-02
    2.079174e+01    1.573137e+02    3.000780e-01    3.137648e+08    3.164762e-09    1.052708e-12    2.579090e-09   -1.654790e-02
    2.057348e+01    1.573243e+02    3.327728e-01    3.417803e+08    3.188077e-09    1.102041e-12    2.609611e-09   -1.154790e-02
    2.034443e+01    1.572412e+02    3.686174e-01    3.717089e+08    3.210987e-09    1.153220e-12    2.639594e-09   -6.547900e-03
    2.010453e+01    1.570539e+02    4.078446e-01    4.035875e+08    3.233487e-09    1.206291e-12    2.669036e-09   -1.547900e-03
    1.985398e+01    1.567534e+02    4.506932e-01    4.374427e+08    3.255575e-09    1.261307e-12    2.697932e-09    3.452100e-03
    1.959305e+01    1.563317e+02    4.974070e-01    4.732876e+08    3.277246e-09    1.318318e-12    2.726279e-09    8.452100e-03
    1.932217e+01    1.557827e+02    5.482330e-01    5.111224e+08    3.298498e-09    1.377375e-12    2.754076e-09    1.345210e-02
    1.904190e+01    1.551014e+02    6.034205e-01    5.509344e+08    3.319331e-09    1.438534e-12    2.781324e-09    1.845210e-02
    1.875288e+01    1.542848e+02    6.632190e-01    5.926961e+08    3.339743e-09    1.501849e-12    2.808021e-09    2.345210e-02
    1.845590e+01    1.533311e+02    7.278755e-01    6.363670e+08    3.359734e-09    1.567377e-12    2.834168e-09    2.845210e-02
    1.815177e+01    1.522406e+02    7.976360e-01    6.818934e+08    3.379305e-09    1.635176e-12    2.859767e-09    3.345210e-02
    1.784140e+01    1.510146e+02    8.727400e-01    7.292089e+08    3.398458e-09    1.705306e-12    2.884823e-09    3.845210e-02
    1.752570e+01    1.496562e+02    9.534215e-01    7.782351e+08    3.417194e-09    1.777828e-12    2.909336e-09    4.345210e-02
    1.720564e+01    1.481697e+02    1.039908e+00    8.288839e+08    3.435516e-09    1.852807e-12    2.933312e-09    4.845210e-02
    1.688218e+01    1.465604e+02    1.132415e+00    8.810569e+08    3.453427e-09    1.930306e-12    2.956756e-09    5.345210e-02
    1.655626e+01    1.448351e+02    1.231151e+00    9.346478e+08    3.470929e-09    2.010393e-12    2.979671e-09    5.845210e-02
    1.622884e+01    1.430008e+02    1.336311e+00    9.895440e+08    3.488029e-09    2.093137e-12    3.002065e-09    6.345210e-02
    1.590082e+01    1.410658e+02    1.448078e+00    1.045628e+09    3.504729e-09    2.178610e-12    3.023944e-09    6.845210e-02
    1.557307e+01    1.390385e+02    1.566622e+00    1.102778e+09    3.521034e-09    2.266885e-12    3.045315e-09    7.345210e-02
    1.524640e+01    1.369279e+02    1.692098e+00    1.160872e+09    3.536950e-09    2.358036e-12    3.066183e-09    7.845210e-02
    1.492159e+01    1.347432e+02    1.824651e+00    1.219784e+09    3.552482e-09    2.452144e-12    3.086557e-09    8.345210e-02
    1.459933e+01    1.324935e+02    1.964405e+00    1.279393e+09    3.567635e-09    2.549288e-12    3.106445e-09    8.845210e-02
    1.428029e+01    1.301883e+02    2.111476e+00    1.339576e+09    3.582415e-09    2.649551e-12    3.125855e-09    9.345210e-02
    1.396506e+01    1.278365e+02    2.265961e+00    1.400217e+09    3.596829e-09    2.753020e-12    3.144794e-09    9.845210e-02
    1.365415e+01    1.254470e+02    2.427945e+00    1.461202e+09    3.610883e-09    2.859782e-12    3.163272e-09    1.034521e-01
    1.334805e+01    1.230282e+02    2.597498e+00    1.522421e+09    3.624584e-09    2.969931e-12    3.181298e-09    1.084521e-01
