# sky130 nfet_01v8 gm/ID Processed Lookup Table
# Corner: fs
# Temperature: 25C
# W = 2.0 um
# L = 0.54 um (540 nm)
# Columns: gm/id [1/V]  gm/gds [V/V]  id/W [A/m]  ft [Hz]  Cgg/W [F/m]  Cgd/W [F/m]  Cgs/W [F/m]  Vov [V]
#         gm/id          gm/gds            id/W              ft           Cgg/W           Cgd/W           Cgs/W             Vov
    2.663979e+01    1.677572e+02    2.666136e-08    9.375408e+01    1.205710e-09    2.577814e-14    2.924830e-11   -6.631943e-01
    2.663950e+01    1.677634e+02    3.045998e-08    1.074042e+02    1.202416e-09    2.670863e-14    3.021991e-11   -6.581943e-01
    2.663919e+01    1.677695e+02    3.479975e-08    1.230348e+02    1.199193e-09    2.768150e-14    3.123313e-11   -6.531943e-01
    2.663884e+01    1.677755e+02    3.975777e-08    1.409321e+02    1.196045e-09    2.869901e-14    3.229005e-11   -6.481943e-01
    2.663848e+01    1.677814e+02    4.542209e-08    1.614234e+02    1.192972e-09    2.976354e-14    3.339283e-11   -6.431943e-01
    2.663810e+01    1.677872e+02    5.189330e-08    1.848829e+02    1.189976e-09    3.087761e-14    3.454376e-11   -6.381943e-01
    2.663769e+01    1.677928e+02    5.928635e-08    2.117386e+02    1.187057e-09    3.204386e-14    3.574524e-11   -6.331943e-01
    2.663724e+01    1.677983e+02    6.773255e-08    2.424799e+02    1.184216e-09    3.326504e-14    3.699977e-11   -6.281943e-01
    2.663677e+01    1.678038e+02    7.738180e-08    2.776661e+02    1.181456e-09    3.454406e-14    3.830999e-11   -6.231943e-01
    2.663627e+01    1.678090e+02    8.840550e-08    3.179367e+02    1.178779e-09    3.588399e-14    3.967866e-11   -6.181943e-01
    2.663572e+01    1.678141e+02    1.009994e-07    3.640223e+02    1.176185e-09    3.728800e-14    4.110868e-11   -6.131943e-01
    2.663515e+01    1.678191e+02    1.153870e-07    4.167580e+02    1.173676e-09    3.875946e-14    4.260306e-11   -6.081943e-01
    2.663454e+01    1.678238e+02    1.318238e-07    4.770981e+02    1.171255e-09    4.030188e-14    4.416496e-11   -6.031943e-01
    2.663388e+01    1.678284e+02    1.506015e-07    5.461324e+02    1.168923e-09    4.191895e-14    4.579771e-11   -5.981943e-01
    2.663317e+01    1.678328e+02    1.720534e-07    6.251057e+02    1.166683e-09    4.361450e-14    4.750477e-11   -5.931943e-01
    2.663241e+01    1.678369e+02    1.965602e-07    7.154398e+02    1.164536e-09    4.539261e-14    4.928955e-11   -5.881943e-01
    2.663161e+01    1.678409e+02    2.245568e-07    8.187594e+02    1.162485e-09    4.725746e-14    5.115605e-11   -5.831943e-01
    2.663074e+01    1.678445e+02    2.565400e-07    9.369154e+02    1.160534e-09    4.921348e-14    5.310825e-11   -5.781943e-01
    2.662983e+01    1.678479e+02    2.930772e-07    1.072026e+03    1.158685e-09    5.126525e-14    5.515020e-11   -5.731943e-01
    2.662884e+01    1.678510e+02    3.348166e-07    1.226502e+03    1.156940e-09    5.341765e-14    5.728625e-11   -5.681943e-01
    2.662779e+01    1.678538e+02    3.824983e-07    1.403101e+03    1.155303e-09    5.567565e-14    5.952095e-11   -5.631943e-01
    2.662666e+01    1.678564e+02    4.369682e-07    1.604963e+03    1.153777e-09    5.804450e-14    6.185890e-11   -5.581943e-01
    2.662547e+01    1.678586e+02    4.991920e-07    1.835672e+03    1.152365e-09    6.052970e-14    6.430500e-11   -5.531943e-01
    2.662418e+01    1.678604e+02    5.702730e-07    2.099314e+03    1.151070e-09    6.313690e-14    6.686435e-11   -5.481943e-01
    2.662282e+01    1.678618e+02    6.514705e-07    2.400545e+03    1.149898e-09    6.587200e-14    6.954220e-11   -5.431943e-01
    2.662136e+01    1.678629e+02    7.442245e-07    2.744676e+03    1.148850e-09    6.874120e-14    7.234405e-11   -5.381943e-01
    2.661978e+01    1.678633e+02    8.501780e-07    3.137752e+03    1.147932e-09    7.175090e-14    7.527565e-11   -5.331943e-01
    2.661811e+01    1.678635e+02    9.712080e-07    3.586663e+03    1.147147e-09    7.490775e-14    7.834285e-11   -5.281943e-01
    2.661633e+01    1.678631e+02    1.109458e-06    4.099254e+03    1.146500e-09    7.821860e-14    8.155190e-11   -5.231943e-01
    2.661443e+01    1.678622e+02    1.267375e-06    4.684455e+03    1.145997e-09    8.169070e-14    8.490910e-11   -5.181943e-01
    2.661239e+01    1.678607e+02    1.447757e-06    5.352434e+03    1.145640e-09    8.533135e-14    8.842110e-11   -5.131943e-01
    2.661022e+01    1.678585e+02    1.653794e-06    6.114753e+03    1.145437e-09    8.914825e-14    9.209475e-11   -5.081943e-01
    2.660788e+01    1.678557e+02    1.889132e-06    6.984562e+03    1.145391e-09    9.314930e-14    9.593710e-11   -5.031943e-01
    2.660541e+01    1.678523e+02    2.157933e-06    7.976827e+03    1.145508e-09    9.734270e-14    9.995545e-11   -4.981943e-01
    2.660276e+01    1.678480e+02    2.464950e-06    9.108537e+03    1.145793e-09    1.017369e-13    1.041574e-10   -4.931943e-01
    2.659994e+01    1.678431e+02    2.815608e-06    1.039903e+04    1.146253e-09    1.063405e-13    1.085507e-10   -4.881943e-01
    2.659691e+01    1.678372e+02    3.216103e-06    1.187021e+04    1.146893e-09    1.111625e-13    1.131433e-10   -4.831943e-01
    2.659368e+01    1.678305e+02    3.673508e-06    1.354702e+04    1.147720e-09    1.162120e-13    1.179435e-10   -4.781943e-01
    2.659024e+01    1.678227e+02    4.195896e-06    1.545772e+04    1.148740e-09    1.214985e-13    1.229598e-10   -4.731943e-01
    2.658656e+01    1.678139e+02    4.792484e-06    1.763439e+04    1.149959e-09    1.270315e-13    1.282009e-10   -4.681943e-01
    2.658263e+01    1.678041e+02    5.473795e-06    2.011343e+04    1.151384e-09    1.328209e-13    1.336757e-10   -4.631943e-01
    2.657843e+01    1.677930e+02    6.251835e-06    2.293607e+04    1.153023e-09    1.388768e-13    1.393932e-10   -4.581943e-01
    2.657395e+01    1.677807e+02    7.140310e-06    2.614905e+04    1.154882e-09    1.452094e-13    1.453629e-10   -4.531943e-01
    2.656917e+01    1.677670e+02    8.154860e-06    2.980530e+04    1.156968e-09    1.518291e-13    1.515943e-10   -4.481943e-01
    2.656407e+01    1.677520e+02    9.313335e-06    3.396475e+04    1.159289e-09    1.587465e-13    1.580969e-10   -4.431943e-01
    2.655863e+01    1.677354e+02    1.063610e-05    3.869524e+04    1.161852e-09    1.659721e-13    1.648807e-10   -4.381943e-01
    2.655281e+01    1.677173e+02    1.214640e-05    4.407346e+04    1.164665e-09    1.735169e-13    1.719557e-10   -4.331943e-01
    2.654660e+01    1.676974e+02    1.387074e-05    5.018617e+04    1.167736e-09    1.813917e-13    1.793320e-10   -4.281943e-01
    2.653999e+01    1.676756e+02    1.583936e-05    5.713135e+04    1.171073e-09    1.896073e-13    1.870198e-10   -4.231943e-01
    2.653292e+01    1.676520e+02    1.808676e-05    6.501975e+04    1.174683e-09    1.981748e-13    1.950294e-10   -4.181943e-01
    2.652538e+01    1.676262e+02    2.065230e-05    7.397628e+04    1.178576e-09    2.071051e-13    2.033712e-10   -4.131943e-01
    2.651734e+01    1.675982e+02    2.358082e-05    8.414204e+04    1.182758e-09    2.164088e-13    2.120557e-10   -4.081943e-01
    2.650877e+01    1.675679e+02    2.692349e-05    9.567604e+04    1.187238e-09    2.260969e-13    2.210931e-10   -4.031943e-01
    2.649963e+01    1.675352e+02    3.073864e-05    1.087575e+05    1.192024e-09    2.361799e-13    2.304940e-10   -3.981943e-01
    2.648988e+01    1.674997e+02    3.509275e-05    1.235885e+05    1.197125e-09    2.466681e-13    2.402687e-10   -3.931943e-01
    2.647949e+01    1.674614e+02    4.006159e-05    1.403963e+05    1.202548e-09    2.575718e-13    2.504273e-10   -3.881943e-01
    2.646841e+01    1.674202e+02    4.573154e-05    1.594369e+05    1.208301e-09    2.689007e-13    2.609801e-10   -3.831943e-01
    2.645662e+01    1.673757e+02    5.220095e-05    1.809981e+05    1.214392e-09    2.806644e-13    2.719369e-10   -3.781943e-01
    2.644403e+01    1.673279e+02    5.958195e-05    2.054035e+05    1.220829e-09    2.928719e-13    2.833075e-10   -3.731943e-01
    2.643063e+01    1.672765e+02    6.800220e-05    2.330167e+05    1.227619e-09    3.055318e-13    2.951014e-10   -3.681943e-01
    2.641637e+01    1.672213e+02    7.760700e-05    2.642458e+05    1.234770e-09    3.186521e-13    3.073276e-10   -3.631943e-01
    2.640118e+01    1.671621e+02    8.856190e-05    2.995491e+05    1.242288e-09    3.322402e-13    3.199952e-10   -3.581943e-01
    2.638501e+01    1.670987e+02    1.010553e-04    3.394402e+05    1.250182e-09    3.463030e-13    3.331124e-10   -3.531943e-01
    2.636780e+01    1.670308e+02    1.153015e-04    3.844951e+05    1.258457e-09    3.608463e-13    3.466873e-10   -3.481943e-01
    2.634950e+01    1.669581e+02    1.315444e-04    4.353591e+05    1.267118e-09    3.758753e-13    3.607273e-10   -3.431943e-01
    2.633003e+01    1.668804e+02    1.500613e-04    4.927544e+05    1.276173e-09    3.913943e-13    3.752396e-10   -3.381943e-01
    2.630935e+01    1.667974e+02    1.711675e-04    5.574898e+05    1.285626e-09    4.074066e-13    3.902303e-10   -3.331943e-01
    2.628735e+01    1.667088e+02    1.952215e-04    6.304684e+05    1.295482e-09    4.239143e-13    4.057052e-10   -3.281943e-01
    2.626401e+01    1.666146e+02    2.226306e-04    7.127015e+05    1.305745e-09    4.409187e-13    4.216694e-10   -3.231943e-01
    2.623919e+01    1.665139e+02    2.538573e-04    8.053155e+05    1.316419e-09    4.584196e-13    4.381271e-10   -3.181943e-01
    2.621288e+01    1.664070e+02    2.894270e-04    9.095720e+05    1.327507e-09    4.764159e-13    4.550818e-10   -3.131943e-01
    2.618495e+01    1.662932e+02    3.299359e-04    1.026874e+06    1.339011e-09    4.949047e-13    4.725362e-10   -3.081943e-01
    2.615534e+01    1.661722e+02    3.760604e-04    1.158787e+06    1.350935e-09    5.138820e-13    4.904920e-10   -3.031943e-01
    2.612398e+01    1.660439e+02    4.285678e-04    1.307057e+06    1.363278e-09    5.333425e-13    5.089500e-10   -2.981943e-01
    2.609074e+01    1.659079e+02    4.883276e-04    1.473625e+06    1.376040e-09    5.532790e-13    5.279105e-10   -2.931943e-01
    2.605556e+01    1.657637e+02    5.563255e-04    1.660651e+06    1.389221e-09    5.736830e-13    5.473720e-10   -2.881943e-01
    2.601839e+01    1.656112e+02    6.336765e-04    1.870536e+06    1.402821e-09    5.945440e-13    5.673320e-10   -2.831943e-01
    2.597907e+01    1.654500e+02    7.216450e-04    2.105948e+06    1.416837e-09    6.158510e-13    5.877880e-10   -2.781943e-01
    2.593753e+01    1.652798e+02    8.216595e-04    2.369849e+06    1.431265e-09    6.375890e-13    6.087355e-10   -2.731943e-01
    2.589373e+01    1.651004e+02    9.353350e-04    2.665524e+06    1.446104e-09    6.597440e-13    6.301685e-10   -2.681943e-01
    2.584752e+01    1.649115e+02    1.064499e-03    2.996615e+06    1.461346e-09    6.822985e-13    6.520815e-10   -2.631943e-01
    2.579885e+01    1.647128e+02    1.211211e-03    3.367156e+06    1.476988e-09    7.052335e-13    6.744660e-10   -2.581943e-01
    2.574762e+01    1.645042e+02    1.377800e-03    3.781613e+06    1.493023e-09    7.285285e-13    6.973135e-10   -2.531943e-01
    2.569377e+01    1.642855e+02    1.566890e-03    4.244924e+06    1.509442e-09    7.521605e-13    7.206145e-10   -2.481943e-01
    2.563722e+01    1.640565e+02    1.781438e-03    4.762547e+06    1.526239e-09    7.761065e-13    7.443570e-10   -2.431943e-01
    2.557789e+01    1.638173e+02    2.024778e-03    5.340511e+06    1.543403e-09    8.003390e-13    7.685295e-10   -2.381943e-01
    2.551576e+01    1.635680e+02    2.300659e-03    5.985473e+06    1.560926e-09    8.248315e-13    7.931185e-10   -2.331943e-01
    2.545074e+01    1.633085e+02    2.613298e-03    6.704764e+06    1.578795e-09    8.495535e-13    8.181095e-10   -2.281943e-01
    2.538280e+01    1.630390e+02    2.967435e-03    7.506473e+06    1.597000e-09    8.744745e-13    8.434875e-10   -2.231943e-01
    2.531194e+01    1.627600e+02    3.368394e-03    8.399514e+06    1.615527e-09    8.995615e-13    8.692355e-10   -2.181943e-01
    2.523813e+01    1.624716e+02    3.822148e-03    9.393681e+06    1.634365e-09    9.247795e-13    8.953370e-10   -2.131943e-01
    2.516137e+01    1.621743e+02    4.335394e-03    1.049977e+07    1.653497e-09    9.500930e-13    9.217730e-10   -2.081943e-01
    2.508171e+01    1.618691e+02    4.915636e-03    1.172964e+07    1.672909e-09    9.754645e-13    9.485245e-10   -2.031943e-01
    2.499914e+01    1.615566e+02    5.571280e-03    1.309632e+07    1.692586e-09    1.000855e-12    9.755720e-10   -1.981943e-01
    2.491377e+01    1.612376e+02    6.311720e-03    1.461415e+07    1.712513e-09    1.026224e-12    1.002894e-09   -1.931943e-01
    2.482568e+01    1.609135e+02    7.147465e-03    1.629885e+07    1.732672e-09    1.051531e-12    1.030470e-09   -1.881943e-01
    2.473494e+01    1.605854e+02    8.090255e-03    1.816771e+07    1.753045e-09    1.076732e-12    1.058277e-09   -1.831943e-01
    2.464170e+01    1.602548e+02    9.153195e-03    2.023969e+07    1.773617e-09    1.101784e-12    1.086294e-09   -1.781943e-01
    2.454611e+01    1.599234e+02    1.035090e-02    2.253563e+07    1.794367e-09    1.126644e-12    1.114496e-09   -1.731943e-01
    2.444834e+01    1.595930e+02    1.169967e-02    2.507839e+07    1.815279e-09    1.151264e-12    1.142861e-09   -1.681943e-01
    2.434858e+01    1.592657e+02    1.321766e-02    2.789310e+07    1.836333e-09    1.175599e-12    1.171366e-09   -1.631943e-01
    2.424704e+01    1.589435e+02    1.492509e-02    3.100733e+07    1.857511e-09    1.199603e-12    1.199985e-09   -1.581943e-01
    2.414394e+01    1.586290e+02    1.684446e-02    3.445135e+07    1.878793e-09    1.223227e-12    1.228696e-09   -1.531943e-01
    2.403952e+01    1.583244e+02    1.900079e-02    3.825845e+07    1.900160e-09    1.246425e-12    1.257473e-09   -1.481943e-01
    2.393401e+01    1.580323e+02    2.142192e-02    4.246512e+07    1.921594e-09    1.269148e-12    1.286293e-09   -1.431943e-01
    2.382768e+01    1.577555e+02    2.413877e-02    4.711158e+07    1.943074e-09    1.291347e-12    1.315133e-09   -1.381943e-01
    2.372072e+01    1.574963e+02    2.718569e-02    5.224176e+07    1.964583e-09    1.312975e-12    1.343968e-09   -1.331943e-01
    2.361336e+01    1.572574e+02    3.060079e-02    5.790408e+07    1.986102e-09    1.333983e-12    1.372775e-09   -1.281943e-01
    2.350577e+01    1.570412e+02    3.442640e-02    6.415151e+07    2.007610e-09    1.354323e-12    1.401531e-09   -1.231943e-01
    2.339812e+01    1.568499e+02    3.870944e-02    7.104220e+07    2.029091e-09    1.373946e-12    1.430212e-09   -1.181943e-01
    2.329048e+01    1.566853e+02    4.350192e-02    7.863969e+07    2.050525e-09    1.392805e-12    1.458797e-09   -1.131943e-01
    2.318290e+01    1.565492e+02    4.886143e-02    8.701334e+07    2.071897e-09    1.410852e-12    1.487263e-09   -1.081943e-01
    2.307533e+01    1.564425e+02    5.485175e-02    9.623884e+07    2.093188e-09    1.428039e-12    1.515589e-09   -1.031943e-01
    2.296768e+01    1.563657e+02    6.154335e-02    1.063984e+08    2.114381e-09    1.444321e-12    1.543756e-09   -9.819430e-02
    2.285974e+01    1.563187e+02    6.901405e-02    1.175810e+08    2.135461e-09    1.459651e-12    1.571743e-09   -9.319430e-02
    2.275120e+01    1.563007e+02    7.734980e-02    1.298829e+08    2.156411e-09    1.473983e-12    1.599531e-09   -8.819430e-02
    2.264167e+01    1.563099e+02    8.664510e-02    1.434072e+08    2.177216e-09    1.487273e-12    1.627102e-09   -8.319430e-02
    2.253065e+01    1.563440e+02    9.700400e-02    1.582643e+08    2.197863e-09    1.499476e-12    1.654437e-09   -7.819430e-02
    2.241757e+01    1.563993e+02    1.085405e-01    1.745715e+08    2.218336e-09    1.510548e-12    1.681521e-09   -7.319430e-02
    2.230175e+01    1.564716e+02    1.213797e-01    1.924526e+08    2.238623e-09    1.520447e-12    1.708337e-09   -6.819430e-02
    2.218241e+01    1.565557e+02    1.356578e-01    2.120375e+08    2.258713e-09    1.529131e-12    1.734871e-09   -6.319430e-02
    2.205877e+01    1.566455e+02    1.515235e-01    2.334612e+08    2.278592e-09    1.536558e-12    1.761108e-09   -5.819430e-02
    2.192994e+01    1.567341e+02    1.691379e-01    2.568630e+08    2.298249e-09    1.542687e-12    1.787036e-09   -5.319430e-02
    2.179505e+01    1.568139e+02    1.886757e-01    2.823849e+08    2.317675e-09    1.547479e-12    1.812641e-09   -4.819430e-02
    2.165321e+01    1.568768e+02    2.103249e-01    3.101705e+08    2.336859e-09    1.550895e-12    1.837914e-09   -4.319430e-02
    2.150355e+01    1.569141e+02    2.342874e-01    3.403629e+08    2.355792e-09    1.552895e-12    1.862844e-09   -3.819430e-02
    2.134529e+01    1.569172e+02    2.607793e-01    3.731033e+08    2.374468e-09    1.553443e-12    1.887421e-09   -3.319430e-02
    2.117766e+01    1.568766e+02    2.900304e-01    4.085275e+08    2.392877e-09    1.552500e-12    1.911636e-09   -2.819430e-02
    2.100002e+01    1.567837e+02    3.222844e-01    4.467655e+08    2.411013e-09    1.550032e-12    1.935483e-09   -2.319430e-02
    2.081187e+01    1.566297e+02    3.577980e-01    4.879381e+08    2.428870e-09    1.546001e-12    1.958954e-09   -1.819430e-02
    2.061277e+01    1.564063e+02    3.968407e-01    5.321541e+08    2.446444e-09    1.540373e-12    1.982043e-09   -1.319430e-02
    2.040250e+01    1.561056e+02    4.396934e-01    5.795097e+08    2.463728e-09    1.533112e-12    2.004746e-09   -8.194300e-03
    2.018092e+01    1.557208e+02    4.866480e-01    6.300841e+08    2.480719e-09    1.524184e-12    2.027057e-09   -3.194300e-03
    1.994810e+01    1.552456e+02    5.380050e-01    6.839393e+08    2.497414e-09    1.513555e-12    2.048974e-09    1.805700e-03
    1.970420e+01    1.546747e+02    5.940740e-01    7.411177e+08    2.513809e-09    1.501190e-12    2.070495e-09    6.805700e-03
    1.944958e+01    1.540037e+02    6.551685e-01    8.016404e+08    2.529903e-09    1.487057e-12    2.091617e-09    1.180570e-02
    1.918470e+01    1.532295e+02    7.216080e-01    8.655065e+08    2.545694e-09    1.471121e-12    2.112338e-09    1.680570e-02
    1.891014e+01    1.523500e+02    7.937140e-01    9.326930e+08    2.561180e-09    1.453351e-12    2.132659e-09    2.180570e-02
    1.862658e+01    1.513640e+02    8.718075e-01    1.003153e+09    2.576362e-09    1.433712e-12    2.152578e-09    2.680570e-02
    1.833483e+01    1.502716e+02    9.562080e-01    1.076817e+09    2.591238e-09    1.412169e-12    2.172098e-09    3.180570e-02
    1.803572e+01    1.490738e+02    1.047231e+00    1.153595e+09    2.605810e-09    1.388692e-12    2.191220e-09    3.680570e-02
    1.773018e+01    1.477724e+02    1.145185e+00    1.233375e+09    2.620078e-09    1.363245e-12    2.209945e-09    4.180570e-02
    1.741915e+01    1.463704e+02    1.250373e+00    1.316024e+09    2.634043e-09    1.335794e-12    2.228274e-09    4.680570e-02
    1.710357e+01    1.448715e+02    1.363085e+00    1.401393e+09    2.647707e-09    1.306305e-12    2.246212e-09    5.180570e-02
    1.678444e+01    1.432798e+02    1.483601e+00    1.489317e+09    2.661073e-09    1.274744e-12    2.263761e-09    5.680570e-02
    1.646271e+01    1.416006e+02    1.612186e+00    1.579617e+09    2.674142e-09    1.241073e-12    2.280925e-09    6.180570e-02
    1.613931e+01    1.398392e+02    1.749091e+00    1.672105e+09    2.686917e-09    1.205259e-12    2.297708e-09    6.680570e-02
    1.581517e+01    1.380015e+02    1.894552e+00    1.766580e+09    2.699401e-09    1.167264e-12    2.314115e-09    7.180570e-02
    1.549114e+01    1.360939e+02    2.048788e+00    1.862840e+09    2.711597e-09    1.127050e-12    2.330149e-09    7.680570e-02
    1.516805e+01    1.341227e+02    2.211997e+00    1.960675e+09    2.723508e-09    1.084578e-12    2.345815e-09    8.180570e-02
    1.484666e+01    1.320946e+02    2.384362e+00    2.059879e+09    2.735140e-09    1.039810e-12    2.361121e-09    8.680570e-02
    1.452769e+01    1.300163e+02    2.566046e+00    2.160242e+09    2.746494e-09    9.927055e-13    2.376070e-09    9.180570e-02
