# sky130 nfet_01v8 gm/ID Processed Lookup Table
# Corner: fs
# Temperature: 25C
# W = 2.0 um
# L = 2.88 um (2880 nm)
# Columns: gm/id [1/V]  gm/gds [V/V]  id/W [A/m]  ft [Hz]  Cgg/W [F/m]  Cgd/W [F/m]  Cgs/W [F/m]  Vov [V]
#         gm/id          gm/gds            id/W              ft           Cgg/W           Cgd/W           Cgs/W             Vov
    2.758395e+01    1.756455e+02    1.391042e-08    1.015859e+01    6.011510e-09    8.848625e-14    2.384458e-10   -5.786444e-01
    2.758347e+01    1.756425e+02    1.596753e-08    1.168215e+01    6.000450e-09    9.177650e-14    2.476335e-10   -5.736444e-01
    2.758294e+01    1.756391e+02    1.832879e-08    1.343308e+01    5.989890e-09    9.519640e-14    2.572580e-10   -5.686444e-01
    2.758240e+01    1.756357e+02    2.103918e-08    1.544508e+01    5.979855e-09    9.875155e-14    2.673412e-10   -5.636444e-01
    2.758179e+01    1.756318e+02    2.415030e-08    1.775681e+01    5.970355e-09    1.024477e-13    2.779063e-10   -5.586444e-01
    2.758116e+01    1.756278e+02    2.772139e-08    2.041263e+01    5.961405e-09    1.062911e-13    2.889776e-10   -5.536444e-01
    2.758048e+01    1.756234e+02    3.182043e-08    2.346336e+01    5.953025e-09    1.102878e-13    3.005798e-10   -5.486444e-01
    2.757974e+01    1.756187e+02    3.652544e-08    2.696727e+01    5.945230e-09    1.144449e-13    3.127394e-10   -5.436444e-01
    2.757894e+01    1.756137e+02    4.192598e-08    3.099113e+01    5.938045e-09    1.187690e-13    3.254847e-10   -5.386444e-01
    2.757810e+01    1.756083e+02    4.812483e-08    3.561150e+01    5.931485e-09    1.232675e-13    3.388443e-10   -5.336444e-01
    2.757720e+01    1.756026e+02    5.523995e-08    4.091602e+01    5.925570e-09    1.279481e-13    3.528482e-10   -5.286444e-01
    2.757622e+01    1.755964e+02    6.340675e-08    4.700504e+01    5.920330e-09    1.328186e-13    3.675278e-10   -5.236444e-01
    2.757518e+01    1.755898e+02    7.278055e-08    5.399355e+01    5.915780e-09    1.378873e-13    3.829155e-10   -5.186444e-01
    2.757408e+01    1.755828e+02    8.353970e-08    6.201313e+01    5.911945e-09    1.431631e-13    3.990454e-10   -5.136444e-01
    2.757289e+01    1.755752e+02    9.588880e-08    7.121425e+01    5.908855e-09    1.486547e-13    4.159525e-10   -5.086444e-01
    2.757161e+01    1.755671e+02    1.100628e-07    8.176921e+01    5.906535e-09    1.543719e-13    4.336735e-10   -5.036444e-01
    2.757024e+01    1.755585e+02    1.263310e-07    9.387502e+01    5.905010e-09    1.603244e-13    4.522461e-10   -4.986444e-01
    2.756878e+01    1.755492e+02    1.450028e-07    1.077569e+02    5.904310e-09    1.665225e-13    4.717098e-10   -4.936444e-01
    2.756723e+01    1.755393e+02    1.664330e-07    1.236722e+02    5.904465e-09    1.729770e-13    4.921054e-10   -4.886444e-01
    2.756556e+01    1.755287e+02    1.910290e-07    1.419151e+02    5.905510e-09    1.796993e-13    5.134745e-10   -4.836444e-01
    2.756376e+01    1.755173e+02    2.192578e-07    1.628217e+02    5.907470e-09    1.867010e-13    5.358615e-10   -4.786444e-01
    2.756183e+01    1.755051e+02    2.516558e-07    1.867754e+02    5.910380e-09    1.939944e-13    5.593105e-10   -4.736444e-01
    2.755978e+01    1.754921e+02    2.888381e-07    2.142143e+02    5.914280e-09    2.015922e-13    5.838685e-10   -4.686444e-01
    2.755758e+01    1.754782e+02    3.315106e-07    2.456382e+02    5.919195e-09    2.095078e-13    6.095825e-10   -4.636444e-01
    2.755523e+01    1.754633e+02    3.804832e-07    2.816167e+02    5.925175e-09    2.177552e-13    6.365020e-10   -4.586444e-01
    2.755270e+01    1.754472e+02    4.366848e-07    3.227998e+02    5.932245e-09    2.263487e-13    6.646775e-10   -4.536444e-01
    2.755001e+01    1.754302e+02    5.011815e-07    3.699283e+02    5.940450e-09    2.353036e-13    6.941600e-10   -4.486444e-01
    2.754710e+01    1.754118e+02    5.751965e-07    4.238456e+02    5.949830e-09    2.446356e-13    7.250025e-10   -4.436444e-01
    2.754403e+01    1.753923e+02    6.601315e-07    4.855125e+02    5.960430e-09    2.543610e-13    7.572595e-10   -4.386444e-01
    2.754070e+01    1.753714e+02    7.575970e-07    5.560235e+02    5.972280e-09    2.644971e-13    7.909855e-10   -4.336444e-01
    2.753716e+01    1.753489e+02    8.694370e-07    6.366222e+02    5.985435e-09    2.750616e-13    8.262365e-10   -4.286444e-01
    2.753337e+01    1.753250e+02    9.977695e-07    7.287247e+02    5.999930e-09    2.860729e-13    8.630700e-10   -4.236444e-01
    2.752931e+01    1.752994e+02    1.145022e-06    8.339406e+02    6.015810e-09    2.975506e-13    9.015435e-10   -4.186444e-01
    2.752496e+01    1.752720e+02    1.313978e-06    9.540976e+02    6.033125e-09    3.095145e-13    9.417155e-10   -4.136444e-01
    2.752031e+01    1.752427e+02    1.507832e-06    1.091274e+03    6.051915e-09    3.219855e-13    9.836445e-10   -4.086444e-01
    2.751534e+01    1.752114e+02    1.730244e-06    1.247827e+03    6.072225e-09    3.349854e-13    1.027391e-09   -4.036444e-01
    2.751000e+01    1.751778e+02    1.985411e-06    1.426432e+03    6.094105e-09    3.485367e-13    1.073014e-09   -3.986444e-01
    2.750432e+01    1.751422e+02    2.278146e-06    1.630127e+03    6.117600e-09    3.626629e-13    1.120572e-09   -3.936444e-01
    2.749823e+01    1.751039e+02    2.613965e-06    1.862350e+03    6.142755e-09    3.773883e-13    1.170127e-09   -3.886444e-01
    2.749171e+01    1.750630e+02    2.999193e-06    2.127004e+03    6.169615e-09    3.927380e-13    1.221736e-09   -3.836444e-01
    2.748475e+01    1.750194e+02    3.441078e-06    2.428503e+03    6.198230e-09    4.087385e-13    1.275458e-09   -3.786444e-01
    2.747729e+01    1.749727e+02    3.947924e-06    2.771849e+03    6.228640e-09    4.254167e-13    1.331352e-09   -3.736444e-01
    2.746933e+01    1.749229e+02    4.529252e-06    3.162701e+03    6.260895e-09    4.428010e-13    1.389474e-09   -3.686444e-01
    2.746081e+01    1.748697e+02    5.195965e-06    3.607463e+03    6.295030e-09    4.609207e-13    1.449879e-09   -3.636444e-01
    2.745172e+01    1.748131e+02    5.960555e-06    4.113368e+03    6.331095e-09    4.798058e-13    1.512622e-09   -3.586444e-01
    2.744200e+01    1.747526e+02    6.837335e-06    4.688598e+03    6.369125e-09    4.994880e-13    1.577755e-09   -3.536444e-01
    2.743160e+01    1.746881e+02    7.842695e-06    5.342381e+03    6.409170e-09    5.199995e-13    1.645327e-09   -3.486444e-01
    2.742049e+01    1.746192e+02    8.995400e-06    6.085155e+03    6.451255e-09    5.413740e-13    1.715388e-09   -3.436444e-01
    2.740865e+01    1.745459e+02    1.031693e-05    6.928682e+03    6.495425e-09    5.636465e-13    1.787980e-09   -3.386444e-01
    2.739598e+01    1.744677e+02    1.183189e-05    7.886236e+03    6.541710e-09    5.868525e-13    1.863146e-09   -3.336444e-01
    2.738247e+01    1.743844e+02    1.356842e-05    8.972778e+03    6.590145e-09    6.110295e-13    1.940925e-09   -3.286444e-01
    2.736804e+01    1.742958e+02    1.555872e-05    1.020518e+04    6.640750e-09    6.362155e-13    2.021351e-09   -3.236444e-01
    2.735266e+01    1.742014e+02    1.783965e-05    1.160243e+04    6.693560e-09    6.624500e-13    2.104455e-09   -3.186444e-01
    2.733624e+01    1.741011e+02    2.045334e-05    1.318590e+04    6.748595e-09    6.897745e-13    2.190265e-09   -3.136444e-01
    2.731873e+01    1.739944e+02    2.344798e-05    1.497968e+04    6.805870e-09    7.182305e-13    2.278803e-09   -3.086444e-01
    2.730008e+01    1.738811e+02    2.687863e-05    1.701083e+04    6.865400e-09    7.478620e-13    2.370084e-09   -3.036444e-01
    2.728020e+01    1.737608e+02    3.080827e-05    1.930977e+04    6.927200e-09    7.787135e-13    2.464121e-09   -2.986444e-01
    2.725902e+01    1.736330e+02    3.530878e-05    2.191070e+04    6.991280e-09    8.108315e-13    2.560922e-09   -2.936444e-01
    2.723647e+01    1.734977e+02    4.046231e-05    2.485206e+04    7.057635e-09    8.442630e-13    2.660487e-09   -2.886444e-01
    2.721247e+01    1.733543e+02    4.636263e-05    2.817695e+04    7.126270e-09    8.790575e-13    2.762812e-09   -2.836444e-01
    2.718694e+01    1.732024e+02    5.311680e-05    3.193379e+04    7.197170e-09    9.152645e-13    2.867885e-09   -2.786444e-01
    2.715979e+01    1.730419e+02    6.084690e-05    3.617683e+04    7.270335e-09    9.529370e-13    2.975689e-09   -2.736444e-01
    2.713095e+01    1.728722e+02    6.969220e-05    4.096693e+04    7.345745e-09    9.921270e-13    3.086202e-09   -2.686444e-01
    2.710032e+01    1.726931e+02    7.981145e-05    4.637227e+04    7.423375e-09    1.032890e-12    3.199392e-09   -2.636444e-01
    2.706780e+01    1.725043e+02    9.138565e-05    5.246918e+04    7.503205e-09    1.075283e-12    3.315223e-09   -2.586444e-01
    2.703332e+01    1.723056e+02    1.046208e-04    5.934316e+04    7.585195e-09    1.119362e-12    3.433652e-09   -2.536444e-01
    2.699677e+01    1.720966e+02    1.197514e-04    6.708973e+04    7.669315e-09    1.165187e-12    3.554628e-09   -2.486444e-01
    2.695806e+01    1.718772e+02    1.370446e-04    7.581574e+04    7.755525e-09    1.212819e-12    3.678095e-09   -2.436444e-01
    2.691710e+01    1.716472e+02    1.568037e-04    8.564064e+04    7.843770e-09    1.262320e-12    3.803989e-09   -2.386444e-01
    2.687379e+01    1.714066e+02    1.793740e-04    9.669774e+04    7.934000e-09    1.313756e-12    3.932240e-09   -2.336444e-01
    2.682803e+01    1.711553e+02    2.051474e-04    1.091358e+05    8.026160e-09    1.367190e-12    4.062772e-09   -2.286444e-01
    2.677977e+01    1.708935e+02    2.345689e-04    1.231207e+05    8.120190e-09    1.422690e-12    4.195500e-09   -2.236444e-01
    2.672887e+01    1.706213e+02    2.681434e-04    1.388374e+05    8.216015e-09    1.480327e-12    4.330337e-09   -2.186444e-01
    2.667529e+01    1.703390e+02    3.064435e-04    1.564921e+05    8.313565e-09    1.540171e-12    4.467189e-09   -2.136444e-01
    2.661894e+01    1.700471e+02    3.501180e-04    1.763139e+05    8.412765e-09    1.602293e-12    4.605953e-09   -2.086444e-01
    2.655976e+01    1.697462e+02    3.999015e-04    1.985578e+05    8.513540e-09    1.666768e-12    4.746524e-09   -2.036444e-01
    2.649768e+01    1.694371e+02    4.566252e-04    2.235079e+05    8.615790e-09    1.733673e-12    4.888792e-09   -1.986444e-01
    2.643267e+01    1.691209e+02    5.212295e-04    2.514789e+05    8.719440e-09    1.803085e-12    5.032640e-09   -1.936444e-01
    2.636470e+01    1.687987e+02    5.947760e-04    2.828209e+05    8.824395e-09    1.875085e-12    5.177950e-09   -1.886444e-01
    2.629374e+01    1.684721e+02    6.784645e-04    3.179224e+05    8.930555e-09    1.949754e-12    5.324600e-09   -1.836444e-01
    2.621981e+01    1.681429e+02    7.736480e-04    3.572148e+05    9.037820e-09    2.027176e-12    5.472460e-09   -1.786444e-01
    2.614289e+01    1.678132e+02    8.818530e-04    4.011752e+05    9.146100e-09    2.107435e-12    5.621405e-09   -1.736444e-01
    2.606307e+01    1.674855e+02    1.004797e-03    4.503340e+05    9.255280e-09    2.190622e-12    5.771295e-09   -1.686444e-01
    2.598039e+01    1.671627e+02    1.144418e-03    5.052777e+05    9.365265e-09    2.276825e-12    5.922005e-09   -1.636444e-01
    2.589492e+01    1.668480e+02    1.302891e-03    5.666569e+05    9.475945e-09    2.366136e-12    6.073395e-09   -1.586444e-01
    2.580679e+01    1.665450e+02    1.482665e-03    6.351914e+05    9.587215e-09    2.458650e-12    6.225325e-09   -1.536444e-01
    2.571615e+01    1.662580e+02    1.686490e-03    7.116795e+05    9.698960e-09    2.554463e-12    6.377665e-09   -1.486444e-01
    2.562313e+01    1.659917e+02    1.917454e-03    7.970036e+05    9.811085e-09    2.653674e-12    6.530275e-09   -1.436444e-01
    2.552795e+01    1.657510e+02    2.179024e-03    8.921429e+05    9.923470e-09    2.756385e-12    6.683020e-09   -1.386444e-01
    2.543079e+01    1.655417e+02    2.475084e-03    9.981791e+05    1.003602e-08    2.862699e-12    6.835765e-09   -1.336444e-01
    2.533192e+01    1.653699e+02    2.809993e-03    1.116314e+06    1.014862e-08    2.972721e-12    6.988375e-09   -1.286444e-01
    2.523153e+01    1.652422e+02    3.188629e-03    1.247875e+06    1.026117e-08    3.086563e-12    7.140715e-09   -1.236444e-01
    2.512994e+01    1.651658e+02    3.616459e-03    1.394336e+06    1.037356e-08    3.204335e-12    7.292665e-09   -1.186444e-01
    2.502738e+01    1.651481e+02    4.099598e-03    1.557325e+06    1.048570e-08    3.326151e-12    7.444085e-09   -1.136444e-01
    2.492411e+01    1.651970e+02    4.644891e-03    1.738652e+06    1.059748e-08    3.452128e-12    7.594865e-09   -1.086444e-01
    2.482036e+01    1.653208e+02    5.259990e-03    1.940313e+06    1.070882e-08    3.582388e-12    7.744875e-09   -1.036444e-01
    2.471636e+01    1.655280e+02    5.953450e-03    2.164522e+06    1.081961e-08    3.717053e-12    7.894000e-09   -9.864440e-02
    2.461226e+01    1.658271e+02    6.734830e-03    2.413725e+06    1.092976e-08    3.856249e-12    8.042135e-09   -9.364440e-02
    2.450820e+01    1.662266e+02    7.614800e-03    2.690624e+06    1.103918e-08    4.000108e-12    8.189165e-09   -8.864440e-02
    2.440421e+01    1.667350e+02    8.605270e-03    2.998195e+06    1.114781e-08    4.148761e-12    8.334985e-09   -8.364440e-02
    2.430027e+01    1.673604e+02    9.719515e-03    3.339712e+06    1.125555e-08    4.302345e-12    8.479505e-09   -7.864440e-02
    2.419621e+01    1.681101e+02    1.097233e-02    3.718768e+06    1.136233e-08    4.461002e-12    8.622625e-09   -7.364440e-02
    2.409180e+01    1.689911e+02    1.238019e-02    4.139293e+06    1.146807e-08    4.624875e-12    8.764260e-09   -6.864440e-02
    2.398664e+01    1.700093e+02    1.396137e-02    4.605560e+06    1.157271e-08    4.794111e-12    8.904325e-09   -6.364440e-02
    2.388025e+01    1.711694e+02    1.573617e-02    5.122210e+06    1.167618e-08    4.968864e-12    9.042745e-09   -5.864440e-02
    2.377199e+01    1.724748e+02    1.772708e-02    5.694236e+06    1.177843e-08    5.149290e-12    9.179445e-09   -5.364440e-02
    2.366107e+01    1.739273e+02    1.995894e-02    6.327000e+06    1.187939e-08    5.335550e-12    9.314360e-09   -4.864440e-02
    2.354659e+01    1.755268e+02    2.245915e-02    7.026196e+06    1.197902e-08    5.527805e-12    9.447425e-09   -4.364440e-02
    2.342756e+01    1.772714e+02    2.525782e-02    7.797841e+06    1.207726e-08    5.726230e-12    9.578590e-09   -3.864440e-02
    2.330287e+01    1.791571e+02    2.838794e-02    8.648228e+06    1.217409e-08    5.931000e-12    9.707805e-09   -3.364440e-02
    2.317135e+01    1.811773e+02    3.188556e-02    9.583867e+06    1.226944e-08    6.142290e-12    9.835015e-09   -2.864440e-02
    2.303182e+01    1.833236e+02    3.578986e-02    1.061143e+07    1.236330e-08    6.360290e-12    9.960190e-09   -2.364440e-02
    2.288303e+01    1.855847e+02    4.014331e-02    1.173765e+07    1.245563e-08    6.585185e-12    1.008329e-08   -1.864440e-02
    2.272385e+01    1.879476e+02    4.499168e-02    1.296926e+07    1.254640e-08    6.817180e-12    1.020429e-08   -1.364440e-02
    2.255318e+01    1.903966e+02    5.038405e-02    1.431283e+07    1.263558e-08    7.056465e-12    1.032316e-08   -8.644400e-03
    2.236999e+01    1.929144e+02    5.637290e-02    1.577469e+07    1.272317e-08    7.303260e-12    1.043988e-08   -3.644400e-03
    2.217346e+01    1.954813e+02    6.301375e-02    1.736077e+07    1.280914e-08    7.557770e-12    1.055444e-08    1.355600e-03
    2.196292e+01    1.980768e+02    7.036525e-02    1.907648e+07    1.289349e-08    7.820220e-12    1.066682e-08    6.355600e-03
    2.173786e+01    2.006782e+02    7.848895e-02    2.092658e+07    1.297619e-08    8.090835e-12    1.077702e-08    1.135560e-02
    2.149802e+01    2.032627e+02    8.744880e-02    2.291505e+07    1.305725e-08    8.369855e-12    1.088502e-08    1.635560e-02
    2.124332e+01    2.058067e+02    9.731110e-02    2.504494e+07    1.313666e-08    8.657515e-12    1.099084e-08    2.135560e-02
    2.097394e+01    2.082865e+02    1.081439e-01    2.731832e+07    1.321442e-08    8.954070e-12    1.109448e-08    2.635560e-02
    2.069025e+01    2.106786e+02    1.200165e-01    2.973610e+07    1.329054e-08    9.259775e-12    1.119594e-08    3.135560e-02
    2.039283e+01    2.129603e+02    1.329991e-01    3.229807e+07    1.336502e-08    9.574895e-12    1.129523e-08    3.635560e-02
    2.008244e+01    2.151101e+02    1.471622e-01    3.500280e+07    1.343786e-08    9.899705e-12    1.139236e-08    4.135560e-02
    1.976002e+01    2.171077e+02    1.625761e-01    3.784759e+07    1.350909e-08    1.023449e-11    1.148736e-08    4.635560e-02
    1.942664e+01    2.189347e+02    1.793102e-01    4.082863e+07    1.357869e-08    1.057953e-11    1.158025e-08    5.135560e-02
    1.908347e+01    2.205746e+02    1.974324e-01    4.394081e+07    1.364671e-08    1.093514e-11    1.167103e-08    5.635560e-02
    1.873178e+01    2.220132e+02    2.170088e-01    4.717803e+07    1.371314e-08    1.130163e-11    1.175973e-08    6.135560e-02
    1.837291e+01    2.232387e+02    2.381027e-01    5.053314e+07    1.377800e-08    1.167931e-11    1.184639e-08    6.635560e-02
    1.800819e+01    2.242416e+02    2.607747e-01    5.399807e+07    1.384132e-08    1.206852e-11    1.193102e-08    7.135560e-02
    1.763898e+01    2.250151e+02    2.850819e-01    5.756408e+07    1.390311e-08    1.246960e-11    1.201366e-08    7.635560e-02
    1.726664e+01    2.255547e+02    3.110774e-01    6.122171e+07    1.396339e-08    1.288291e-11    1.209433e-08    8.135560e-02
    1.689247e+01    2.258585e+02    3.388102e-01    6.496115e+07    1.402220e-08    1.330881e-11    1.217307e-08    8.635560e-02
    1.651771e+01    2.259266e+02    3.683249e-01    6.877216e+07    1.407954e-08    1.374767e-11    1.224990e-08    9.135560e-02
    1.614358e+01    2.257616e+02    3.996616e-01    7.264449e+07    1.413545e-08    1.419990e-11    1.232486e-08    9.635560e-02
    1.577117e+01    2.253678e+02    4.328555e-01    7.656779e+07    1.418996e-08    1.466589e-11    1.239799e-08    1.013556e-01
    1.540152e+01    2.247512e+02    4.679374e-01    8.053183e+07    1.424307e-08    1.514606e-11    1.246933e-08    1.063556e-01
    1.503555e+01    2.239196e+02    5.049330e-01    8.452672e+07    1.429483e-08    1.564084e-11    1.253890e-08    1.113556e-01
    1.467415e+01    2.228819e+02    5.438630e-01    8.854293e+07    1.434527e-08    1.615068e-11    1.260674e-08    1.163556e-01
    1.431804e+01    2.216484e+02    5.847450e-01    9.257137e+07    1.439439e-08    1.667604e-11    1.267288e-08    1.213556e-01
    1.396790e+01    2.202297e+02    6.275905e-01    9.660349e+07    1.444224e-08    1.721740e-11    1.273738e-08    1.263556e-01
    1.362431e+01    2.186377e+02    6.724080e-01    1.006314e+08    1.448886e-08    1.777524e-11    1.280025e-08    1.313556e-01
    1.328775e+01    2.168842e+02    7.192025e-01    1.046478e+08    1.453424e-08    1.835009e-11    1.286154e-08    1.363556e-01
    1.295864e+01    2.149816e+02    7.679735e-01    1.086463e+08    1.457844e-08    1.894247e-11    1.292129e-08    1.413556e-01
    1.263731e+01    2.129423e+02    8.187200e-01    1.126210e+08    1.462147e-08    1.955292e-11    1.297953e-08    1.463556e-01
    1.232403e+01    2.107787e+02    8.714355e-01    1.165666e+08    1.466337e-08    2.018202e-11    1.303630e-08    1.513556e-01
    1.201897e+01    2.085028e+02    9.261130e-01    1.204789e+08    1.470416e-08    2.083035e-11    1.309163e-08    1.563556e-01
    1.172228e+01    2.061264e+02    9.827410e-01    1.243541e+08    1.474387e-08    2.149851e-11    1.314557e-08    1.613556e-01
    1.143405e+01    2.036610e+02    1.041308e+00    1.281889e+08    1.478253e-08    2.218714e-11    1.319814e-08    1.663556e-01
    1.115430e+01    2.011178e+02    1.101800e+00    1.319812e+08    1.482017e-08    2.289687e-11    1.324939e-08    1.713556e-01
    1.088302e+01    1.985070e+02    1.164201e+00    1.357288e+08    1.485681e-08    2.362839e-11    1.329934e-08    1.763556e-01
