# sky130 pfet_01v8 gm/ID Processed Lookup Table
# Corner: sf
# Temperature: -40C
# W = 2.0 um
# L = 1 um (1000 nm)
# Columns: gm/id [1/V]  gm/gds [V/V]  id/W [A/m]  ft [Hz]  Cgg/W [F/m]  Cgd/W [F/m]  Cgs/W [F/m]  Cdb/W [F/m]  vgs [V]  vth [V]  vdsat [V]
# vdsat = BSIM4 saturation voltage (|VDS|_sat, positive); use for headroom / saturation / cascode-bias calculations
#           gm/id          gm/gds            id/W              ft           Cgg/W           Cgd/W           Cgs/W           Cdb/W             vgs             vth           vdsat
    2.723946e+00    1.217114e+01    1.580395e+01    1.174812e+09    5.831980e-09    1.557089e-10    5.570610e-09    5.400465e-10   -1.800000e+00    1.124551e+00    5.709150e-01
    2.777595e+00    1.321414e+01    1.537346e+01    1.167193e+09    5.822615e-09    1.456545e-10    5.567125e-09    5.382155e-10   -1.790000e+00    1.124551e+00    5.628415e-01
    2.831332e+00    1.433924e+01    1.495001e+01    1.158803e+09    5.813570e-09    1.362309e-10    5.563365e-09    5.364575e-10   -1.780000e+00    1.124551e+00    5.547715e-01
    2.886132e+00    1.554756e+01    1.452869e+01    1.149672e+09    5.804820e-09    1.274047e-10    5.559350e-09    5.347695e-10   -1.770000e+00    1.124551e+00    5.467047e-01
    2.941744e+00    1.683950e+01    1.411145e+01    1.139836e+09    5.796345e-09    1.191427e-10    5.555080e-09    5.331485e-10   -1.760000e+00    1.124551e+00    5.386412e-01
    2.998239e+00    1.821483e+01    1.369852e+01    1.129332e+09    5.788130e-09    1.114129e-10    5.550570e-09    5.315905e-10   -1.750000e+00    1.124551e+00    5.305809e-01
    3.055701e+00    1.967284e+01    1.329009e+01    1.118202e+09    5.780145e-09    1.041843e-10    5.545825e-09    5.300925e-10   -1.740000e+00    1.124551e+00    5.225237e-01
    3.114227e+00    2.121241e+01    1.288637e+01    1.106487e+09    5.772375e-09    9.742665e-11    5.540845e-09    5.286505e-10   -1.730000e+00    1.124551e+00    5.144696e-01
    3.173917e+00    2.283219e+01    1.248753e+01    1.094228e+09    5.764800e-09    9.111140e-11    5.535645e-09    5.272615e-10   -1.720000e+00    1.124551e+00    5.064187e-01
    3.234885e+00    2.453076e+01    1.209373e+01    1.081467e+09    5.757395e-09    8.521090e-11    5.530220e-09    5.259220e-10   -1.710000e+00    1.124551e+00    4.983707e-01
    3.297248e+00    2.630674e+01    1.170514e+01    1.068243e+09    5.750140e-09    7.969895e-11    5.524580e-09    5.246290e-10   -1.700000e+00    1.124551e+00    4.903258e-01
    3.361134e+00    2.815895e+01    1.132188e+01    1.054591e+09    5.743020e-09    7.455060e-11    5.518725e-09    5.233785e-10   -1.690000e+00    1.124551e+00    4.822838e-01
    3.426672e+00    3.008648e+01    1.094409e+01    1.040548e+09    5.736015e-09    6.974225e-11    5.512650e-09    5.221680e-10   -1.680000e+00    1.124551e+00    4.742448e-01
    3.493999e+00    3.208881e+01    1.057188e+01    1.026146e+09    5.729095e-09    6.525155e-11    5.506360e-09    5.209940e-10   -1.670000e+00    1.124551e+00    4.662086e-01
    3.563257e+00    3.416583e+01    1.020536e+01    1.011413e+09    5.722255e-09    6.105750e-11    5.499850e-09    5.198530e-10   -1.660000e+00    1.124551e+00    4.581753e-01
    3.634596e+00    3.631797e+01    9.844625e+00    9.963773e+08    5.715465e-09    5.714035e-11    5.493120e-09    5.187425e-10   -1.650000e+00    1.124551e+00    4.501449e-01
    3.708170e+00    3.854615e+01    9.489765e+00    9.810639e+08    5.708710e-09    5.348145e-11    5.486160e-09    5.176595e-10   -1.640000e+00    1.124551e+00    4.421172e-01
    3.784146e+00    4.085183e+01    9.140860e+00    9.654952e+08    5.701970e-09    5.006340e-11    5.478970e-09    5.166005e-10   -1.630000e+00    1.124551e+00    4.340924e-01
    3.862696e+00    4.323701e+01    8.797980e+00    9.496920e+08    5.695225e-09    4.686993e-11    5.471535e-09    5.155625e-10   -1.620000e+00    1.124551e+00    4.260703e-01
    3.944000e+00    4.570432e+01    8.461205e+00    9.336740e+08    5.688450e-09    4.388573e-11    5.463855e-09    5.145425e-10   -1.610000e+00    1.124551e+00    4.180509e-01
    4.028254e+00    4.825692e+01    8.130585e+00    9.174573e+08    5.681630e-09    4.109657e-11    5.455915e-09    5.135380e-10   -1.600000e+00    1.124551e+00    4.100343e-01
    4.115667e+00    5.089849e+01    7.806180e+00    9.010576e+08    5.674745e-09    3.848915e-11    5.447700e-09    5.125455e-10   -1.590000e+00    1.124551e+00    4.020205e-01
    4.206455e+00    5.363337e+01    7.488045e+00    8.844901e+08    5.667765e-09    3.605107e-11    5.439200e-09    5.115625e-10   -1.580000e+00    1.124551e+00    3.940094e-01
    4.300853e+00    5.646644e+01    7.176235e+00    8.677672e+08    5.660675e-09    3.377078e-11    5.430395e-09    5.105850e-10   -1.570000e+00    1.124551e+00    3.860010e-01
    4.399120e+00    5.940329e+01    6.870785e+00    8.509011e+08    5.653445e-09    3.163751e-11    5.421270e-09    5.096105e-10   -1.560000e+00    1.124551e+00    3.779954e-01
    4.501527e+00    6.245001e+01    6.571740e+00    8.339025e+08    5.646055e-09    2.964126e-11    5.411800e-09    5.086350e-10   -1.550000e+00    1.124551e+00    3.699925e-01
    4.608370e+00    6.561342e+01    6.279140e+00    8.167809e+08    5.638480e-09    2.777270e-11    5.401970e-09    5.076565e-10   -1.540000e+00    1.124551e+00    3.619925e-01
    4.719973e+00    6.890103e+01    5.993015e+00    7.995466e+08    5.630685e-09    2.602318e-11    5.391745e-09    5.066700e-10   -1.530000e+00    1.124551e+00    3.539953e-01
    4.836676e+00    7.232109e+01    5.713410e+00    7.822073e+08    5.622645e-09    2.438464e-11    5.381105e-09    5.056725e-10   -1.520000e+00    1.124551e+00    3.460010e-01
    4.958861e+00    7.588265e+01    5.440350e+00    7.647702e+08    5.614330e-09    2.284960e-11    5.370015e-09    5.046605e-10   -1.510000e+00    1.124551e+00    3.380097e-01
    5.086946e+00    7.959561e+01    5.173860e+00    7.472433e+08    5.605700e-09    2.141109e-11    5.358440e-09    5.036295e-10   -1.500000e+00    1.124551e+00    3.300216e-01
    5.221372e+00    8.347078e+01    4.913975e+00    7.296317e+08    5.596725e-09    2.006267e-11    5.346340e-09    5.025755e-10   -1.490000e+00    1.124551e+00    3.220367e-01
    5.362635e+00    8.751995e+01    4.660716e+00    7.119410e+08    5.587365e-09    1.879832e-11    5.333675e-09    5.014940e-10   -1.480000e+00    1.124551e+00    3.140552e-01
    5.511277e+00    9.175607e+01    4.414109e+00    6.941766e+08    5.577575e-09    1.761245e-11    5.320395e-09    5.003795e-10   -1.470000e+00    1.124551e+00    3.060773e-01
    5.667884e+00    9.619321e+01    4.174176e+00    6.763423e+08    5.567310e-09    1.649989e-11    5.306455e-09    4.992273e-10   -1.460000e+00    1.124551e+00    2.981033e-01
    5.833108e+00    1.008467e+02    3.940941e+00    6.584409e+08    5.556525e-09    1.545583e-11    5.291795e-09    4.980318e-10   -1.450000e+00    1.124551e+00    2.901335e-01
    6.007660e+00    1.057335e+02    3.714425e+00    6.404755e+08    5.545165e-09    1.447577e-11    5.276360e-09    4.967869e-10   -1.440000e+00    1.124551e+00    2.821683e-01
    6.192322e+00    1.108716e+02    3.494648e+00    6.224480e+08    5.533170e-09    1.355557e-11    5.260070e-09    4.954860e-10   -1.430000e+00    1.124551e+00    2.742081e-01
    6.387954e+00    1.162812e+02    3.281632e+00    6.043584e+08    5.520485e-09    1.269136e-11    5.242865e-09    4.941224e-10   -1.420000e+00    1.124551e+00    2.662537e-01
    6.595502e+00    1.219838e+02    3.075397e+00    5.862063e+08    5.507045e-09    1.187955e-11    5.224660e-09    4.926883e-10   -1.410000e+00    1.124551e+00    2.583057e-01
    6.816007e+00    1.280030e+02    2.875963e+00    5.679923e+08    5.492765e-09    1.111679e-11    5.205370e-09    4.911756e-10   -1.400000e+00    1.124551e+00    2.503650e-01
    7.050609e+00    1.343644e+02    2.683352e+00    5.497121e+08    5.477585e-09    1.039998e-11    5.184900e-09    4.895754e-10   -1.390000e+00    1.124551e+00    2.424327e-01
    7.300556e+00    1.410954e+02    2.497585e+00    5.313638e+08    5.461405e-09    9.726230e-12    5.163145e-09    4.878782e-10   -1.380000e+00    1.124551e+00    2.345102e-01
    7.567220e+00    1.482256e+02    2.318685e+00    5.129422e+08    5.444145e-09    9.092855e-12    5.140000e-09    4.860737e-10   -1.370000e+00    1.124551e+00    2.265991e-01
    7.852090e+00    1.557867e+02    2.146673e+00    4.944413e+08    5.425710e-09    8.497360e-12    5.115340e-09    4.841507e-10   -1.360000e+00    1.124551e+00    2.187014e-01
    8.156787e+00    1.638120e+02    1.981575e+00    4.758549e+08    5.405990e-09    7.937420e-12    5.089040e-09    4.820972e-10   -1.350000e+00    1.124551e+00    2.108196e-01
    8.483053e+00    1.723367e+02    1.823416e+00    4.571750e+08    5.384875e-09    7.410865e-12    5.060965e-09    4.799003e-10   -1.340000e+00    1.124551e+00    2.029565e-01
    8.832762e+00    1.813967e+02    1.672221e+00    4.383927e+08    5.362250e-09    6.915680e-12    5.030960e-09    4.775460e-10   -1.330000e+00    1.124551e+00    1.951159e-01
    9.207892e+00    1.910288e+02    1.528018e+00    4.194991e+08    5.337990e-09    6.450000e-12    4.998869e-09    4.750196e-10   -1.320000e+00    1.124551e+00    1.873020e-01
    9.610507e+00    2.012684e+02    1.390834e+00    4.004859e+08    5.311955e-09    6.012070e-12    4.964528e-09    4.723052e-10   -1.310000e+00    1.124551e+00    1.795201e-01
    1.004272e+01    2.121489e+02    1.260695e+00    3.813443e+08    5.284015e-09    5.600265e-12    4.927760e-09    4.693859e-10   -1.300000e+00    1.124551e+00    1.717765e-01
    1.050663e+01    2.236992e+02    1.137626e+00    3.620693e+08    5.254015e-09    5.213070e-12    4.888376e-09    4.662440e-10   -1.290000e+00    1.124551e+00    1.640790e-01
    1.100424e+01    2.359408e+02    1.021649e+00    3.426584e+08    5.221805e-09    4.849076e-12    4.846185e-09    4.628605e-10   -1.280000e+00    1.124551e+00    1.564364e-01
    1.153734e+01    2.488840e+02    9.127805e-01    3.231150e+08    5.187225e-09    4.506963e-12    4.800983e-09    4.592160e-10   -1.270000e+00    1.124551e+00    1.488598e-01
    1.210731e+01    2.625230e+02    8.110285e-01    3.034499e+08    5.150115e-09    4.185504e-12    4.752564e-09    4.552898e-10   -1.260000e+00    1.124551e+00    1.413618e-01
    1.271496e+01    2.768306e+02    7.163890e-01    2.836854e+08    5.110310e-09    3.883554e-12    4.700716e-09    4.510612e-10   -1.250000e+00    1.124551e+00    1.339575e-01
    1.336021e+01    2.917504e+02    6.288410e-01    2.638570e+08    5.067640e-09    3.600042e-12    4.645226e-09    4.465084e-10   -1.240000e+00    1.124551e+00    1.266643e-01
    1.404182e+01    3.071904e+02    5.483410e-01    2.440180e+08    5.021950e-09    3.333969e-12    4.585885e-09    4.416099e-10   -1.230000e+00    1.124551e+00    1.195023e-01
    1.475694e+01    3.230140e+02    4.748174e-01    2.242424e+08    4.973078e-09    3.084399e-12    4.522483e-09    4.363439e-10   -1.220000e+00    1.124551e+00    1.124941e-01
    1.550081e+01    3.390340e+02    4.081615e-01    2.046278e+08    4.920872e-09    2.850458e-12    4.454825e-09    4.306894e-10   -1.210000e+00    1.124551e+00    1.056652e-01
    1.626634e+01    3.550071e+02    3.482225e-01    1.852963e+08    4.865193e-09    2.631326e-12    4.382729e-09    4.246259e-10   -1.200000e+00    1.124551e+00    9.904325e-02
    1.704385e+01    3.706352e+02    2.947997e-01    1.663942e+08    4.805921e-09    2.426230e-12    4.306028e-09    4.181347e-10   -1.190000e+00    1.124551e+00    9.265781e-02
    1.782092e+01    3.855690e+02    2.476375e-01    1.480873e+08    4.742953e-09    2.234446e-12    4.224587e-09    4.111986e-10   -1.180000e+00    1.124551e+00    8.653954e-02
    1.858270e+01    3.994250e+02    2.064232e-01    1.305548e+08    4.676216e-09    2.055291e-12    4.138297e-09    4.038031e-10   -1.170000e+00    1.124551e+00    8.071905e-02
    1.931238e+01    4.118091e+02    1.707873e-01    1.139775e+08    4.605664e-09    1.888118e-12    4.047091e-09    3.959366e-10   -1.160000e+00    1.124551e+00    7.522555e-02
    1.999226e+01    4.223494e+02    1.403089e-01    9.852472e+07    4.531292e-09    1.732314e-12    3.950949e-09    3.875919e-10   -1.150000e+00    1.124551e+00    7.008525e-02
    2.060515e+01    4.307356e+02    1.145255e-01    8.433972e+07    4.453136e-09    1.587295e-12    3.849899e-09    3.787656e-10   -1.140000e+00    1.124551e+00    6.531972e-02
    2.113613e+01    4.367574e+02    9.294585e-02    7.152654e+07    4.371277e-09    1.452507e-12    3.744030e-09    3.694599e-10   -1.130000e+00    1.124551e+00    6.094442e-02
    2.157415e+01    4.403365e+02    7.506730e-02    6.014055e+07    4.285852e-09    1.327416e-12    3.633498e-09    3.596827e-10   -1.120000e+00    1.124551e+00    5.696752e-02
    2.191352e+01    4.415419e+02    6.039245e-02    5.018465e+07    4.197048e-09    1.211509e-12    3.518523e-09    3.494481e-10   -1.110000e+00    1.124551e+00    5.338925e-02
    2.215472e+01    4.405875e+02    4.844566e-02    4.161178e+07    4.105112e-09    1.104294e-12    3.399401e-09    3.387770e-10   -1.100000e+00    1.124551e+00    5.020187e-02
    2.230428e+01    4.378085e+02    3.878663e-02    3.433274e+07    4.010347e-09    1.005292e-12    3.276500e-09    3.276973e-10   -1.090000e+00    1.124551e+00    4.739032e-02
    2.237408e+01    4.336240e+02    3.101974e-02    2.822805e+07    3.913114e-09    9.140405e-13    3.150256e-09    3.162439e-10   -1.080000e+00    1.124551e+00    4.493327e-02
    2.237983e+01    4.284919e+02    2.479912e-02    2.316074e+07    3.813824e-09    8.300895e-13    3.021179e-09    3.044585e-10   -1.070000e+00    1.124551e+00    4.280468e-02
    2.233933e+01    4.228643e+02    1.982971e-02    1.898842e+07    3.712939e-09    7.530010e-13    2.889836e-09    2.923893e-10   -1.060000e+00    1.124551e+00    4.097535e-02
    2.227085e+01    4.171560e+02    1.586498e-02    1.557306e+07    3.610960e-09    6.823495e-13    2.756848e-09    2.800902e-10   -1.050000e+00    1.124551e+00    3.941461e-02
    2.219168e+01    4.117203e+02    1.270251e-02    1.278758e+07    3.508420e-09    6.177195e-13    2.622878e-09    2.676203e-10   -1.040000e+00    1.124551e+00    3.809164e-02
    2.211730e+01    4.068415e+02    1.017837e-02    1.051967e+07    3.405872e-09    5.587095e-13    2.488617e-09    2.550421e-10   -1.030000e+00    1.124551e+00    3.697663e-02
    2.206099e+01    4.027379e+02    8.161215e-03    8.673124e+06    3.303881e-09    5.049280e-13    2.354772e-09    2.424209e-10   -1.020000e+00    1.124551e+00    3.604161e-02
    2.203383e+01    3.995699e+02    6.546610e-03    7.167524e+06    3.203004e-09    4.559984e-13    2.222045e-09    2.298230e-10   -1.010000e+00    1.124551e+00    3.526095e-02
    2.204507e+01    3.974552e+02    5.251895e-03    5.936842e+06    3.103789e-09    4.115568e-13    2.091124e-09    2.173144e-10   -1.000000e+00    1.124551e+00    3.461166e-02
    2.210257e+01    3.964808e+02    4.211807e-03    4.927580e+06    3.006753e-09    3.712546e-13    1.962664e-09    2.049597e-10   -9.900000e-01    1.124551e+00    3.407343e-02
    2.221315e+01    3.967165e+02    3.374881e-03    4.096769e+06    2.912375e-09    3.347589e-13    1.837274e-09    1.928199e-10   -9.800000e-01    1.124551e+00    3.362860e-02
    2.238314e+01    3.982238e+02    2.700484e-03    3.410088e+06    2.821091e-09    3.017535e-13    1.715509e-09    1.809521e-10   -9.700000e-01    1.124551e+00    3.326194e-02
    2.261851e+01    4.010615e+02    2.156485e-03    2.840183e+06    2.733280e-09    2.719394e-13    1.597852e-09    1.694079e-10   -9.600000e-01    1.124551e+00    3.296051e-02
    2.292497e+01    4.052875e+02    1.717421e-03    2.365269e+06    2.649264e-09    2.450358e-13    1.484719e-09    1.582328e-10   -9.500000e-01    1.124551e+00    3.271332e-02
    2.330787e+01    4.109576e+02    1.363050e-03    1.967976e+06    2.569301e-09    2.207796e-13    1.376445e-09    1.474658e-10   -9.400000e-01    1.124551e+00    3.251116e-02
    2.377179e+01    4.181178e+02    1.077234e-03    1.634433e+06    2.493588e-09    1.989264e-13    1.273288e-09    1.371383e-10   -9.300000e-01    1.124551e+00    3.234631e-02
    2.432007e+01    4.267971e+02    8.470530e-04    1.353549e+06    2.422263e-09    1.792496e-13    1.175431e-09    1.272754e-10   -9.200000e-01    1.124551e+00    3.221236e-02
    2.495402e+01    4.369937e+02    6.621315e-04    1.116451e+06    2.355403e-09    1.615406e-13    1.082981e-09    1.178948e-10   -9.100000e-01    1.124551e+00    3.210396e-02
    2.567226e+01    4.486637e+02    5.140915e-04    9.160404e+05    2.293031e-09    1.456077e-13    9.959780e-10    1.090075e-10   -9.000000e-01    1.124551e+00    3.201665e-02
    2.646982e+01    4.617085e+02    3.961346e-04    7.466415e+05    2.235124e-09    1.312758e-13    9.144015e-10    1.006186e-10   -8.900000e-01    1.124551e+00    3.194675e-02
    2.733765e+01    4.759667e+02    3.027085e-04    6.037090e+05    2.181616e-09    1.183854e-13    8.381745e-10    9.272750e-11   -8.800000e-01    1.124551e+00    3.189118e-02
    2.826237e+01    4.912125e+02    2.292495e-04    4.835797e+05    2.132402e-09    1.067918e-13    7.671760e-10    8.532870e-11   -8.700000e-01    1.124551e+00    3.184734e-02
    2.922645e+01    5.071626e+02    1.719822e-04    3.832521e+05    2.087350e-09    9.636360e-14    7.012455e-10    7.841255e-11   -8.600000e-01    1.124551e+00    3.181309e-02
    3.020878e+01    5.234892e+02    1.277686e-04    3.001975e+05    2.046305e-09    8.698245e-14    6.401910e-10    7.196570e-11   -8.500000e-01    1.124551e+00    3.178659e-02
    3.118579e+01    5.398449e+02    9.399425e-05    2.322088e+05    2.009090e-09    7.854150e-14    5.837985e-10    6.597210e-11   -8.400000e-01    1.124551e+00    3.176632e-02
    3.213260e+01    5.558854e+02    6.848440e-05    1.772865e+05    1.975522e-09    7.094455e-14    5.318365e-10    6.041340e-11   -8.300000e-01    1.124551e+00    3.175100e-02
    3.302390e+01    5.712984e+02    4.944033e-05    1.335735e+05    1.945403e-09    6.410525e-14    4.840624e-10    5.526950e-11   -8.200000e-01    1.124551e+00    3.173955e-02
    3.383450e+01    5.858225e+02    3.538885e-05    9.932905e+04    1.918536e-09    5.794590e-14    4.402278e-10    5.051940e-11   -8.100000e-01    1.124551e+00    3.173109e-02
    3.453893e+01    5.992615e+02    2.513925e-05    7.293495e+04    1.894722e-09    5.239685e-14    4.000830e-10    4.614123e-11   -8.000000e-01    1.124551e+00    3.172492e-02
    3.511002e+01    6.114896e+02    1.774427e-05    5.291691e+04    1.873764e-09    4.739568e-14    3.633806e-10    4.211292e-11   -7.900000e-01    1.124551e+00    3.172047e-02
    3.551638e+01    6.224469e+02    1.246318e-05    3.796854e+04    1.855469e-09    4.288639e-14    3.298781e-10    3.841246e-11   -7.800000e-01    1.124551e+00    3.171729e-02
    3.571894e+01    6.321335e+02    8.726920e-06    2.696770e+04    1.839653e-09    3.881882e-14    2.993403e-10    3.501814e-11   -7.700000e-01    1.124551e+00    3.171504e-02
