# sky130 pfet_01v8 gm/ID Processed Lookup Table
# Corner: ff
# Temperature: -40C
# W = 2.0 um
# L = 2 um (2000 nm)
# Columns: gm/id [1/V]  gm/gds [V/V]  id/W [A/m]  ft [Hz]  Cgg/W [F/m]  Cgd/W [F/m]  Cgs/W [F/m]  Cdb/W [F/m]  vgs [V]  vth [V]  vdsat [V]
# vdsat = BSIM4 saturation voltage (|VDS|_sat, positive); use for headroom / saturation / cascode-bias calculations
#           gm/id          gm/gds            id/W              ft           Cgg/W           Cgd/W           Cgs/W           Cdb/W             vgs             vth           vdsat
    2.386758e+00    7.973534e+00    1.151229e+01    3.432049e+08    1.274197e-08    7.621685e-10    1.171361e-08    1.169786e-09   -1.800000e+00    1.091046e+00    6.081184e-01
    2.437965e+00    8.685922e+00    1.123752e+01    3.432679e+08    1.270237e-08    7.122165e-10    1.171192e-08    1.162771e-09   -1.790000e+00    1.091046e+00    6.000618e-01
    2.489838e+00    9.479892e+00    1.096441e+01    3.430813e+08    1.266425e-08    6.648960e-10    1.170929e-08    1.156014e-09   -1.780000e+00    1.091046e+00    5.920057e-01
    2.542601e+00    1.036349e+01    1.069197e+01    3.426375e+08    1.262761e-08    6.201725e-10    1.170572e-08    1.149518e-09   -1.770000e+00    1.091046e+00    5.839501e-01
    2.596150e+00    1.134500e+01    1.042076e+01    3.419318e+08    1.259243e-08    5.779945e-10    1.170127e-08    1.143280e-09   -1.760000e+00    1.091046e+00    5.758947e-01
    2.650474e+00    1.243283e+01    1.015095e+01    3.409623e+08    1.255868e-08    5.382990e-10    1.169594e-08    1.137299e-09   -1.750000e+00    1.091046e+00    5.678396e-01
    2.705583e+00    1.363541e+01    9.882720e+00    3.397301e+08    1.252632e-08    5.010105e-10    1.168979e-08    1.131569e-09   -1.740000e+00    1.091046e+00    5.597847e-01
    2.761503e+00    1.496111e+01    9.616235e+00    3.382394e+08    1.249530e-08    4.660458e-10    1.168283e-08    1.126085e-09   -1.730000e+00    1.091046e+00    5.517298e-01
    2.818270e+00    1.641816e+01    9.351670e+00    3.364962e+08    1.246556e-08    4.333130e-10    1.167511e-08    1.120842e-09   -1.720000e+00    1.091046e+00    5.436748e-01
    2.875944e+00    1.801455e+01    9.089180e+00    3.345089e+08    1.243706e-08    4.027154e-10    1.166664e-08    1.115829e-09   -1.710000e+00    1.091046e+00    5.356197e-01
    2.934593e+00    1.975802e+01    8.828920e+00    3.322875e+08    1.240971e-08    3.741526e-10    1.165746e-08    1.111041e-09   -1.700000e+00    1.091046e+00    5.275643e-01
    2.994303e+00    2.165601e+01    8.571040e+00    3.298431e+08    1.238346e-08    3.475216e-10    1.164759e-08    1.106467e-09   -1.690000e+00    1.091046e+00    5.195086e-01
    3.055170e+00    2.371573e+01    8.315680e+00    3.271876e+08    1.235823e-08    3.227190e-10    1.163706e-08    1.102096e-09   -1.680000e+00    1.091046e+00    5.114525e-01
    3.117304e+00    2.594409e+01    8.062965e+00    3.243331e+08    1.233397e-08    2.996413e-10    1.162591e-08    1.097920e-09   -1.670000e+00    1.091046e+00    5.033958e-01
    3.180820e+00    2.834780e+01    7.813025e+00    3.212921e+08    1.231058e-08    2.781868e-10    1.161412e-08    1.093928e-09   -1.660000e+00    1.091046e+00    4.953385e-01
    3.245848e+00    3.093345e+01    7.565965e+00    3.180766e+08    1.228800e-08    2.582558e-10    1.160173e-08    1.090108e-09   -1.650000e+00    1.091046e+00    4.872805e-01
    3.312521e+00    3.370757e+01    7.321900e+00    3.146983e+08    1.226615e-08    2.397515e-10    1.158875e-08    1.086451e-09   -1.640000e+00    1.091046e+00    4.792216e-01
    3.380983e+00    3.667666e+01    7.080920e+00    3.111684e+08    1.224496e-08    2.225808e-10    1.157519e-08    1.082946e-09   -1.630000e+00    1.091046e+00    4.711619e-01
    3.451384e+00    3.984737e+01    6.843120e+00    3.074974e+08    1.222436e-08    2.066542e-10    1.156104e-08    1.079581e-09   -1.620000e+00    1.091046e+00    4.631012e-01
    3.523884e+00    4.322651e+01    6.608580e+00    3.036952e+08    1.220427e-08    1.918865e-10    1.154632e-08    1.076347e-09   -1.610000e+00    1.091046e+00    4.550395e-01
    3.598646e+00    4.682131e+01    6.377385e+00    2.997708e+08    1.218464e-08    1.781967e-10    1.153102e-08    1.073232e-09   -1.600000e+00    1.091046e+00    4.469766e-01
    3.675846e+00    5.063926e+01    6.149605e+00    2.957328e+08    1.216537e-08    1.655085e-10    1.151514e-08    1.070228e-09   -1.590000e+00    1.091046e+00    4.389124e-01
    3.755671e+00    5.468845e+01    5.925305e+00    2.915888e+08    1.214640e-08    1.537497e-10    1.149866e-08    1.067322e-09   -1.580000e+00    1.091046e+00    4.308470e-01
    3.838311e+00    5.897755e+01    5.704555e+00    2.873457e+08    1.212767e-08    1.428527e-10    1.148157e-08    1.064506e-09   -1.570000e+00    1.091046e+00    4.227802e-01
    3.923976e+00    6.351596e+01    5.487410e+00    2.830103e+08    1.210910e-08    1.327543e-10    1.146385e-08    1.061768e-09   -1.560000e+00    1.091046e+00    4.147119e-01
    4.012888e+00    6.831389e+01    5.273925e+00    2.785882e+08    1.209062e-08    1.233951e-10    1.144548e-08    1.059100e-09   -1.550000e+00    1.091046e+00    4.066422e-01
    4.105279e+00    7.338248e+01    5.064155e+00    2.740847e+08    1.207216e-08    1.147201e-10    1.142643e-08    1.056491e-09   -1.540000e+00    1.091046e+00    3.985709e-01
    4.201406e+00    7.873395e+01    4.858145e+00    2.695048e+08    1.205366e-08    1.066780e-10    1.140666e-08    1.053933e-09   -1.530000e+00    1.091046e+00    3.904979e-01
    4.301534e+00    8.438162e+01    4.655947e+00    2.648528e+08    1.203502e-08    9.922115e-11    1.138615e-08    1.051414e-09   -1.520000e+00    1.091046e+00    3.824234e-01
    4.405956e+00    9.034016e+01    4.457605e+00    2.601325e+08    1.201620e-08    9.230540e-11    1.136484e-08    1.048926e-09   -1.510000e+00    1.091046e+00    3.743471e-01
    4.514985e+00    9.662563e+01    4.263161e+00    2.553476e+08    1.199711e-08    8.588980e-11    1.134268e-08    1.046459e-09   -1.500000e+00    1.091046e+00    3.662692e-01
    4.628964e+00    1.032557e+02    4.072657e+00    2.505010e+08    1.197767e-08    7.993655e-11    1.131962e-08    1.044001e-09   -1.490000e+00    1.091046e+00    3.581895e-01
    4.748259e+00    1.102498e+02    3.886131e+00    2.455958e+08    1.195779e-08    7.441060e-11    1.129560e-08    1.041545e-09   -1.480000e+00    1.091046e+00    3.501082e-01
    4.873274e+00    1.176292e+02    3.703622e+00    2.406344e+08    1.193740e-08    6.927970e-11    1.127054e-08    1.039080e-09   -1.470000e+00    1.091046e+00    3.420253e-01
    5.004446e+00    1.254173e+02    3.525168e+00    2.356190e+08    1.191642e-08    6.451395e-11    1.124438e-08    1.036593e-09   -1.460000e+00    1.091046e+00    3.339408e-01
    5.142249e+00    1.336399e+02    3.350804e+00    2.305514e+08    1.189472e-08    6.008585e-11    1.121701e-08    1.034075e-09   -1.450000e+00    1.091046e+00    3.258549e-01
    5.287207e+00    1.423252e+02    3.180566e+00    2.254333e+08    1.187225e-08    5.597005e-11    1.118835e-08    1.031514e-09   -1.440000e+00    1.091046e+00    3.177677e-01
    5.439887e+00    1.515043e+02    3.014489e+00    2.202658e+08    1.184886e-08    5.214315e-11    1.115830e-08    1.028898e-09   -1.430000e+00    1.091046e+00    3.096795e-01
    5.600916e+00    1.612111e+02    2.852608e+00    2.150500e+08    1.182447e-08    4.858350e-11    1.112674e-08    1.026213e-09   -1.420000e+00    1.091046e+00    3.015904e-01
    5.770977e+00    1.714833e+02    2.694956e+00    2.097866e+08    1.179895e-08    4.527128e-11    1.109354e-08    1.023448e-09   -1.410000e+00    1.091046e+00    2.935008e-01
    5.950821e+00    1.823617e+02    2.541569e+00    2.044759e+08    1.177218e-08    4.218817e-11    1.105858e-08    1.020587e-09   -1.400000e+00    1.091046e+00    2.854112e-01
    6.141274e+00    1.938914e+02    2.392479e+00    1.991179e+08    1.174401e-08    3.931728e-11    1.102168e-08    1.017614e-09   -1.390000e+00    1.091046e+00    2.773221e-01
    6.343239e+00    2.061219e+02    2.247723e+00    1.937123e+08    1.171431e-08    3.664305e-11    1.098271e-08    1.014515e-09   -1.380000e+00    1.091046e+00    2.692343e-01
    6.557708e+00    2.191065e+02    2.107334e+00    1.882583e+08    1.168292e-08    3.415114e-11    1.094148e-08    1.011271e-09   -1.370000e+00    1.091046e+00    2.611485e-01
    6.785770e+00    2.329042e+02    1.971349e+00    1.827549e+08    1.164968e-08    3.182834e-11    1.089779e-08    1.007865e-09   -1.360000e+00    1.091046e+00    2.530658e-01
    7.028616e+00    2.475788e+02    1.839804e+00    1.772006e+08    1.161439e-08    2.966245e-11    1.085144e-08    1.004275e-09   -1.350000e+00    1.091046e+00    2.449876e-01
    7.287545e+00    2.631989e+02    1.712736e+00    1.715932e+08    1.157689e-08    2.764225e-11    1.080221e-08    1.000481e-09   -1.340000e+00    1.091046e+00    2.369154e-01
    7.563974e+00    2.798389e+02    1.590184e+00    1.659306e+08    1.153695e-08    2.575736e-11    1.074985e-08    9.964605e-10   -1.330000e+00    1.091046e+00    2.288512e-01
    7.859434e+00    2.975781e+02    1.472188e+00    1.602099e+08    1.149437e-08    2.399823e-11    1.069409e-08    9.921885e-10   -1.320000e+00    1.091046e+00    2.207974e-01
    8.175589e+00    3.165004e+02    1.358787e+00    1.544281e+08    1.144891e-08    2.235603e-11    1.063467e-08    9.876385e-10   -1.310000e+00    1.091046e+00    2.127569e-01
    8.514205e+00    3.366935e+02    1.250024e+00    1.485816e+08    1.140033e-08    2.082262e-11    1.057128e-08    9.827830e-10   -1.300000e+00    1.091046e+00    2.047334e-01
    8.877155e+00    3.582469e+02    1.145942e+00    1.426669e+08    1.134837e-08    1.939047e-11    1.050360e-08    9.775915e-10   -1.290000e+00    1.091046e+00    1.967310e-01
    9.266395e+00    3.812506e+02    1.046585e+00    1.366803e+08    1.129274e-08    1.805262e-11    1.043130e-08    9.720330e-10   -1.280000e+00    1.091046e+00    1.887550e-01
    9.683937e+00    4.057913e+02    9.519950e-01    1.306185e+08    1.123317e-08    1.680266e-11    1.035401e-08    9.660735e-10   -1.270000e+00    1.091046e+00    1.808118e-01
    1.013178e+01    4.319485e+02    8.622175e-01    1.244787e+08    1.116934e-08    1.563465e-11    1.027138e-08    9.596775e-10   -1.260000e+00    1.091046e+00    1.729087e-01
    1.061184e+01    4.597867e+02    7.772925e-01    1.182592e+08    1.110095e-08    1.454308e-11    1.018299e-08    9.528070e-10   -1.250000e+00    1.091046e+00    1.650549e-01
    1.112584e+01    4.893494e+02    6.972595e-01    1.119601e+08    1.102768e-08    1.352288e-11    1.008846e-08    9.454240e-10   -1.240000e+00    1.091046e+00    1.572609e-01
    1.167518e+01    5.206469e+02    6.221505e-01    1.055839e+08    1.094918e-08    1.256934e-11    9.987360e-09    9.374875e-10   -1.230000e+00    1.091046e+00    1.495396e-01
    1.226072e+01    5.536443e+02    5.519920e-01    9.913660e+07    1.086513e-08    1.167809e-11    9.879270e-09    9.289555e-10   -1.220000e+00    1.091046e+00    1.419056e-01
    1.288258e+01    5.882444e+02    4.867968e-01    9.262880e+07    1.077518e-08    1.084509e-11    9.763770e-09    9.197855e-10   -1.210000e+00    1.091046e+00    1.343762e-01
    1.353978e+01    6.242700e+02    4.265646e-01    8.607660e+07    1.067902e-08    1.006659e-11    9.640425e-09    9.099340e-10   -1.200000e+00    1.091046e+00    1.269712e-01
    1.422997e+01    6.614459e+02    3.712742e-01    7.950325e+07    1.057631e-08    9.339110e-12    9.508835e-09    8.993590e-10   -1.190000e+00    1.091046e+00    1.197131e-01
    1.494904e+01    6.993801e+02    3.208802e-01    7.293987e+07    1.046674e-08    8.659420e-12    9.368595e-09    8.880175e-10   -1.180000e+00    1.091046e+00    1.126270e-01
    1.569079e+01    7.375471e+02    2.753063e-01    6.642617e+07    1.035003e-08    8.024510e-12    9.219345e-09    8.758695e-10   -1.170000e+00    1.091046e+00    1.057405e-01
    1.644658e+01    7.752848e+02    2.344413e-01    6.001034e+07    1.022595e-08    7.431590e-12    9.060750e-09    8.628765e-10   -1.160000e+00    1.091046e+00    9.908334e-02
    1.720527e+01    8.118005e+02    1.981339e-01    5.374838e+07    1.009427e-08    6.878055e-12    8.892535e-09    8.490040e-10   -1.150000e+00    1.091046e+00    9.268632e-02
    1.795324e+01    8.461975e+02    1.661905e-01    4.770183e+07    9.954840e-09    6.361480e-12    8.714475e-09    8.342220e-10   -1.140000e+00    1.091046e+00    8.658072e-02
    1.867483e+01    8.775240e+02    1.383748e-01    4.193460e+07    9.807570e-09    5.879595e-12    8.526435e-09    8.185060e-10   -1.130000e+00    1.091046e+00    8.079682e-02
    1.935318e+01    9.048451e+02    1.144093e-01    3.650876e+07    9.652430e-09    5.430295e-12    8.328355e-09    8.018400e-10   -1.120000e+00    1.091046e+00    7.536241e-02
    1.997131e+01    9.273310e+02    9.398200e-02    3.147954e+07    9.489495e-09    5.011600e-12    8.120285e-09    7.842150e-10   -1.110000e+00    1.091046e+00    7.030120e-02
    2.051377e+01    9.443528e+02    7.675425e-02    2.689075e+07    9.318910e-09    4.621654e-12    7.902385e-09    7.656325e-10   -1.100000e+00    1.091046e+00    6.563129e-02
    2.096805e+01    9.555626e+02    6.237235e-02    2.277086e+07    9.140940e-09    4.258721e-12    7.674945e-09    7.461045e-10   -1.090000e+00    1.091046e+00    6.136389e-02
    2.132613e+01    9.609491e+02    5.047960e-02    1.913095e+07    8.955950e-09    3.921170e-12    7.438390e-09    7.256555e-10   -1.080000e+00    1.091046e+00    5.750249e-02
    2.158540e+01    9.608456e+02    4.072855e-02    1.596453e+07    8.764415e-09    3.607465e-12    7.193280e-09    7.043220e-10   -1.070000e+00    1.091046e+00    5.404262e-02
    2.174888e+01    9.558911e+02    3.279188e-02    1.324945e+07    8.566935e-09    3.316159e-12    6.940325e-09    6.821550e-10   -1.060000e+00    1.091046e+00    5.097220e-02
    2.182481e+01    9.469536e+02    2.637045e-02    1.095122e+07    8.364220e-09    3.045887e-12    6.680375e-09    6.592185e-10   -1.050000e+00    1.091046e+00    4.827243e-02
    2.182548e+01    9.350237e+02    2.119862e-02    9.027278e+06    8.157080e-09    2.795357e-12    6.414410e-09    6.355900e-10   -1.040000e+00    1.091046e+00    4.591916e-02
    2.176574e+01    9.211145e+02    1.704635e-02    7.431089e+06    7.946435e-09    2.563350e-12    6.143550e-09    6.113600e-10   -1.030000e+00    1.091046e+00    4.388442e-02
    2.166125e+01    9.061664e+02    1.371884e-02    6.115852e+06    7.733285e-09    2.348707e-12    5.869015e-09    5.866305e-10   -1.020000e+00    1.091046e+00    4.213799e-02
    2.152710e+01    8.909852e+02    1.105419e-02    5.037211e+06    7.518695e-09    2.150332e-12    5.592110e-09    5.615135e-10   -1.010000e+00    1.091046e+00    4.064891e-02
    2.137672e+01    8.762102e+02    8.919875e-03    4.155010e+06    7.303785e-09    1.967182e-12    5.314205e-09    5.361295e-10   -1.000000e+00    1.091046e+00    3.938670e-02
    2.122121e+01    8.623064e+02    7.208725e-03    3.434166e+06    7.089695e-09    1.798270e-12    5.036720e-09    5.106050e-10   -9.900000e-01    1.091046e+00    3.832228e-02
    2.106919e+01    8.495803e+02    5.834835e-03    2.844864e+06    6.877570e-09    1.642653e-12    4.761063e-09    4.850697e-10   -9.800000e-01    1.091046e+00    3.742866e-02
    2.092687e+01    8.382048e+02    4.729766e-03    2.362294e+06    6.668530e-09    1.499441e-12    4.488632e-09    4.596535e-10   -9.700000e-01    1.091046e+00    3.668131e-02
    2.079839e+01    8.282499e+02    3.839194e-03    1.966129e+06    6.463650e-09    1.367785e-12    4.220766e-09    4.344847e-10   -9.600000e-01    1.091046e+00    3.605834e-02
    2.068626e+01    8.197116e+02    3.120063e-03    1.639902e+06    6.263940e-09    1.246882e-12    3.958726e-09    4.096865e-10   -9.500000e-01    1.091046e+00    3.554048e-02
    2.059182e+01    8.125410e+02    2.538258e-03    1.370374e+06    6.070320e-09    1.135968e-12    3.703665e-09    3.853751e-10   -9.400000e-01    1.091046e+00    3.511102e-02
    2.051555e+01    8.066624e+02    2.066707e-03    1.146936e+06    5.883600e-09    1.034322e-12    3.456616e-09    3.616570e-10   -9.300000e-01    1.091046e+00    3.475556e-02
    2.045757e+01    8.019919e+02    1.683889e-03    9.611048e+05    5.704490e-09    9.412615e-13    3.218468e-09    3.386277e-10   -9.200000e-01    1.091046e+00    3.446183e-02
    2.041776e+01    7.984495e+02    1.372652e-03    8.060901e+05    5.533565e-09    8.561435e-13    2.989962e-09    3.163702e-10   -9.100000e-01    1.091046e+00    3.421946e-02
    2.039608e+01    7.959665e+02    1.119285e-03    6.764410e+05    5.371280e-09    7.783615e-13    2.771686e-09    2.949545e-10   -9.000000e-01    1.091046e+00    3.401969e-02
    2.039269e+01    7.944927e+02    9.128005e-04    5.677655e+05    5.217970e-09    7.073445e-13    2.564071e-09    2.744366e-10   -8.900000e-01    1.091046e+00    3.385518e-02
    2.040809e+01    7.939998e+02    7.443635e-04    4.765081e+05    5.073845e-09    6.425580e-13    2.367401e-09    2.548589e-10   -8.800000e-01    1.091046e+00    3.371983e-02
    2.044319e+01    7.944842e+02    6.068550e-04    3.997741e+05    4.939000e-09    5.835020e-13    2.181821e-09    2.362510e-10   -8.700000e-01    1.091046e+00    3.360855e-02
    2.049941e+01    7.959699e+02    4.945238e-04    3.351919e+05    4.813435e-09    5.297090e-13    2.007346e-09    2.186297e-10   -8.600000e-01    1.091046e+00    3.351710e-02
    2.057872e+01    7.985078e+02    4.027132e-04    2.808077e+05    4.697054e-09    4.807435e-13    1.843877e-09    2.020004e-10   -8.500000e-01    1.091046e+00    3.344199e-02
    2.068371e+01    8.021791e+02    3.276465e-04    2.350019e+05    4.589682e-09    4.362001e-13    1.691213e-09    1.863585e-10   -8.400000e-01    1.091046e+00    3.338033e-02
    2.081754e+01    8.070947e+02    2.662550e-04    1.964249e+05    4.491081e-09    3.957035e-13    1.549071e-09    1.716902e-10   -8.300000e-01    1.091046e+00    3.332974e-02
    2.098406e+01    8.133962e+02    2.160426e-04    1.639465e+05    4.400955e-09    3.589056e-13    1.417098e-09    1.579739e-10   -8.200000e-01    1.091046e+00    3.328825e-02
    2.118766e+01    8.212526e+02    1.749762e-04    1.366162e+05    4.318968e-09    3.254849e-13    1.294886e-09    1.451820e-10   -8.100000e-01    1.091046e+00    3.325424e-02
    2.143324e+01    8.308602e+02    1.413986e-04    1.136320e+05    4.244752e-09    2.951447e-13    1.181989e-09    1.332813e-10   -8.000000e-01    1.091046e+00    3.322638e-02
    2.172602e+01    8.424356e+02    1.139578e-04    9.431571e+04    4.177920e-09    2.676119e-13    1.077930e-09    1.222352e-10   -7.900000e-01    1.091046e+00    3.320357e-02
    2.207126e+01    8.562081e+02    9.155015e-05    7.809310e+04    4.118070e-09    2.426355e-13    9.822150e-10    1.120037e-10   -7.800000e-01    1.091046e+00    3.318493e-02
    2.247386e+01    8.724063e+02    7.327440e-05    6.447794e+04    4.064797e-09    2.199849e-13    8.943430e-10    1.025453e-10   -7.700000e-01    1.091046e+00    3.316971e-02
    2.293779e+01    8.912425e+02    5.839355e-05    5.305904e+04    4.017698e-09    1.994491e-13    8.138130e-10    9.381710e-11   -7.600000e-01    1.091046e+00    3.315731e-02
    2.346533e+01    9.128888e+02    4.630468e-05    4.348950e+04    3.976374e-09    1.808345e-13    7.401300e-10    8.577605e-11   -7.500000e-01    1.091046e+00    3.314722e-02
    2.405608e+01    9.374534e+02    3.651370e-05    3.547775e+04    3.940440e-09    1.639646e-13    6.728115e-10    7.837915e-11   -7.400000e-01    1.091046e+00    3.313905e-02
    2.470591e+01    9.649497e+02    2.861480e-05    2.877980e+04    3.909523e-09    1.486780e-13    6.113905e-10    7.158425e-11   -7.300000e-01    1.091046e+00    3.313246e-02
    2.540558e+01    9.952714e+02    2.227361e-05    2.319224e+04    3.883267e-09    1.348274e-13    5.554195e-10    6.535020e-11   -7.200000e-01    1.091046e+00    3.312716e-02
