# sky130 pfet_01v8 gm/ID Processed Lookup Table
# Corner: ff
# Temperature: -40C
# W = 2.0 um
# L = 5.5 um (5500 nm)
# Columns: gm/id [1/V]  gm/gds [V/V]  id/W [A/m]  ft [Hz]  Cgg/W [F/m]  Cgd/W [F/m]  Cgs/W [F/m]  Cdb/W [F/m]  vgs [V]  vth [V]  vdsat [V]
# vdsat = BSIM4 saturation voltage (|VDS|_sat, positive); use for headroom / saturation / cascode-bias calculations
#           gm/id          gm/gds            id/W              ft           Cgg/W           Cgd/W           Cgs/W           Cdb/W             vgs             vth           vdsat
    2.485858e+00    1.123531e+01    3.938661e+00    4.456291e+07    3.496807e-08    2.287074e-09    3.266002e-08    3.094056e-09   -1.800000e+00    1.098152e+00    6.044770e-01
    2.538246e+00    1.248609e+01    3.840752e+00    4.452658e+07    3.484583e-08    2.135819e-09    3.265527e-08    3.073590e-09   -1.790000e+00    1.098152e+00    5.961345e-01
    2.590983e+00    1.391322e+01    3.743709e+00    4.445356e+07    3.472803e-08    1.992325e-09    3.264779e-08    3.053864e-09   -1.780000e+00    1.098152e+00    5.877980e-01
    2.644451e+00    1.553986e+01    3.646982e+00    4.434338e+07    3.461470e-08    1.856545e-09    3.263763e-08    3.034888e-09   -1.770000e+00    1.098152e+00    5.794673e-01
    2.698511e+00    1.739107e+01    3.550845e+00    4.419612e+07    3.450578e-08    1.728380e-09    3.262487e-08    3.016663e-09   -1.760000e+00    1.098152e+00    5.711426e-01
    2.753173e+00    1.949359e+01    3.455364e+00    4.401222e+07    3.440125e-08    1.607685e-09    3.260960e-08    2.999186e-09   -1.750000e+00    1.098152e+00    5.628237e-01
    2.808474e+00    2.187581e+01    3.360602e+00    4.379264e+07    3.430098e-08    1.494272e-09    3.259190e-08    2.982448e-09   -1.740000e+00    1.098152e+00    5.545107e-01
    2.864465e+00    2.456744e+01    3.266621e+00    4.353860e+07    3.420487e-08    1.387917e-09    3.257185e-08    2.966438e-09   -1.730000e+00    1.098152e+00    5.462034e-01
    2.921219e+00    2.759942e+01    3.173479e+00    4.325168e+07    3.411276e-08    1.288372e-09    3.254955e-08    2.951137e-09   -1.720000e+00    1.098152e+00    5.379020e-01
    2.978820e+00    3.100353e+01    3.081230e+00    4.293358e+07    3.402448e-08    1.195359e-09    3.252509e-08    2.936526e-09   -1.710000e+00    1.098152e+00    5.296063e-01
    3.037374e+00    3.481234e+01    2.989927e+00    4.258622e+07    3.393985e-08    1.108588e-09    3.249853e-08    2.922581e-09   -1.700000e+00    1.098152e+00    5.213164e-01
    3.096993e+00    3.905883e+01    2.899614e+00    4.221151e+07    3.385866e-08    1.027755e-09    3.246995e-08    2.909275e-09   -1.690000e+00    1.098152e+00    5.130322e-01
    3.157799e+00    4.377630e+01    2.810338e+00    4.181140e+07    3.378069e-08    9.525510e-10    3.243943e-08    2.896581e-09   -1.680000e+00    1.098152e+00    5.047536e-01
    3.219927e+00    4.899817e+01    2.722138e+00    4.138780e+07    3.370574e-08    8.826640e-10    3.240702e-08    2.884468e-09   -1.670000e+00    1.098152e+00    4.964808e-01
    3.283517e+00    5.475792e+01    2.635048e+00    4.094255e+07    3.363358e-08    8.177835e-10    3.237279e-08    2.872906e-09   -1.660000e+00    1.098152e+00    4.882136e-01
    3.348711e+00    6.108884e+01    2.549104e+00    4.047735e+07    3.356396e-08    7.576025e-10    3.233677e-08    2.861864e-09   -1.650000e+00    1.098152e+00    4.799520e-01
    3.415662e+00    6.802416e+01    2.464333e+00    3.999383e+07    3.349666e-08    7.018235e-10    3.229898e-08    2.851307e-09   -1.640000e+00    1.098152e+00    4.716960e-01
    3.484526e+00    7.559696e+01    2.380765e+00    3.949347e+07    3.343145e-08    6.501565e-10    3.225946e-08    2.841206e-09   -1.630000e+00    1.098152e+00    4.634457e-01
    3.555463e+00    8.384018e+01    2.298425e+00    3.897761e+07    3.336810e-08    6.023235e-10    3.221822e-08    2.831527e-09   -1.620000e+00    1.098152e+00    4.552009e-01
    3.628647e+00    9.278676e+01    2.217334e+00    3.844754e+07    3.330637e-08    5.580585e-10    3.217526e-08    2.822237e-09   -1.610000e+00    1.098152e+00    4.469616e-01
    3.704249e+00    1.024698e+02    2.137513e+00    3.790436e+07    3.324603e-08    5.171090e-10    3.213055e-08    2.813305e-09   -1.600000e+00    1.098152e+00    4.387280e-01
    3.782454e+00    1.129223e+02    2.058982e+00    3.734909e+07    3.318688e-08    4.792358e-10    3.208410e-08    2.804700e-09   -1.590000e+00    1.098152e+00    4.304998e-01
    3.863458e+00    1.241781e+02    1.981759e+00    3.678266e+07    3.312866e-08    4.442128e-10    3.203585e-08    2.796391e-09   -1.580000e+00    1.098152e+00    4.222772e-01
    3.947460e+00    1.362709e+02    1.905859e+00    3.620587e+07    3.307117e-08    4.118285e-10    3.198576e-08    2.788346e-09   -1.570000e+00    1.098152e+00    4.140601e-01
    4.034680e+00    1.492362e+02    1.831298e+00    3.561950e+07    3.301417e-08    3.818844e-10    3.193377e-08    2.780537e-09   -1.560000e+00    1.098152e+00    4.058486e-01
    4.125346e+00    1.631094e+02    1.758089e+00    3.502416e+07    3.295746e-08    3.541956e-10    3.187979e-08    2.772933e-09   -1.550000e+00    1.098152e+00    3.976426e-01
    4.219702e+00    1.779280e+02    1.686247e+00    3.442046e+07    3.290080e-08    3.285896e-10    3.182374e-08    2.765506e-09   -1.540000e+00    1.098152e+00    3.894422e-01
    4.318015e+00    1.937307e+02    1.615784e+00    3.380898e+07    3.284396e-08    3.049062e-10    3.176552e-08    2.758225e-09   -1.530000e+00    1.098152e+00    3.812474e-01
    4.420563e+00    2.105578e+02    1.546712e+00    3.319013e+07    3.278673e-08    2.829970e-10    3.170500e-08    2.751063e-09   -1.520000e+00    1.098152e+00    3.730582e-01
    4.527653e+00    2.284524e+02    1.479041e+00    3.256437e+07    3.272886e-08    2.627245e-10    3.164205e-08    2.743990e-09   -1.510000e+00    1.098152e+00    3.648747e-01
    4.639617e+00    2.474597e+02    1.412783e+00    3.193207e+07    3.267012e-08    2.439613e-10    3.157650e-08    2.736977e-09   -1.500000e+00    1.098152e+00    3.566969e-01
    4.756812e+00    2.676276e+02    1.347949e+00    3.129357e+07    3.261028e-08    2.265903e-10    3.150819e-08    2.729996e-09   -1.490000e+00    1.098152e+00    3.485249e-01
    4.879619e+00    2.890071e+02    1.284548e+00    3.064912e+07    3.254906e-08    2.105030e-10    3.143692e-08    2.723016e-09   -1.480000e+00    1.098152e+00    3.403589e-01
    5.008474e+00    3.116536e+02    1.222590e+00    2.999904e+07    3.248621e-08    1.955996e-10    3.136248e-08    2.716008e-09   -1.470000e+00    1.098152e+00    3.321990e-01
    5.143823e+00    3.356249e+02    1.162085e+00    2.934348e+07    3.242145e-08    1.817881e-10    3.128462e-08    2.708939e-09   -1.460000e+00    1.098152e+00    3.240452e-01
    5.286177e+00    3.609842e+02    1.103042e+00    2.868264e+07    3.235450e-08    1.689838e-10    3.120307e-08    2.701778e-09   -1.450000e+00    1.098152e+00    3.158980e-01
    5.436084e+00    3.877992e+02    1.045470e+00    2.801667e+07    3.228505e-08    1.571089e-10    3.111757e-08    2.694492e-09   -1.440000e+00    1.098152e+00    3.077575e-01
    5.594148e+00    4.161422e+02    9.893795e-01    2.734569e+07    3.221278e-08    1.460916e-10    3.102778e-08    2.687046e-09   -1.430000e+00    1.098152e+00    2.996240e-01
    5.761019e+00    4.460907e+02    9.347790e-01    2.666973e+07    3.213734e-08    1.358662e-10    3.093336e-08    2.679403e-09   -1.420000e+00    1.098152e+00    2.914979e-01
    5.937435e+00    4.777284e+02    8.816770e-01    2.598885e+07    3.205837e-08    1.263719e-10    3.083393e-08    2.671525e-09   -1.410000e+00    1.098152e+00    2.833798e-01
    6.124169e+00    5.111432e+02    8.300840e-01    2.530301e+07    3.197549e-08    1.175532e-10    3.072907e-08    2.663371e-09   -1.400000e+00    1.098152e+00    2.752702e-01
    6.322102e+00    5.464310e+02    7.800090e-01    2.461218e+07    3.188829e-08    1.093587e-10    3.061833e-08    2.654899e-09   -1.390000e+00    1.098152e+00    2.671699e-01
    6.532180e+00    5.836909e+02    7.314615e-01    2.391624e+07    3.179633e-08    1.017414e-10    3.050123e-08    2.646061e-09   -1.380000e+00    1.098152e+00    2.590797e-01
    6.755447e+00    6.230286e+02    6.844515e-01    2.321504e+07    3.169913e-08    9.465810e-11    3.037724e-08    2.636810e-09   -1.370000e+00    1.098152e+00    2.510008e-01
    6.993041e+00    6.645543e+02    6.389890e-01    2.250841e+07    3.159620e-08    8.806890e-11    3.024578e-08    2.627095e-09   -1.360000e+00    1.098152e+00    2.429344e-01
    7.246196e+00    7.083804e+02    5.950855e-01    2.179607e+07    3.148700e-08    8.193720e-11    3.010624e-08    2.616858e-09   -1.350000e+00    1.098152e+00    2.348822e-01
    7.516270e+00    7.546222e+02    5.527510e-01    2.107774e+07    3.137097e-08    7.622935e-11    2.995794e-08    2.606042e-09   -1.340000e+00    1.098152e+00    2.268461e-01
    7.804731e+00    8.033937e+02    5.119965e-01    2.035307e+07    3.124749e-08    7.091430e-11    2.980018e-08    2.594582e-09   -1.330000e+00    1.098152e+00    2.188284e-01
    8.113138e+00    8.548035e+02    4.728349e-01    1.962166e+07    3.111592e-08    6.596355e-11    2.963219e-08    2.582410e-09   -1.320000e+00    1.098152e+00    2.108321e-01
    8.443184e+00    9.089513e+02    4.352773e-01    1.888308e+07    3.097560e-08    6.135080e-11    2.945315e-08    2.569456e-09   -1.310000e+00    1.098152e+00    2.028606e-01
    8.796650e+00    9.659208e+02    3.993365e-01    1.813687e+07    3.082578e-08    5.705190e-11    2.926220e-08    2.555641e-09   -1.300000e+00    1.098152e+00    1.949179e-01
    9.175391e+00    1.025770e+03    3.650251e-01    1.738259e+07    3.066571e-08    5.304445e-11    2.905841e-08    2.540886e-09   -1.290000e+00    1.098152e+00    1.870091e-01
    9.581315e+00    1.088522e+03    3.323558e-01    1.661980e+07    3.049459e-08    4.930800e-11    2.884082e-08    2.525103e-09   -1.280000e+00    1.098152e+00    1.791401e-01
    1.001633e+01    1.154149e+03    3.013411e-01    1.584813e+07    3.031161e-08    4.582351e-11    2.860841e-08    2.508202e-09   -1.270000e+00    1.098152e+00    1.713182e-01
    1.048225e+01    1.222554e+03    2.719931e-01    1.506735e+07    3.011588e-08    4.257350e-11    2.836013e-08    2.490089e-09   -1.260000e+00    1.098152e+00    1.635516e-01
    1.098075e+01    1.293551e+03    2.443225e-01    1.427742e+07    2.990653e-08    3.954181e-11    2.809487e-08    2.470662e-09   -1.250000e+00    1.098152e+00    1.558506e-01
    1.151319e+01    1.366840e+03    2.183389e-01    1.347858e+07    2.968266e-08    3.671353e-11    2.781153e-08    2.449820e-09   -1.240000e+00    1.098152e+00    1.482269e-01
    1.208045e+01    1.441976e+03    1.940487e-01    1.267147e+07    2.944334e-08    3.407486e-11    2.750895e-08    2.427457e-09   -1.230000e+00    1.098152e+00    1.406943e-01
    1.268272e+01    1.518344e+03    1.714553e-01    1.185725e+07    2.918766e-08    3.161304e-11    2.718599e-08    2.403465e-09   -1.220000e+00    1.098152e+00    1.332689e-01
    1.331923e+01    1.595122e+03    1.505568e-01    1.103775e+07    2.891472e-08    2.931629e-11    2.684152e-08    2.377734e-09   -1.210000e+00    1.098152e+00    1.259689e-01
    1.398794e+01    1.671265e+03    1.313454e-01    1.021561e+07    2.862363e-08    2.717367e-11    2.647441e-08    2.350155e-09   -1.200000e+00    1.098152e+00    1.188153e-01
    1.468525e+01    1.745489e+03    1.138050e-01    9.394375e+06    2.831358e-08    2.517507e-11    2.608362e-08    2.320623e-09   -1.190000e+00    1.098152e+00    1.118312e-01
    1.540557e+01    1.816274e+03    9.790995e-02    8.578638e+06    2.798378e-08    2.331110e-11    2.566815e-08    2.289032e-09   -1.180000e+00    1.098152e+00    1.050423e-01
    1.614113e+01    1.881903e+03    8.362345e-02    7.774010e+06    2.763358e-08    2.157304e-11    2.522713e-08    2.255288e-09   -1.170000e+00    1.098152e+00    9.847590e-02
    1.688180e+01    1.940523e+03    7.089560e-02    6.987053e+06    2.726239e-08    1.995282e-11    2.475979e-08    2.219301e-09   -1.160000e+00    1.098152e+00    9.216077e-02
    1.761504e+01    1.990264e+03    5.966300e-02    6.225068e+06    2.686981e-08    1.844291e-11    2.426557e-08    2.180996e-09   -1.150000e+00    1.098152e+00    8.612603e-02
    1.832633e+01    2.029377e+03    4.984812e-02    5.495750e+06    2.645559e-08    1.703631e-11    2.374406e-08    2.140309e-09   -1.140000e+00    1.098152e+00    8.040011e-02
    1.899974e+01    2.056410e+03    4.135991e-02    4.806690e+06    2.601964e-08    1.572650e-11    2.319512e-08    2.097198e-09   -1.130000e+00    1.098152e+00    7.500939e-02
    1.961902e+01    2.070394e+03    3.409554e-02    4.164831e+06    2.556216e-08    1.450740e-11    2.261889e-08    2.051638e-09   -1.120000e+00    1.098152e+00    6.997671e-02
    2.016885e+01    2.070982e+03    2.794291e-02    3.575888e+06    2.508356e-08    1.337332e-11    2.201578e-08    2.003629e-09   -1.110000e+00    1.098152e+00    6.531999e-02
    2.063639e+01    2.058546e+03    2.278413e-02    3.043858e+06    2.458453e-08    1.231895e-11    2.138656e-08    1.953201e-09   -1.100000e+00    1.098152e+00    6.105098e-02
    2.101259e+01    2.034183e+03    1.849944e-02    2.570712e+06    2.406605e-08    1.133932e-11    2.073237e-08    1.900411e-09   -1.090000e+00    1.098152e+00    5.717441e-02
    2.129331e+01    1.999618e+03    1.497125e-02    2.156302e+06    2.352945e-08    1.042976e-11    2.005469e-08    1.845349e-09   -1.080000e+00    1.098152e+00    5.368760e-02
    2.147974e+01    1.957035e+03    1.208771e-02    1.798511e+06    2.297630e-08    9.585890e-12    1.935543e-08    1.788138e-09   -1.070000e+00    1.098152e+00    5.058068e-02
    2.157820e+01    1.908856e+03    9.745740e-03    1.493608e+06    2.240854e-08    8.803585e-12    1.863687e-08    1.728937e-09   -1.060000e+00    1.098152e+00    4.783728e-02
    2.159926e+01    1.857504e+03    7.852905e-03    1.236710e+06    2.182838e-08    8.078960e-12    1.790164e-08    1.667937e-09   -1.050000e+00    1.098152e+00    4.543565e-02
    2.155641e+01    1.805209e+03    6.328470e-03    1.022293e+06    2.123830e-08    7.408355e-12    1.715274e-08    1.605364e-09   -1.040000e+00    1.098152e+00    4.335003e-02
    2.146455e+01    1.753858e+03    5.103460e-03    8.446463e+05    2.064105e-08    6.788315e-12    1.639345e-08    1.541471e-09   -1.030000e+00    1.098152e+00    4.155218e-02
    2.133846e+01    1.704927e+03    4.120116e-03    6.982411e+05    2.003952e-08    6.215570e-12    1.562733e-08    1.476539e-09   -1.020000e+00    1.098152e+00    4.001270e-02
    2.119174e+01    1.659457e+03    3.330820e-03    5.779807e+05    1.943678e-08    5.687025e-12    1.485808e-08    1.410874e-09   -1.010000e+00    1.098152e+00    3.870230e-02
    2.103596e+01    1.618097e+03    2.696829e-03    4.793444e+05    1.883598e-08    5.199760e-12    1.408955e-08    1.344794e-09   -1.000000e+00    1.098152e+00    3.759274e-02
    2.088036e+01    1.581157e+03    2.186929e-03    3.984385e+05    1.824028e-08    4.750996e-12    1.332563e-08    1.278627e-09   -9.900000e-01    1.098152e+00    3.665754e-02
    2.073183e+01    1.548691e+03    1.776145e-03    3.319888e+05    1.765278e-08    4.338113e-12    1.257012e-08    1.212706e-09   -9.800000e-01    1.098152e+00    3.587243e-02
    2.059515e+01    1.520566e+03    1.444585e-03    2.772874e+05    1.707647e-08    3.958627e-12    1.182672e-08    1.147362e-09   -9.700000e-01    1.098152e+00    3.521556e-02
    2.047332e+01    1.496527e+03    1.176440e-03    2.321247e+05    1.651418e-08    3.610183e-12    1.109894e-08    1.082909e-09   -9.600000e-01    1.098152e+00    3.466758e-02
    2.036803e+01    1.476255e+03    9.591575e-04    1.947131e+05    1.596849e-08    3.290559e-12    1.038998e-08    1.019652e-09   -9.500000e-01    1.098152e+00    3.421155e-02
    2.027999e+01    1.459407e+03    7.827630e-04    1.636148e+05    1.544172e-08    2.997653e-12    9.702730e-09    9.578655e-10   -9.400000e-01    1.098152e+00    3.383284e-02
    2.020936e+01    1.445646e+03    6.393150e-04    1.376756e+05    1.493587e-08    2.729483e-12    9.039715e-09    8.978030e-10   -9.300000e-01    1.098152e+00    3.351888e-02
    2.015592e+01    1.434660e+03    5.224795e-04    1.159700e+05    1.445262e-08    2.484182e-12    8.403040e-09    8.396845e-10   -9.200000e-01    1.098152e+00    3.325899e-02
    2.011947e+01    1.426176e+03    4.271873e-04    9.775426e+04    1.399327e-08    2.259993e-12    7.794390e-09    7.836955e-10   -9.100000e-01    1.098152e+00    3.304411e-02
    2.009982e+01    1.419976e+03    3.493730e-04    8.242895e+04    1.355882e-08    2.055270e-12    7.215035e-09    7.299895e-10   -9.000000e-01    1.098152e+00    3.286663e-02
    2.009702e+01    1.415882e+03    2.857651e-04    6.950855e+04    1.314990e-08    1.868467e-12    6.665830e-09    6.786825e-10   -8.900000e-01    1.098152e+00    3.272016e-02
    2.011146e+01    1.413783e+03    2.337243e-04    5.859811e+04    1.276686e-08    1.698140e-12    6.147230e-09    6.298580e-10   -8.800000e-01    1.098152e+00    3.259938e-02
    2.014390e+01    1.413617e+03    1.911161e-04    4.937408e+04    1.240972e-08    1.542942e-12    5.659335e-09    5.835675e-10   -8.700000e-01    1.098152e+00    3.249983e-02
    2.019552e+01    1.415378e+03    1.562098e-04    4.156997e+04    1.207824e-08    1.401618e-12    5.201930e-09    5.398310e-10   -8.600000e-01    1.098152e+00    3.241784e-02
    2.026799e+01    1.419121e+03    1.276001e-04    3.496481e+04    1.177201e-08    1.273005e-12    4.774498e-09    4.986430e-10   -8.500000e-01    1.098152e+00    3.235033e-02
    2.036348e+01    1.424953e+03    1.041429e-04    2.937434e+04    1.149036e-08    1.156020e-12    4.376293e-09    4.599736e-10   -8.400000e-01    1.098152e+00    3.229477e-02
    2.048464e+01    1.433040e+03    8.490610e-05    2.464399e+04    1.123250e-08    1.049663e-12    4.006367e-09    4.237719e-10   -8.300000e-01    1.098152e+00    3.224907e-02
    2.063458e+01    1.443600e+03    6.912905e-05    2.064345e+04    1.099751e-08    9.530120e-13    3.663614e-09    3.899706e-10   -8.200000e-01    1.098152e+00    3.221149e-02
    2.081678e+01    1.456908e+03    5.619045e-05    1.726242e+04    1.078437e-08    8.652140e-13    3.346811e-09    3.584879e-10   -8.100000e-01    1.098152e+00    3.218061e-02
    2.103500e+01    1.473281e+03    4.558229e-05    1.440723e+04    1.059201e-08    7.854860e-13    3.054648e-09    3.292316e-10   -8.000000e-01    1.098152e+00    3.215524e-02
    2.129295e+01    1.493076e+03    3.688902e-05    1.199814e+04    1.041932e-08    7.131070e-13    2.785767e-09    3.021014e-10   -7.900000e-01    1.098152e+00    3.213443e-02
    2.159399e+01    1.516675e+03    2.977046e-05    9.967192e+03    1.026516e-08    6.474160e-13    2.538780e-09    2.769913e-10   -7.800000e-01    1.098152e+00    3.211737e-02
    2.194060e+01    1.544460e+03    2.394794e-05    8.256488e+03    1.012841e-08    5.878080e-13    2.312298e-09    2.537922e-10   -7.700000e-01    1.098152e+00    3.210340e-02
    2.233361e+01    1.576793e+03    1.919308e-05    6.816761e+03    1.000796e-08    5.337280e-13    2.104952e-09    2.323936e-10   -7.600000e-01    1.098152e+00    3.209198e-02
    2.277122e+01    1.613971e+03    1.531849e-05    5.606186e+03    9.902730e-09    4.846700e-13    1.915398e-09    2.126853e-10   -7.500000e-01    1.098152e+00    3.208267e-02
    2.324771e+01    1.656189e+03    1.217026e-05    4.589411e+03    9.811670e-09    4.401711e-13    1.742340e-09    1.945583e-10   -7.400000e-01    1.098152e+00    3.207510e-02
    2.375187e+01    1.703490e+03    9.621630e-06    3.736670e+03    9.733790e-09    3.998096e-13    1.584530e-09    1.779065e-10   -7.300000e-01    1.098152e+00    3.206897e-02
    2.426522e+01    1.755726e+03    7.567975e-06    3.023021e+03    9.668140e-09    3.632012e-13    1.440782e-09    1.626272e-10   -7.200000e-01    1.098152e+00    3.206403e-02
