# sky130 pfet_01v8 gm/ID Processed Lookup Table
# Corner: ff
# Temperature: -40C
# W = 2.0 um
# L = 1.5 um (1500 nm)
# Columns: gm/id [1/V]  gm/gds [V/V]  id/W [A/m]  ft [Hz]  Cgg/W [F/m]  Cgd/W [F/m]  Cgs/W [F/m]  Cdb/W [F/m]  vgs [V]  vth [V]  vdsat [V]
# vdsat = BSIM4 saturation voltage (|VDS|_sat, positive); use for headroom / saturation / cascode-bias calculations
#           gm/id          gm/gds            id/W              ft           Cgg/W           Cgd/W           Cgs/W           Cdb/W             vgs             vth           vdsat
    2.335425e+00    6.900863e+00    1.530216e+01    5.948514e+08    9.561595e-09    5.213630e-10    8.876790e-09    8.646220e-10   -1.800000e+00    1.081644e+00    6.273839e-01
    2.386742e+00    7.492059e+00    1.494479e+01    5.953935e+08    9.534795e-09    4.874949e-10    8.875520e-09    8.597830e-10   -1.790000e+00    1.081644e+00    6.190287e-01
    2.438876e+00    8.151305e+00    1.458885e+01    5.955185e+08    9.509015e-09    4.554559e-10    8.873570e-09    8.551275e-10   -1.780000e+00    1.081644e+00    6.106775e-01
    2.491934e+00    8.885597e+00    1.423358e+01    5.952072e+08    9.484240e-09    4.252086e-10    8.870955e-09    8.506545e-10   -1.770000e+00    1.081644e+00    6.023304e-01
    2.545822e+00    9.702100e+00    1.387954e+01    5.944450e+08    9.460440e-09    3.967071e-10    8.867705e-09    8.463615e-10   -1.760000e+00    1.081644e+00    5.939873e-01
    2.600505e+00    1.060803e+01    1.352696e+01    5.932216e+08    9.437590e-09    3.698985e-10    8.863840e-09    8.422460e-10   -1.750000e+00    1.081644e+00    5.856480e-01
    2.655967e+00    1.161049e+01    1.317608e+01    5.915320e+08    9.415660e-09    3.447237e-10    8.859385e-09    8.383035e-10   -1.740000e+00    1.081644e+00    5.773125e-01
    2.712202e+00    1.271636e+01    1.282714e+01    5.893768e+08    9.394610e-09    3.211194e-10    8.854360e-09    8.345300e-10   -1.730000e+00    1.081644e+00    5.689808e-01
    2.769224e+00    1.393213e+01    1.248036e+01    5.867615e+08    9.374405e-09    2.990182e-10    8.848790e-09    8.309195e-10   -1.720000e+00    1.081644e+00    5.606526e-01
    2.827063e+00    1.526378e+01    1.213599e+01    5.836967e+08    9.354995e-09    2.783509e-10    8.842690e-09    8.274665e-10   -1.710000e+00    1.081644e+00    5.523279e-01
    2.885768e+00    1.671675e+01    1.179425e+01    5.801964e+08    9.336345e-09    2.590464e-10    8.836090e-09    8.241645e-10   -1.700000e+00    1.081644e+00    5.440067e-01
    2.945409e+00    1.829586e+01    1.145535e+01    5.762789e+08    9.318400e-09    2.410335e-10    8.829000e-09    8.210070e-10   -1.690000e+00    1.081644e+00    5.356888e-01
    3.006064e+00    2.000530e+01    1.111951e+01    5.719645e+08    9.301110e-09    2.242409e-10    8.821440e-09    8.179870e-10   -1.680000e+00    1.081644e+00    5.273742e-01
    3.067836e+00    2.184870e+01    1.078689e+01    5.672744e+08    9.284435e-09    2.085985e-10    8.813430e-09    8.150975e-10   -1.670000e+00    1.081644e+00    5.190628e-01
    3.130829e+00    2.382918e+01    1.045772e+01    5.622314e+08    9.268325e-09    1.940376e-10    8.804970e-09    8.123310e-10   -1.660000e+00    1.081644e+00    5.107545e-01
    3.195169e+00    2.594947e+01    1.013213e+01    5.568586e+08    9.252725e-09    1.804915e-10    8.796085e-09    8.096810e-10   -1.650000e+00    1.081644e+00    5.024492e-01
    3.260987e+00    2.821198e+01    9.810285e+00    5.511783e+08    9.237590e-09    1.678956e-10    8.786775e-09    8.071390e-10   -1.640000e+00    1.081644e+00    4.941469e-01
    3.328419e+00    3.061898e+01    9.492345e+00    5.452122e+08    9.222870e-09    1.561882e-10    8.777045e-09    8.046985e-10   -1.630000e+00    1.081644e+00    4.858475e-01
    3.397614e+00    3.317272e+01    9.178440e+00    5.389807e+08    9.208520e-09    1.453100e-10    8.766905e-09    8.023525e-10   -1.620000e+00    1.081644e+00    4.775508e-01
    3.468728e+00    3.587552e+01    8.868690e+00    5.325029e+08    9.194495e-09    1.352049e-10    8.756355e-09    8.000935e-10   -1.610000e+00    1.081644e+00    4.692569e-01
    3.541923e+00    3.872997e+01    8.563215e+00    5.257977e+08    9.180735e-09    1.258196e-10    8.745390e-09    7.979145e-10   -1.600000e+00    1.081644e+00    4.609657e-01
    3.617369e+00    4.173896e+01    8.262120e+00    5.188805e+08    9.167210e-09    1.171038e-10    8.734005e-09    7.958085e-10   -1.590000e+00    1.081644e+00    4.526770e-01
    3.695246e+00    4.490581e+01    7.965505e+00    5.117673e+08    9.153860e-09    1.090102e-10    8.722195e-09    7.937685e-10   -1.580000e+00    1.081644e+00    4.443909e-01
    3.775742e+00    4.823440e+01    7.673460e+00    5.044717e+08    9.140645e-09    1.014943e-10    8.709955e-09    7.917885e-10   -1.570000e+00    1.081644e+00    4.361072e-01
    3.859056e+00    5.172926e+01    7.386070e+00    4.970063e+08    9.127520e-09    9.451455e-11    8.697265e-09    7.898615e-10   -1.560000e+00    1.081644e+00    4.278259e-01
    3.945396e+00    5.539551e+01    7.103420e+00    4.893825e+08    9.114435e-09    8.803200e-11    8.684110e-09    7.879810e-10   -1.550000e+00    1.081644e+00    4.195470e-01
    4.034988e+00    5.923913e+01    6.825580e+00    4.816109e+08    9.101345e-09    8.201055e-11    8.670475e-09    7.861400e-10   -1.540000e+00    1.081644e+00    4.112703e-01
    4.128068e+00    6.326691e+01    6.552620e+00    4.737005e+08    9.088205e-09    7.641630e-11    8.656335e-09    7.843325e-10   -1.530000e+00    1.081644e+00    4.029960e-01
    4.224889e+00    6.748657e+01    6.284610e+00    4.656601e+08    9.074960e-09    7.121790e-11    8.641660e-09    7.825520e-10   -1.520000e+00    1.081644e+00    3.947238e-01
    4.325729e+00    7.190677e+01    6.021605e+00    4.574972e+08    9.061565e-09    6.638625e-11    8.626425e-09    7.807925e-10   -1.510000e+00    1.081644e+00    3.864539e-01
    4.430878e+00    7.653732e+01    5.763670e+00    4.492188e+08    9.047970e-09    6.189435e-11    8.610600e-09    7.790465e-10   -1.500000e+00    1.081644e+00    3.781861e-01
    4.540653e+00    8.138908e+01    5.510860e+00    4.408309e+08    9.034120e-09    5.771705e-11    8.594135e-09    7.773075e-10   -1.490000e+00    1.081644e+00    3.699205e-01
    4.655397e+00    8.647418e+01    5.263230e+00    4.323392e+08    9.019960e-09    5.383125e-11    8.576995e-09    7.755690e-10   -1.480000e+00    1.081644e+00    3.616571e-01
    4.775482e+00    9.180612e+01    5.020830e+00    4.237485e+08    9.005435e-09    5.021545e-11    8.559130e-09    7.738245e-10   -1.470000e+00    1.081644e+00    3.533960e-01
    4.901316e+00    9.739980e+01    4.783709e+00    4.150636e+08    8.990480e-09    4.684980e-11    8.540485e-09    7.720660e-10   -1.460000e+00    1.081644e+00    3.451371e-01
    5.033334e+00    1.032717e+02    4.551916e+00    4.062879e+08    8.975035e-09    4.371595e-11    8.521005e-09    7.702865e-10   -1.450000e+00    1.081644e+00    3.368807e-01
    5.172020e+00    1.094400e+02    4.325497e+00    3.974252e+08    8.959030e-09    4.079696e-11    8.500620e-09    7.684775e-10   -1.440000e+00    1.081644e+00    3.286267e-01
    5.317899e+00    1.159248e+02    4.104500e+00    3.884782e+08    8.942395e-09    3.807715e-11    8.479260e-09    7.666320e-10   -1.430000e+00    1.081644e+00    3.203755e-01
    5.471546e+00    1.227482e+02    3.888966e+00    3.794492e+08    8.925050e-09    3.554206e-11    8.456845e-09    7.647400e-10   -1.420000e+00    1.081644e+00    3.121271e-01
    5.633591e+00    1.299344e+02    3.678940e+00    3.703400e+08    8.906920e-09    3.317830e-11    8.433290e-09    7.627935e-10   -1.410000e+00    1.081644e+00    3.038819e-01
    5.804723e+00    1.375101e+02    3.474468e+00    3.611522e+08    8.887910e-09    3.097357e-11    8.408495e-09    7.607825e-10   -1.400000e+00    1.081644e+00    2.956402e-01
    5.985705e+00    1.455047e+02    3.275589e+00    3.518866e+08    8.867925e-09    2.891643e-11    8.382360e-09    7.586960e-10   -1.390000e+00    1.081644e+00    2.874025e-01
    6.177366e+00    1.539501e+02    3.082348e+00    3.425433e+08    8.846870e-09    2.699637e-11    8.354770e-09    7.565240e-10   -1.380000e+00    1.081644e+00    2.791693e-01
    6.380622e+00    1.628816e+02    2.894788e+00    3.331218e+08    8.824635e-09    2.520366e-11    8.325605e-09    7.542535e-10   -1.370000e+00    1.081644e+00    2.709414e-01
    6.596479e+00    1.723375e+02    2.712951e+00    3.236215e+08    8.801100e-09    2.352932e-11    8.294725e-09    7.518730e-10   -1.360000e+00    1.081644e+00    2.627196e-01
    6.826037e+00    1.823598e+02    2.536884e+00    3.140406e+08    8.776140e-09    2.196506e-11    8.261980e-09    7.493680e-10   -1.350000e+00    1.081644e+00    2.545050e-01
    7.070502e+00    1.929939e+02    2.366629e+00    3.043765e+08    8.749625e-09    2.050318e-11    8.227220e-09    7.467240e-10   -1.340000e+00    1.081644e+00    2.462989e-01
    7.331192e+00    2.042890e+02    2.202234e+00    2.946264e+08    8.721405e-09    1.913662e-11    8.190265e-09    7.439255e-10   -1.330000e+00    1.081644e+00    2.381029e-01
    7.609548e+00    2.162981e+02    2.043745e+00    2.847865e+08    8.691330e-09    1.785881e-11    8.150935e-09    7.409550e-10   -1.320000e+00    1.081644e+00    2.299190e-01
    7.907124e+00    2.290778e+02    1.891211e+00    2.748523e+08    8.659230e-09    1.666368e-11    8.109025e-09    7.377950e-10   -1.310000e+00    1.081644e+00    2.217496e-01
    8.225610e+00    2.426880e+02    1.744681e+00    2.648187e+08    8.624930e-09    1.554564e-11    8.064325e-09    7.344255e-10   -1.300000e+00    1.081644e+00    2.135977e-01
    8.566800e+00    2.571912e+02    1.604207e+00    2.546799e+08    8.588245e-09    1.449948e-11    8.016600e-09    7.308255e-10   -1.290000e+00    1.081644e+00    2.054669e-01
    8.932612e+00    2.726514e+02    1.469840e+00    2.444302e+08    8.548970e-09    1.352041e-11    7.965615e-09    7.269730e-10   -1.280000e+00    1.081644e+00    1.973614e-01
    9.325036e+00    2.891332e+02    1.341635e+00    2.340636e+08    8.506895e-09    1.260398e-11    7.911100e-09    7.228445e-10   -1.270000e+00    1.081644e+00    1.892865e-01
    9.746122e+00    3.066980e+02    1.219642e+00    2.235742e+08    8.461800e-09    1.174605e-11    7.852790e-09    7.184140e-10   -1.260000e+00    1.081644e+00    1.812486e-01
    1.019792e+01    3.254029e+02    1.103916e+00    2.129577e+08    8.413455e-09    1.094282e-11    7.790390e-09    7.136550e-10   -1.250000e+00    1.081644e+00    1.732552e-01
    1.068239e+01    3.452941e+02    9.945050e-01    2.022114e+08    8.361615e-09    1.019073e-11    7.723600e-09    7.085395e-10   -1.240000e+00    1.081644e+00    1.653154e-01
    1.120132e+01    3.664027e+02    8.914560e-01    1.913355e+08    8.306030e-09    9.486510e-12    7.652110e-09    7.030380e-10   -1.230000e+00    1.081644e+00    1.574400e-01
    1.175611e+01    3.887356e+02    7.948070e-01    1.803345e+08    8.246445e-09    8.827100e-12    7.575600e-09    6.971205e-10   -1.220000e+00    1.081644e+00    1.496417e-01
    1.234769e+01    4.122680e+02    7.045865e-01    1.692188e+08    8.182605e-09    8.209675e-12    7.493735e-09    6.907545e-10   -1.210000e+00    1.081644e+00    1.419355e-01
    1.297615e+01    4.369300e+02    6.208085e-01    1.580068e+08    8.114240e-09    7.631600e-12    7.406195e-09    6.839090e-10   -1.200000e+00    1.081644e+00    1.343389e-01
    1.364053e+01    4.625945e+02    5.434665e-01    1.467266e+08    8.041095e-09    7.090430e-12    7.312645e-09    6.765500e-10   -1.190000e+00    1.081644e+00    1.268717e-01
    1.433841e+01    4.890637e+02    4.725295e-01    1.354184e+08    7.962920e-09    6.583895e-12    7.212765e-09    6.686465e-10   -1.180000e+00    1.081644e+00    1.195568e-01
    1.506556e+01    5.160543e+02    4.079328e-01    1.241356e+08    7.879480e-09    6.109870e-12    7.106250e-09    6.601655e-10   -1.170000e+00    1.081644e+00    1.124197e-01
    1.581560e+01    5.431892e+02    3.495730e-01    1.129472e+08    7.790550e-09    5.666390e-12    6.992810e-09    6.510765e-10   -1.160000e+00    1.081644e+00    1.054881e-01
    1.657965e+01    5.699909e+02    2.973005e-01    1.019364e+08    7.695940e-09    5.251610e-12    6.872190e-09    6.413510e-10   -1.150000e+00    1.081644e+00    9.879212e-02
    1.734623e+01    5.958885e+02    2.509141e-01    9.120007e+07    7.595480e-09    4.863817e-12    6.744170e-09    6.309625e-10   -1.140000e+00    1.081644e+00    9.236294e-02
    1.810133e+01    6.202368e+02    2.101574e-01    8.084422e+07    7.489045e-09    4.501408e-12    6.608580e-09    6.198880e-10   -1.130000e+00    1.081644e+00    8.623208e-02
    1.882888e+01    6.423513e+02    1.747184e-01    7.097881e+07    7.376570e-09    4.162882e-12    6.465300e-09    6.081100e-10   -1.120000e+00    1.081644e+00    8.042998e-02
    1.951153e+01    6.615612e+02    1.442329e-01    6.171020e+07    7.258030e-09    3.846835e-12    6.314295e-09    5.956150e-10   -1.110000e+00    1.081644e+00    7.498450e-02
    2.013203e+01    6.772750e+02    1.182915e-01    5.313254e+07    7.133470e-09    3.551950e-12    6.155600e-09    5.823970e-10   -1.100000e+00    1.081644e+00    6.991920e-02
    2.067463e+01    6.890480e+02    9.645230e-02    4.531954e+07    7.003015e-09    3.276991e-12    5.989330e-09    5.684575e-10   -1.090000e+00    1.081644e+00    6.525184e-02
    2.112688e+01    6.966425e+02    7.825410e-02    3.831814e+07    6.866860e-09    3.020793e-12    5.815715e-09    5.538055e-10   -1.080000e+00    1.081644e+00    6.099308e-02
    2.148090e+01    7.000647e+02    6.323380e-02    3.214484e+07    6.725285e-09    2.782263e-12    5.635075e-09    5.384600e-10   -1.070000e+00    1.081644e+00    5.714566e-02
    2.173451e+01    6.995709e+02    5.094155e-02    2.678576e+07    6.578670e-09    2.560364e-12    5.447855e-09    5.224495e-10   -1.060000e+00    1.081644e+00    5.370418e-02
    2.189129e+01    6.956361e+02    4.095492e-02    2.220023e+07    6.427470e-09    2.354122e-12    5.254605e-09    5.058125e-10   -1.050000e+00    1.081644e+00    5.065555e-02
    2.196014e+01    6.888979e+02    3.288927e-02    1.832679e+07    6.272245e-09    2.162609e-12    5.055980e-09    4.885987e-10   -1.040000e+00    1.081644e+00    4.797994e-02
    2.195395e+01    6.800766e+02    2.640411e-02    1.509057e+07    6.113625e-09    1.984949e-12    4.852754e-09    4.708674e-10   -1.030000e+00    1.081644e+00    4.565218e-02
    2.188804e+01    6.699024e+02    2.120563e-02    1.241057e+07    5.952320e-09    1.820309e-12    4.645787e-09    4.526879e-10   -1.020000e+00    1.081644e+00    4.364339e-02
    2.177842e+01    6.590480e+02    1.704581e-02    1.020593e+07    5.789110e-09    1.667898e-12    4.436031e-09    4.341383e-10   -1.010000e+00    1.081644e+00    4.192260e-02
    2.164035e+01    6.480863e+02    1.371915e-02    8.400449e+06    5.624825e-09    1.526960e-12    4.224504e-09    4.153044e-10   -1.000000e+00    1.081644e+00    4.045824e-02
    2.148720e+01    6.374650e+02    1.105792e-02    6.925544e+06    5.460340e-09    1.396778e-12    4.012273e-09    3.962783e-10   -9.900000e-01    1.081644e+00    3.921937e-02
    2.132996e+01    6.275064e+02    8.926835e-03    5.721579e+06    5.296535e-09    1.276668e-12    3.800434e-09    3.771562e-10   -9.800000e-01    1.081644e+00    3.817662e-02
    2.117700e+01    6.184186e+02    7.217680e-03    4.738059e+06    5.134305e-09    1.165978e-12    3.590084e-09    3.580369e-10   -9.700000e-01    1.081644e+00    3.730283e-02
    2.103424e+01    6.103137e+02    5.844425e-03    3.933133e+06    4.974509e-09    1.064085e-12    3.382304e-09    3.390195e-10   -9.600000e-01    1.081644e+00    3.657340e-02
    2.090560e+01    6.032319e+02    4.738884e-03    3.272603e+06    4.817985e-09    9.703995e-13    3.178129e-09    3.202008e-10   -9.500000e-01    1.081644e+00    3.596645e-02
    2.079329e+01    5.971624e+02    3.847107e-03    2.728844e+06    4.665507e-09    8.843560e-13    2.978529e-09    3.016741e-10   -9.400000e-01    1.081644e+00    3.546280e-02
    2.069839e+01    5.920616e+02    3.126385e-03    2.279680e+06    4.517783e-09    8.054190e-13    2.784391e-09    2.835269e-10   -9.300000e-01    1.081644e+00    3.504584e-02
    2.062123e+01    5.878700e+02    2.542873e-03    1.907382e+06    4.375437e-09    7.330800e-13    2.596505e-09    2.658391e-10   -9.200000e-01    1.081644e+00    3.470130e-02
    2.056164e+01    5.845216e+02    2.069681e-03    1.597782e+06    4.239005e-09    6.668580e-13    2.415548e-09    2.486820e-10   -9.100000e-01    1.081644e+00    3.441707e-02
    2.051938e+01    5.819543e+02    1.685402e-03    1.339551e+06    4.108926e-09    6.062965e-13    2.242080e-09    2.321174e-10   -9.000000e-01    1.081644e+00    3.418291e-02
    2.049420e+01    5.801148e+02    1.372934e-03    1.123605e+06    3.985540e-09    5.509655e-13    2.076539e-09    2.161965e-10   -8.900000e-01    1.081644e+00    3.399021e-02
    2.048609e+01    5.789623e+02    1.118583e-03    9.426241e+05    3.869091e-09    5.004600e-13    1.919246e-09    2.009604e-10   -8.800000e-01    1.081644e+00    3.383178e-02
    2.049534e+01    5.784721e+02    9.113485e-04    7.906841e+05    3.759731e-09    4.544000e-13    1.770404e-09    1.864394e-10   -8.700000e-01    1.081644e+00    3.370163e-02
    2.052264e+01    5.786359e+02    7.423725e-04    6.629614e+05    3.657522e-09    4.124285e-13    1.630108e-09    1.726540e-10   -8.600000e-01    1.081644e+00    3.359478e-02
    2.056920e+01    5.794652e+02    6.045040e-04    5.555049e+05    3.562451e-09    3.742121e-13    1.498354e-09    1.596155e-10   -8.500000e-01    1.081644e+00    3.350710e-02
    2.063672e+01    5.809907e+02    4.919600e-04    4.650577e+05    3.474432e-09    3.394398e-13    1.375050e-09    1.473262e-10   -8.400000e-01    1.081644e+00    3.343520e-02
    2.072752e+01    5.832635e+02    4.000529e-04    3.889200e+05    3.393319e-09    3.078225e-13    1.260028e-09    1.357809e-10   -8.300000e-01    1.081644e+00    3.337625e-02
    2.084452e+01    5.863563e+02    3.249787e-04    3.248406e+05    3.318919e-09    2.790913e-13    1.153058e-09    1.249676e-10   -8.200000e-01    1.081644e+00    3.332795e-02
    2.099128e+01    5.903632e+02    2.636460e-04    2.709343e+05    3.250993e-09    2.529975e-13    1.053855e-09    1.148689e-10   -8.100000e-01    1.081644e+00    3.328839e-02
    2.117200e+01    5.954004e+02    2.135393e-04    2.256148e+05    3.189277e-09    2.293108e-13    9.620960e-10    1.054624e-10   -8.000000e-01    1.081644e+00    3.325599e-02
    2.139144e+01    6.016044e+02    1.726106e-04    1.875429e+05    3.133480e-09    2.078193e-13    8.774280e-10    9.672225e-11   -7.900000e-01    1.081644e+00    3.322949e-02
    2.165484e+01    6.091288e+02    1.391908e-04    1.555859e+05    3.083298e-09    1.883273e-13    7.994765e-10    8.861970e-11   -7.800000e-01    1.081644e+00    3.320782e-02
    2.196772e+01    6.181424e+02    1.119191e-04    1.287840e+05    3.038419e-09    1.706551e-13    7.278575e-10    8.112390e-11   -7.700000e-01    1.081644e+00    3.319011e-02
    2.233553e+01    6.288201e+02    8.968540e-05    1.063238e+05    2.998526e-09    1.546380e-13    6.621810e-10    7.420285e-11   -7.600000e-01    1.081644e+00    3.317566e-02
    2.276321e+01    6.413326e+02    7.158360e-05    8.751660e+04    2.963308e-09    1.401247e-13    6.020585e-10    6.782385e-11   -7.500000e-01    1.081644e+00    3.316389e-02
    2.325455e+01    6.558337e+02    5.687360e-05    7.178061e+04    2.932457e-09    1.269771e-13    5.471080e-10    6.195400e-11   -7.400000e-01    1.081644e+00    3.315432e-02
    2.381132e+01    6.724412e+02    4.495026e-05    5.862578e+04    2.905676e-09    1.150688e-13    4.969582e-10    5.656075e-11   -7.300000e-01    1.081644e+00    3.314655e-02
    2.443229e+01    6.912188e+02    3.531792e-05    4.764124e+04    2.882679e-09    1.042843e-13    4.512504e-10    5.161210e-11   -7.200000e-01    1.081644e+00    3.314028e-02
