# sky130 pfet_01v8 gm/ID Processed Lookup Table
# Corner: ss
# Temperature: 25C
# W = 2.0 um
# L = 3 um (3000 nm)
# Columns: gm/id [1/V]  gm/gds [V/V]  id/W [A/m]  ft [Hz]  Cgg/W [F/m]  Cgd/W [F/m]  Cgs/W [F/m]  Cdb/W [F/m]  vgs [V]  vth [V]  vdsat [V]
# vdsat = BSIM4 saturation voltage (|VDS|_sat, positive); use for headroom / saturation / cascode-bias calculations
#           gm/id          gm/gds            id/W              ft           Cgg/W           Cgd/W           Cgs/W           Cdb/W             vgs             vth           vdsat
    2.225438e+00    6.748738e+00    5.539805e+00    1.129634e+08    1.736971e-08    1.155659e-09    1.613710e-08    1.725033e-09   -1.800000e+00    1.045578e+00    6.369871e-01
    2.271741e+00    7.329018e+00    5.416520e+00    1.131120e+08    1.731374e-08    1.084070e-09    1.613494e-08    1.714510e-09   -1.790000e+00    1.045578e+00    6.289418e-01
    2.318782e+00    7.980591e+00    5.293725e+00    1.131913e+08    1.725952e-08    1.015876e-09    1.613136e-08    1.704323e-09   -1.780000e+00    1.045578e+00    6.209013e-01
    2.366651e+00    8.712396e+00    5.171155e+00    1.131971e+08    1.720706e-08    9.510680e-10    1.612638e-08    1.694474e-09   -1.770000e+00    1.045578e+00    6.128654e-01
    2.415259e+00    9.534141e+00    5.048985e+00    1.131261e+08    1.715635e-08    8.896175e-10    1.612002e-08    1.684966e-09   -1.760000e+00    1.045578e+00    6.048342e-01
    2.464563e+00    1.045624e+01    4.927287e+00    1.129755e+08    1.710738e-08    8.314730e-10    1.611232e-08    1.675798e-09   -1.750000e+00    1.045578e+00    5.968075e-01
    2.514531e+00    1.148976e+01    4.806137e+00    1.127435e+08    1.706011e-08    7.765675e-10    1.610330e-08    1.666968e-09   -1.740000e+00    1.045578e+00    5.887854e-01
    2.565141e+00    1.264626e+01    4.685608e+00    1.124290e+08    1.701448e-08    7.248190e-10    1.609300e-08    1.658472e-09   -1.730000e+00    1.045578e+00    5.807677e-01
    2.616384e+00    1.393773e+01    4.565777e+00    1.120321e+08    1.697046e-08    6.761320e-10    1.608143e-08    1.650302e-09   -1.720000e+00    1.045578e+00    5.727545e-01
    2.668265e+00    1.537640e+01    4.446717e+00    1.115537e+08    1.692796e-08    6.304005e-10    1.606865e-08    1.642450e-09   -1.710000e+00    1.045578e+00    5.647456e-01
    2.720806e+00    1.697460e+01    4.328500e+00    1.109954e+08    1.688692e-08    5.875095e-10    1.605468e-08    1.634908e-09   -1.700000e+00    1.045578e+00    5.567412e-01
    2.774045e+00    1.874460e+01    4.211199e+00    1.103597e+08    1.684724e-08    5.473385e-10    1.603955e-08    1.627664e-09   -1.690000e+00    1.045578e+00    5.487410e-01
    2.828033e+00    2.069850e+01    4.094881e+00    1.096498e+08    1.680886e-08    5.097625e-10    1.602328e-08    1.620705e-09   -1.680000e+00    1.045578e+00    5.407451e-01
    2.882838e+00    2.284807e+01    3.979611e+00    1.088692e+08    1.677167e-08    4.746541e-10    1.600590e-08    1.614021e-09   -1.670000e+00    1.045578e+00    5.327535e-01
    2.938539e+00    2.520466e+01    3.865449e+00    1.080217e+08    1.673558e-08    4.418843e-10    1.598742e-08    1.607595e-09   -1.660000e+00    1.045578e+00    5.247660e-01
    2.995228e+00    2.777919e+01    3.752454e+00    1.071115e+08    1.670050e-08    4.113252e-10    1.596788e-08    1.601416e-09   -1.650000e+00    1.045578e+00    5.167828e-01
    3.053005e+00    3.058203e+01    3.640677e+00    1.061427e+08    1.666632e-08    3.828502e-10    1.594727e-08    1.595467e-09   -1.640000e+00    1.045578e+00    5.088036e-01
    3.111979e+00    3.362311e+01    3.530169e+00    1.051194e+08    1.663295e-08    3.563354e-10    1.592562e-08    1.589735e-09   -1.630000e+00    1.045578e+00    5.008286e-01
    3.172268e+00    3.691185e+01    3.420975e+00    1.040457e+08    1.660030e-08    3.316605e-10    1.590291e-08    1.584203e-09   -1.620000e+00    1.045578e+00    4.928576e-01
    3.233991e+00    4.045730e+01    3.313138e+00    1.029253e+08    1.656824e-08    3.087092e-10    1.587916e-08    1.578858e-09   -1.610000e+00    1.045578e+00    4.848907e-01
    3.297280e+00    4.426819e+01    3.206695e+00    1.017618e+08    1.653669e-08    2.873699e-10    1.585435e-08    1.573682e-09   -1.600000e+00    1.045578e+00    4.769279e-01
    3.362268e+00    4.835305e+01    3.101682e+00    1.005587e+08    1.650555e-08    2.675357e-10    1.582847e-08    1.568663e-09   -1.590000e+00    1.045578e+00    4.689690e-01
    3.429092e+00    5.272030e+01    2.998132e+00    9.931900e+07    1.647471e-08    2.491051e-10    1.580149e-08    1.563783e-09   -1.580000e+00    1.045578e+00    4.610142e-01
    3.497901e+00    5.737844e+01    2.896074e+00    9.804557e+07    1.644407e-08    2.319819e-10    1.577343e-08    1.559029e-09   -1.570000e+00    1.045578e+00    4.530635e-01
    3.568842e+00    6.233606e+01    2.795537e+00    9.674100e+07    1.641354e-08    2.160750e-10    1.574422e-08    1.554385e-09   -1.560000e+00    1.045578e+00    4.451167e-01
    3.642073e+00    6.760204e+01    2.696546e+00    9.540756e+07    1.638301e-08    2.012990e-10    1.571384e-08    1.549836e-09   -1.550000e+00    1.045578e+00    4.371740e-01
    3.717758e+00    7.318583e+01    2.599124e+00    9.404749e+07    1.635239e-08    1.875734e-10    1.568225e-08    1.545368e-09   -1.540000e+00    1.045578e+00    4.292354e-01
    3.796072e+00    7.909726e+01    2.503295e+00    9.266264e+07    1.632156e-08    1.748229e-10    1.564941e-08    1.540966e-09   -1.530000e+00    1.045578e+00    4.213008e-01
    3.877190e+00    8.534690e+01    2.409077e+00    9.125465e+07    1.629045e-08    1.629772e-10    1.561527e-08    1.536614e-09   -1.520000e+00    1.045578e+00    4.133705e-01
    3.961310e+00    9.194624e+01    2.316492e+00    8.982509e+07    1.625893e-08    1.519705e-10    1.557976e-08    1.532300e-09   -1.510000e+00    1.045578e+00    4.054444e-01
    4.048628e+00    9.890757e+01    2.225557e+00    8.837530e+07    1.622690e-08    1.417417e-10    1.554283e-08    1.528007e-09   -1.500000e+00    1.045578e+00    3.975226e-01
    4.139361e+00    1.062443e+02    2.136289e+00    8.690639e+07    1.619428e-08    1.322340e-10    1.550440e-08    1.523722e-09   -1.490000e+00    1.045578e+00    3.896053e-01
    4.233740e+00    1.139710e+02    2.048704e+00    8.541950e+07    1.616094e-08    1.233944e-10    1.546439e-08    1.519429e-09   -1.480000e+00    1.045578e+00    3.816925e-01
    4.332002e+00    1.221037e+02    1.962820e+00    8.391546e+07    1.612677e-08    1.151739e-10    1.542272e-08    1.515114e-09   -1.470000e+00    1.045578e+00    3.737845e-01
    4.434407e+00    1.306594e+02    1.878651e+00    8.239499e+07    1.609166e-08    1.075271e-10    1.537930e-08    1.510761e-09   -1.460000e+00    1.045578e+00    3.658814e-01
    4.541233e+00    1.396573e+02    1.796211e+00    8.085877e+07    1.605551e-08    1.004119e-10    1.533403e-08    1.506355e-09   -1.450000e+00    1.045578e+00    3.579836e-01
    4.652775e+00    1.491177e+02    1.715515e+00    7.930736e+07    1.601818e-08    9.378915e-11    1.528679e-08    1.501880e-09   -1.440000e+00    1.045578e+00    3.500912e-01
    4.769351e+00    1.590628e+02    1.636577e+00    7.774116e+07    1.597956e-08    8.762295e-11    1.523748e-08    1.497321e-09   -1.430000e+00    1.045578e+00    3.422047e-01
    4.891300e+00    1.695169e+02    1.559412e+00    7.616051e+07    1.593952e-08    8.187985e-11    1.518597e-08    1.492660e-09   -1.420000e+00    1.045578e+00    3.343244e-01
    5.018982e+00    1.805058e+02    1.484031e+00    7.456549e+07    1.589794e-08    7.652905e-11    1.513213e-08    1.487881e-09   -1.410000e+00    1.045578e+00    3.264509e-01
    5.152795e+00    1.920580e+02    1.410449e+00    7.295637e+07    1.585467e-08    7.154205e-11    1.507581e-08    1.482967e-09   -1.400000e+00    1.045578e+00    3.185847e-01
    5.293151e+00    2.042037e+02    1.338680e+00    7.133308e+07    1.580958e-08    6.689245e-11    1.501688e-08    1.477898e-09   -1.390000e+00    1.045578e+00    3.107266e-01
    5.440493e+00    2.169751e+02    1.268737e+00    6.969551e+07    1.576251e-08    6.255600e-11    1.495516e-08    1.472657e-09   -1.380000e+00    1.045578e+00    3.028772e-01
    5.595309e+00    2.304075e+02    1.200633e+00    6.804353e+07    1.571332e-08    5.851015e-11    1.489049e-08    1.467223e-09   -1.370000e+00    1.045578e+00    2.950376e-01
    5.758101e+00    2.445375e+02    1.134383e+00    6.637681e+07    1.566184e-08    5.473410e-11    1.482270e-08    1.461578e-09   -1.360000e+00    1.045578e+00    2.872088e-01
    5.929418e+00    2.594046e+02    1.070001e+00    6.469502e+07    1.560793e-08    5.120870e-11    1.475158e-08    1.455699e-09   -1.350000e+00    1.045578e+00    2.793921e-01
    6.109835e+00    2.750499e+02    1.007499e+00    6.299768e+07    1.555140e-08    4.791622e-11    1.467695e-08    1.449566e-09   -1.340000e+00    1.045578e+00    2.715891e-01
    6.299963e+00    2.915167e+02    9.468920e-01    6.128425e+07    1.549208e-08    4.484020e-11    1.459861e-08    1.443154e-09   -1.330000e+00    1.045578e+00    2.638014e-01
    6.500450e+00    3.088501e+02    8.881955e-01    5.955414e+07    1.542980e-08    4.196551e-11    1.451632e-08    1.436442e-09   -1.320000e+00    1.045578e+00    2.560310e-01
    6.711958e+00    3.270954e+02    8.314235e-01    5.780661e+07    1.536435e-08    3.927813e-11    1.442988e-08    1.429405e-09   -1.310000e+00    1.045578e+00    2.482804e-01
    6.935195e+00    3.462996e+02    7.765910e-01    5.604101e+07    1.529556e-08    3.676509e-11    1.433905e-08    1.422018e-09   -1.300000e+00    1.045578e+00    2.405522e-01
    7.170886e+00    3.665089e+02    7.237125e-01    5.425661e+07    1.522321e-08    3.441439e-11    1.424358e-08    1.414254e-09   -1.290000e+00    1.045578e+00    2.328495e-01
    7.419765e+00    3.877679e+02    6.728025e-01    5.245266e+07    1.514713e-08    3.221495e-11    1.414323e-08    1.406086e-09   -1.280000e+00    1.045578e+00    2.251760e-01
    7.682557e+00    4.101182e+02    6.238765e-01    5.062848e+07    1.506710e-08    3.015646e-11    1.403775e-08    1.397488e-09   -1.270000e+00    1.045578e+00    2.175359e-01
    7.959994e+00    4.335973e+02    5.769480e-01    4.878356e+07    1.498291e-08    2.822942e-11    1.392687e-08    1.388431e-09   -1.260000e+00    1.045578e+00    2.099340e-01
    8.252755e+00    4.582348e+02    5.320310e-01    4.691746e+07    1.489435e-08    2.642501e-11    1.381034e-08    1.378886e-09   -1.250000e+00    1.045578e+00    2.023756e-01
    8.561480e+00    4.840516e+02    4.891375e-01    4.503004e+07    1.480123e-08    2.473505e-11    1.368789e-08    1.368824e-09   -1.240000e+00    1.045578e+00    1.948672e-01
    8.886697e+00    5.110541e+02    4.482794e-01    4.312150e+07    1.470332e-08    2.315197e-11    1.355926e-08    1.358216e-09   -1.230000e+00    1.045578e+00    1.874157e-01
    9.228813e+00    5.392323e+02    4.094658e-01    4.119246e+07    1.460044e-08    2.166873e-11    1.342419e-08    1.347031e-09   -1.220000e+00    1.045578e+00    1.800293e-01
    9.588063e+00    5.685537e+02    3.727036e-01    3.924414e+07    1.449238e-08    2.027880e-11    1.328243e-08    1.335240e-09   -1.210000e+00    1.045578e+00    1.727170e-01
    9.964443e+00    5.989587e+02    3.379963e-01    3.727843e+07    1.437896e-08    1.897613e-11    1.313373e-08    1.322814e-09   -1.200000e+00    1.045578e+00    1.654889e-01
    1.035765e+01    6.303549e+02    3.053438e-01    3.529808e+07    1.426000e-08    1.775508e-11    1.297785e-08    1.309725e-09   -1.190000e+00    1.045578e+00    1.583563e-01
    1.076703e+01    6.626114e+02    2.747408e-01    3.330681e+07    1.413534e-08    1.661042e-11    1.281459e-08    1.295944e-09   -1.180000e+00    1.045578e+00    1.513316e-01
    1.119148e+01    6.955519e+02    2.461762e-01    3.130946e+07    1.400484e-08    1.553729e-11    1.264374e-08    1.281447e-09   -1.170000e+00    1.045578e+00    1.444284e-01
    1.162937e+01    7.289517e+02    2.196320e-01    2.931211e+07    1.386836e-08    1.453115e-11    1.246512e-08    1.266207e-09   -1.160000e+00    1.045578e+00    1.376614e-01
    1.207852e+01    7.625325e+02    1.950824e-01    2.732211e+07    1.372580e-08    1.358780e-11    1.227860e-08    1.250204e-09   -1.150000e+00    1.045578e+00    1.310462e-01
    1.253607e+01    7.959621e+02    1.724927e-01    2.534808e+07    1.357710e-08    1.270329e-11    1.208407e-08    1.233417e-09   -1.140000e+00    1.045578e+00    1.245995e-01
    1.299852e+01    8.288571e+02    1.518183e-01    2.339990e+07    1.342222e-08    1.187396e-11    1.188144e-08    1.215829e-09   -1.130000e+00    1.045578e+00    1.183383e-01
    1.346169e+01    8.607873e+02    1.330044e-01    2.148843e+07    1.326114e-08    1.109641e-11    1.167068e-08    1.197429e-09   -1.120000e+00    1.045578e+00    1.122802e-01
    1.392079e+01    8.912910e+02    1.159854e-01    1.962539e+07    1.309390e-08    1.036744e-11    1.145183e-08    1.178208e-09   -1.110000e+00    1.045578e+00    1.064425e-01
    1.437051e+01    9.198886e+02    1.006851e-01    1.782279e+07    1.292058e-08    9.684070e-12    1.122495e-08    1.158161e-09   -1.100000e+00    1.045578e+00    1.008421e-01
    1.480523e+01    9.461082e+02    8.701705e-02    1.609259e+07    1.274130e-08    9.043520e-12    1.099016e-08    1.137290e-09   -1.090000e+00    1.045578e+00    9.549495e-02
    1.521921e+01    9.695107e+02    7.488565e-02    1.444613e+07    1.255623e-08    8.443185e-12    1.074765e-08    1.115601e-09   -1.080000e+00    1.045578e+00    9.041518e-02
    1.560691e+01    9.897201e+02    6.418745e-02    1.289355e+07    1.236559e-08    7.880625e-12    1.049768e-08    1.093107e-09   -1.070000e+00    1.045578e+00    8.561503e-02
    1.596334e+01    1.006453e+03    5.481305e-02    1.144325e+07    1.216967e-08    7.353555e-12    1.024059e-08    1.069828e-09   -1.060000e+00    1.045578e+00    8.110409e-02
    1.628439e+01    1.019542e+03    4.664934e-02    1.010154e+07    1.196878e-08    6.859845e-12    9.976730e-09    1.045790e-09   -1.050000e+00    1.045578e+00    7.688898e-02
    1.656712e+01    1.028956e+03    3.958176e-02    8.872228e+06    1.176332e-08    6.397475e-12    9.706580e-09    1.021024e-09   -1.040000e+00    1.045578e+00    7.297301e-02
    1.681011e+01    1.034806e+03    3.349677e-02    7.756615e+06    1.155371e-08    5.964565e-12    9.430665e-09    9.955715e-10   -1.030000e+00    1.045578e+00    6.935610e-02
    1.701351e+01    1.037343e+03    2.828406e-02    6.753443e+06    1.134046e-08    5.559350e-12    9.149575e-09    9.694790e-10   -1.020000e+00    1.045578e+00    6.603470e-02
    1.717920e+01    1.036945e+03    2.383856e-02    5.859206e+06    1.112409e-08    5.180160e-12    8.863955e-09    9.427990e-10   -1.010000e+00    1.045578e+00    6.300204e-02
    1.731065e+01    1.034091e+03    2.006203e-02    5.068449e+06    1.090519e-08    4.825428e-12    8.574525e-09    9.155925e-10   -1.000000e+00    1.045578e+00    6.024837e-02
    1.741275e+01    1.029333e+03    1.686414e-02    4.374240e+06    1.068438e-08    4.493686e-12    8.282045e-09    8.879250e-10   -9.900000e-01    1.045578e+00    5.776140e-02
    1.749152e+01    1.023262e+03    1.416326e-02    3.768635e+06    1.046230e-08    4.183545e-12    7.987320e-09    8.598680e-10   -9.800000e-01    1.045578e+00    5.552679e-02
    1.755380e+01    1.016476e+03    1.188663e-02    3.243139e+06    1.023964e-08    3.893698e-12    7.691185e-09    8.314975e-10   -9.700000e-01    1.045578e+00    5.352869e-02
    1.760689e+01    1.009558e+03    9.970255e-03    2.789123e+06    1.001709e-08    3.622912e-12    7.394510e-09    8.028935e-10   -9.600000e-01    1.045578e+00    5.175025e-02
    1.765818e+01    1.003046e+03    8.358530e-03    2.398147e+06    9.795355e-09    3.370026e-12    7.098175e-09    7.741395e-10   -9.500000e-01    1.045578e+00    5.017412e-02
    1.771494e+01    9.974274e+02    7.003600e-03    2.062224e+06    9.575145e-09    3.133944e-12    6.803065e-09    7.453195e-10   -9.400000e-01    1.045578e+00    4.878293e-02
    1.778399e+01    9.931260e+02    5.864650e-03    1.773976e+06    9.357155e-09    2.913632e-12    6.510060e-09    7.165205e-10   -9.300000e-01    1.045578e+00    4.755963e-02
    1.787166e+01    9.905008e+02    4.907095e-03    1.526740e+06    9.142070e-09    2.708115e-12    6.220010e-09    6.878280e-10   -9.200000e-01    1.045578e+00    4.648779e-02
    1.798356e+01    9.898479e+02    4.101810e-03    1.314600e+06    8.930540e-09    2.516470e-12    5.933750e-09    6.593270e-10   -9.100000e-01    1.045578e+00    4.555187e-02
    1.812454e+01    9.914022e+02    3.424358e-03    1.132376e+06    8.723195e-09    2.337832e-12    5.652070e-09    6.310995e-10   -9.000000e-01    1.045578e+00    4.473730e-02
    1.829872e+01    9.953444e+02    2.854301e-03    9.755946e+05    8.520620e-09    2.171377e-12    5.375715e-09    6.032250e-10   -8.900000e-01    1.045578e+00    4.403063e-02
    1.850937e+01    1.001803e+03    2.374573e-03    8.404260e+05    8.323345e-09    2.016334e-12    5.105370e-09    5.757790e-10   -8.800000e-01    1.045578e+00    4.341953e-02
    1.875888e+01    1.010854e+03    1.970938e-03    7.236193e+05    8.131860e-09    1.871974e-12    4.841660e-09    5.488315e-10   -8.700000e-01    1.045578e+00    4.289281e-02
    1.904873e+01    1.022528e+03    1.631509e-03    6.224353e+05    7.946605e-09    1.737607e-12    4.585146e-09    5.224470e-10   -8.600000e-01    1.045578e+00    4.244038e-02
    1.937945e+01    1.036804e+03    1.346352e-03    5.345812e+05    7.767950e-09    1.612587e-12    4.336313e-09    4.966847e-10   -8.500000e-01    1.045578e+00    4.205315e-02
    1.975047e+01    1.053608e+03    1.107142e-03    4.581464e+05    7.596210e-09    1.496303e-12    4.095575e-09    4.715966e-10   -8.400000e-01    1.045578e+00    4.172304e-02
    2.016020e+01    1.072815e+03    9.068845e-04    3.915450e+05    7.431650e-09    1.388179e-12    3.863269e-09    4.472282e-10   -8.300000e-01    1.045578e+00    4.144280e-02
    2.060580e+01    1.094244e+03    7.396770e-04    3.334654e+05    7.274465e-09    1.287676e-12    3.639664e-09    4.236180e-10   -8.200000e-01    1.045578e+00    4.120599e-02
    2.108339e+01    1.117660e+03    6.005180e-04    2.828227e+05    7.124795e-09    1.194284e-12    3.424953e-09    4.007978e-10   -8.100000e-01    1.045578e+00    4.100688e-02
    2.158793e+01    1.142774e+03    4.851490e-04    2.387154e+05    6.982740e-09    1.107526e-12    3.219261e-09    3.787924e-10   -8.000000e-01    1.045578e+00    4.084038e-02
    2.211347e+01    1.169257e+03    3.899287e-04    2.003907e+05    6.848330e-09    1.026953e-12    3.022652e-09    3.576204e-10   -7.900000e-01    1.045578e+00    4.070195e-02
    2.265318e+01    1.196740e+03    3.117306e-04    1.672088e+05    6.721555e-09    9.521435e-13    2.835125e-09    3.372937e-10   -7.800000e-01    1.045578e+00    4.058758e-02
    2.319977e+01    1.224837e+03    2.478632e-04    1.386168e+05    6.602375e-09    8.827035e-13    2.656625e-09    3.178187e-10   -7.700000e-01    1.045578e+00    4.049370e-02
    2.374555e+01    1.253148e+03    1.960063e-04    1.141251e+05    6.490695e-09    8.182615e-13    2.487052e-09    2.991963e-10   -7.600000e-01    1.045578e+00    4.041716e-02
    2.428285e+01    1.281289e+03    1.541606e-04    9.329060e+04    6.386385e-09    7.584725e-13    2.326255e-09    2.814222e-10   -7.500000e-01    1.045578e+00    4.035518e-02
    2.480420e+01    1.308897e+03    1.206077e-04    7.570378e+04    6.289305e-09    7.030105e-13    2.174050e-09    2.644880e-10   -7.400000e-01    1.045578e+00    4.030535e-02
    2.530249e+01    1.335647e+03    9.387720e-05    6.098217e+04    6.199270e-09    6.515735e-13    2.030217e-09    2.483812e-10   -7.300000e-01    1.045578e+00    4.026557e-02
    2.577110e+01    1.361263e+03    7.271825e-05    4.876665e+04    6.116085e-09    6.038775e-13    1.894511e-09    2.330856e-10   -7.200000e-01    1.045578e+00    4.023402e-02
