# sky130 pfet_01v8 gm/ID Processed Lookup Table
# Corner: ss
# Temperature: 25C
# W = 2.0 um
# L = 0.18 um (180 nm)
# Columns: gm/id [1/V]  gm/gds [V/V]  id/W [A/m]  ft [Hz]  Cgg/W [F/m]  Cgd/W [F/m]  Cgs/W [F/m]  Cdb/W [F/m]  vgs [V]  vth [V]  vdsat [V]
# vdsat = BSIM4 saturation voltage (|VDS|_sat, positive); use for headroom / saturation / cascode-bias calculations
#           gm/id          gm/gds            id/W              ft           Cgg/W           Cgd/W           Cgs/W           Cdb/W             vgs             vth           vdsat
    1.359315e+00    1.762188e+00    8.594940e+01    1.430571e+10    1.299791e-09    3.302143e-11    1.025243e-09    1.232758e-10   -1.800000e+00    8.499314e-01    6.899249e-01
    1.386513e+00    1.823648e+00    8.478105e+01    1.441402e+10    1.297949e-09    3.003487e-11    1.025682e-09    1.228248e-10   -1.790000e+00    8.499314e-01    6.840207e-01
    1.414463e+00    1.888141e+00    8.359845e+01    1.451947e+10    1.296162e-09    2.717615e-11    1.026053e-09    1.223869e-10   -1.780000e+00    8.499314e-01    6.781117e-01
    1.443003e+00    1.955833e+00    8.241260e+01    1.462188e+10    1.294428e-09    2.444283e-11    1.026359e-09    1.219622e-10   -1.770000e+00    8.499314e-01    6.721975e-01
    1.472203e+00    2.026893e+00    8.122010e+01    1.472103e+10    1.292746e-09    2.183218e-11    1.026601e-09    1.215504e-10   -1.760000e+00    8.499314e-01    6.662777e-01
    1.502077e+00    2.101494e+00    8.002125e+01    1.481673e+10    1.291116e-09    1.934118e-11    1.026781e-09    1.211515e-10   -1.750000e+00    8.499314e-01    6.603516e-01
    1.532636e+00    2.179811e+00    7.881625e+01    1.490877e+10    1.289536e-09    1.696664e-11    1.026901e-09    1.207653e-10   -1.740000e+00    8.499314e-01    6.544189e-01
    1.563891e+00    2.262013e+00    7.760540e+01    1.499690e+10    1.288004e-09    1.470512e-11    1.026961e-09    1.203914e-10   -1.730000e+00    8.499314e-01    6.484792e-01
    1.595852e+00    2.348273e+00    7.638900e+01    1.508091e+10    1.286519e-09    1.255309e-11    1.026965e-09    1.200296e-10   -1.720000e+00    8.499314e-01    6.425319e-01
    1.628527e+00    2.438754e+00    7.516740e+01    1.516055e+10    1.285079e-09    1.050685e-11    1.026914e-09    1.196798e-10   -1.710000e+00    8.499314e-01    6.365765e-01
    1.661926e+00    2.533611e+00    7.394090e+01    1.523558e+10    1.283683e-09    8.562680e-12    1.026809e-09    1.193415e-10   -1.700000e+00    8.499314e-01    6.306126e-01
    1.696056e+00    2.632990e+00    7.270985e+01    1.530576e+10    1.282327e-09    6.716755e-12    1.026652e-09    1.190144e-10   -1.690000e+00    8.499314e-01    6.246398e-01
    1.730927e+00    2.737025e+00    7.147460e+01    1.537085e+10    1.281011e-09    4.965248e-12    1.026445e-09    1.186982e-10   -1.680000e+00    8.499314e-01    6.186574e-01
    1.766546e+00    2.845834e+00    7.023560e+01    1.543061e+10    1.279733e-09    3.304327e-12    1.026189e-09    1.183927e-10   -1.670000e+00    8.499314e-01    6.126651e-01
    1.802918e+00    2.959516e+00    6.899325e+01    1.548480e+10    1.278490e-09    1.730186e-12    1.025887e-09    1.180972e-10   -1.660000e+00    8.499314e-01    6.066623e-01
    1.840053e+00    3.078154e+00    6.774800e+01    1.553320e+10    1.277280e-09    2.390575e-13    1.025539e-09    1.178117e-10   -1.650000e+00    8.499314e-01    6.006486e-01
    1.877961e+00    3.201803e+00    6.650020e+01    1.557559e+10    1.276101e-09    1.172766e-12    1.025147e-09    1.175355e-10   -1.640000e+00    8.499314e-01    5.946234e-01
    1.916649e+00    3.330506e+00    6.525045e+01    1.561178e+10    1.274952e-09    2.508919e-12    1.024712e-09    1.172685e-10   -1.630000e+00    8.499314e-01    5.885862e-01
    1.956131e+00    3.464277e+00    6.399915e+01    1.564160e+10    1.273829e-09    3.772948e-12    1.024235e-09    1.170101e-10   -1.620000e+00    8.499314e-01    5.825366e-01
    1.996420e+00    3.603113e+00    6.274680e+01    1.566487e+10    1.272732e-09    4.968306e-12    1.023718e-09    1.167600e-10   -1.610000e+00    8.499314e-01    5.764741e-01
    2.037529e+00    3.746987e+00    6.149395e+01    1.568145e+10    1.271657e-09    6.098340e-12    1.023160e-09    1.165179e-10   -1.600000e+00    8.499314e-01    5.703981e-01
    2.079480e+00    3.895858e+00    6.024105e+01    1.569124e+10    1.270604e-09    7.166285e-12    1.022565e-09    1.162832e-10   -1.590000e+00    8.499314e-01    5.643082e-01
    2.122291e+00    4.049670e+00    5.898870e+01    1.569415e+10    1.269568e-09    8.175265e-12    1.021930e-09    1.160557e-10   -1.580000e+00    8.499314e-01    5.582038e-01
    2.165988e+00    4.208348e+00    5.773740e+01    1.569010e+10    1.268550e-09    9.128275e-12    1.021258e-09    1.158349e-10   -1.570000e+00    8.499314e-01    5.520845e-01
    2.210597e+00    4.371812e+00    5.648770e+01    1.567905e+10    1.267547e-09    1.002819e-11    1.020549e-09    1.156205e-10   -1.560000e+00    8.499314e-01    5.459496e-01
    2.256151e+00    4.539975e+00    5.524015e+01    1.566098e+10    1.266556e-09    1.087779e-11    1.019804e-09    1.154121e-10   -1.550000e+00    8.499314e-01    5.397989e-01
    2.302682e+00    4.712742e+00    5.399530e+01    1.563588e+10    1.265574e-09    1.167968e-11    1.019022e-09    1.152092e-10   -1.540000e+00    8.499314e-01    5.336316e-01
    2.350232e+00    4.890018e+00    5.275365e+01    1.560377e+10    1.264602e-09    1.243638e-11    1.018203e-09    1.150116e-10   -1.530000e+00    8.499314e-01    5.274473e-01
    2.398841e+00    5.071710e+00    5.151580e+01    1.556467e+10    1.263636e-09    1.315029e-11    1.017348e-09    1.148189e-10   -1.520000e+00    8.499314e-01    5.212456e-01
    2.448555e+00    5.257729e+00    5.028230e+01    1.551865e+10    1.262675e-09    1.382368e-11    1.016456e-09    1.146306e-10   -1.510000e+00    8.499314e-01    5.150259e-01
    2.499429e+00    5.447987e+00    4.905362e+01    1.546575e+10    1.261714e-09    1.445870e-11    1.015527e-09    1.144464e-10   -1.500000e+00    8.499314e-01    5.087877e-01
    2.551515e+00    5.642405e+00    4.783034e+01    1.540604e+10    1.260755e-09    1.505741e-11    1.014561e-09    1.142661e-10   -1.490000e+00    8.499314e-01    5.025305e-01
    2.604871e+00    5.840905e+00    4.661300e+01    1.533961e+10    1.259793e-09    1.562173e-11    1.013556e-09    1.140890e-10   -1.480000e+00    8.499314e-01    4.962539e-01
    2.659561e+00    6.043420e+00    4.540210e+01    1.526652e+10    1.258827e-09    1.615350e-11    1.012512e-09    1.139150e-10   -1.470000e+00    8.499314e-01    4.899573e-01
    2.715653e+00    6.249896e+00    4.419817e+01    1.518688e+10    1.257854e-09    1.665444e-11    1.011429e-09    1.137436e-10   -1.460000e+00    8.499314e-01    4.836402e-01
    2.773220e+00    6.460275e+00    4.300173e+01    1.510078e+10    1.256872e-09    1.712619e-11    1.010304e-09    1.135744e-10   -1.450000e+00    8.499314e-01    4.773021e-01
    2.832336e+00    6.674509e+00    4.181328e+01    1.500830e+10    1.255879e-09    1.757027e-11    1.009137e-09    1.134071e-10   -1.440000e+00    8.499314e-01    4.709427e-01
    2.893086e+00    6.892560e+00    4.063331e+01    1.490954e+10    1.254872e-09    1.798812e-11    1.007926e-09    1.132413e-10   -1.430000e+00    8.499314e-01    4.645613e-01
    2.955556e+00    7.114397e+00    3.946232e+01    1.480461e+10    1.253848e-09    1.838111e-11    1.006670e-09    1.130767e-10   -1.420000e+00    8.499314e-01    4.581576e-01
    3.019840e+00    7.339984e+00    3.830081e+01    1.469359e+10    1.252807e-09    1.875051e-11    1.005367e-09    1.129127e-10   -1.410000e+00    8.499314e-01    4.517311e-01
    3.086034e+00    7.569298e+00    3.714924e+01    1.457657e+10    1.251744e-09    1.909749e-11    1.004014e-09    1.127490e-10   -1.400000e+00    8.499314e-01    4.452813e-01
    3.154245e+00    7.802316e+00    3.600809e+01    1.445366e+10    1.250656e-09    1.942319e-11    1.002610e-09    1.125852e-10   -1.390000e+00    8.499314e-01    4.388077e-01
    3.224585e+00    8.039015e+00    3.487783e+01    1.432493e+10    1.249542e-09    1.972864e-11    1.001151e-09    1.124210e-10   -1.380000e+00    8.499314e-01    4.323100e-01
    3.297171e+00    8.279374e+00    3.375891e+01    1.419049e+10    1.248397e-09    2.001481e-11    9.996345e-10    1.122557e-10   -1.370000e+00    8.499314e-01    4.257878e-01
    3.372133e+00    8.523385e+00    3.265180e+01    1.405041e+10    1.247220e-09    2.028261e-11    9.980585e-10    1.120890e-10   -1.360000e+00    8.499314e-01    4.192405e-01
    3.449605e+00    8.771022e+00    3.155693e+01    1.390479e+10    1.246005e-09    2.053287e-11    9.964195e-10    1.119203e-10   -1.350000e+00    8.499314e-01    4.126679e-01
    3.529730e+00    9.022263e+00    3.047477e+01    1.375370e+10    1.244751e-09    2.076638e-11    9.947140e-10    1.117494e-10   -1.340000e+00    8.499314e-01    4.060696e-01
    3.612663e+00    9.277088e+00    2.940573e+01    1.359723e+10    1.243453e-09    2.098385e-11    9.929375e-10    1.115755e-10   -1.330000e+00    8.499314e-01    3.994452e-01
    3.698571e+00    9.535473e+00    2.835025e+01    1.343545e+10    1.242107e-09    2.118594e-11    9.910865e-10    1.113981e-10   -1.320000e+00    8.499314e-01    3.927943e-01
    3.787627e+00    9.797389e+00    2.730876e+01    1.326842e+10    1.240710e-09    2.137328e-11    9.891565e-10    1.112168e-10   -1.310000e+00    8.499314e-01    3.861167e-01
    3.880022e+00    1.006281e+01    2.628168e+01    1.309623e+10    1.239256e-09    2.154642e-11    9.871425e-10    1.110308e-10   -1.300000e+00    8.499314e-01    3.794121e-01
    3.975956e+00    1.033168e+01    2.526943e+01    1.291894e+10    1.237743e-09    2.170586e-11    9.850395e-10    1.108396e-10   -1.290000e+00    8.499314e-01    3.726803e-01
    4.075647e+00    1.060397e+01    2.427241e+01    1.273660e+10    1.236164e-09    2.185206e-11    9.828420e-10    1.106425e-10   -1.280000e+00    8.499314e-01    3.659210e-01
    4.179324e+00    1.087962e+01    2.329105e+01    1.254928e+10    1.234516e-09    2.198544e-11    9.805440e-10    1.104389e-10   -1.270000e+00    8.499314e-01    3.591341e-01
    4.287237e+00    1.115856e+01    2.232573e+01    1.235702e+10    1.232791e-09    2.210637e-11    9.781390e-10    1.102280e-10   -1.260000e+00    8.499314e-01    3.523194e-01
    4.399654e+00    1.144073e+01    2.137687e+01    1.215989e+10    1.230986e-09    2.221518e-11    9.756210e-10    1.100089e-10   -1.250000e+00    8.499314e-01    3.454770e-01
    4.516854e+00    1.172603e+01    2.044485e+01    1.195791e+10    1.229094e-09    2.231214e-11    9.729820e-10    1.097810e-10   -1.240000e+00    8.499314e-01    3.386068e-01
    4.639149e+00    1.201438e+01    1.953007e+01    1.175112e+10    1.227109e-09    2.239751e-11    9.702150e-10    1.095433e-10   -1.230000e+00    8.499314e-01    3.317089e-01
    4.766862e+00    1.230565e+01    1.863292e+01    1.153956e+10    1.225024e-09    2.247151e-11    9.673115e-10    1.092949e-10   -1.220000e+00    8.499314e-01    3.247835e-01
    4.900344e+00    1.259972e+01    1.775379e+01    1.132324e+10    1.222832e-09    2.253428e-11    9.642630e-10    1.090349e-10   -1.210000e+00    8.499314e-01    3.178309e-01
    5.039968e+00    1.289644e+01    1.689306e+01    1.110220e+10    1.220527e-09    2.258596e-11    9.610600e-10    1.087622e-10   -1.200000e+00    8.499314e-01    3.108513e-01
    5.186135e+00    1.319564e+01    1.605110e+01    1.087642e+10    1.218100e-09    2.262665e-11    9.576935e-10    1.084758e-10   -1.190000e+00    8.499314e-01    3.038454e-01
    5.339274e+00    1.349712e+01    1.522832e+01    1.064594e+10    1.215543e-09    2.265640e-11    9.541530e-10    1.081744e-10   -1.180000e+00    8.499314e-01    2.968137e-01
    5.499837e+00    1.380068e+01    1.442507e+01    1.041073e+10    1.212849e-09    2.267526e-11    9.504280e-10    1.078569e-10   -1.170000e+00    8.499314e-01    2.897572e-01
    5.668299e+00    1.410606e+01    1.364173e+01    1.017078e+10    1.210008e-09    2.268320e-11    9.465070e-10    1.075221e-10   -1.160000e+00    8.499314e-01    2.826767e-01
    5.845180e+00    1.441298e+01    1.287868e+01    9.926092e+09    1.207011e-09    2.268019e-11    9.423775e-10    1.071685e-10   -1.150000e+00    8.499314e-01    2.755736e-01
    6.031007e+00    1.472114e+01    1.213629e+01    9.676633e+09    1.203848e-09    2.266617e-11    9.380280e-10    1.067946e-10   -1.140000e+00    8.499314e-01    2.684494e-01
    6.226344e+00    1.503016e+01    1.141493e+01    9.422374e+09    1.200510e-09    2.264103e-11    9.334455e-10    1.063993e-10   -1.130000e+00    8.499314e-01    2.613059e-01
    6.431783e+00    1.533967e+01    1.071495e+01    9.163302e+09    1.196987e-09    2.260466e-11    9.286155e-10    1.059807e-10   -1.120000e+00    8.499314e-01    2.541451e-01
    6.647919e+00    1.564922e+01    1.003672e+01    8.899385e+09    1.193267e-09    2.255689e-11    9.235250e-10    1.055372e-10   -1.110000e+00    8.499314e-01    2.469697e-01
    6.875376e+00    1.595833e+01    9.380600e+00    8.630607e+09    1.189339e-09    2.249756e-11    9.181595e-10    1.050672e-10   -1.100000e+00    8.499314e-01    2.397825e-01
    7.114782e+00    1.626646e+01    8.746930e+00    8.356956e+09    1.185193e-09    2.242646e-11    9.125035e-10    1.045689e-10   -1.090000e+00    8.499314e-01    2.325871e-01
    7.366754e+00    1.657300e+01    8.136060e+00    8.078439e+09    1.180818e-09    2.234338e-11    9.065415e-10    1.040406e-10   -1.080000e+00    8.499314e-01    2.253874e-01
    7.631894e+00    1.687730e+01    7.548310e+00    7.795088e+09    1.176200e-09    2.224807e-11    9.002585e-10    1.034802e-10   -1.070000e+00    8.499314e-01    2.181881e-01
    7.910769e+00    1.717864e+01    6.984005e+00    7.506970e+09    1.171329e-09    2.214029e-11    8.936380e-10    1.028859e-10   -1.060000e+00    8.499314e-01    2.109945e-01
    8.203891e+00    1.747622e+01    6.443430e+00    7.214182e+09    1.166192e-09    2.201977e-11    8.866645e-10    1.022556e-10   -1.050000e+00    8.499314e-01    2.038130e-01
    8.511684e+00    1.776921e+01    5.926865e+00    6.916903e+09    1.160778e-09    2.188623e-11    8.793215e-10    1.015874e-10   -1.040000e+00    8.499314e-01    1.966504e-01
    8.834451e+00    1.805667e+01    5.434555e+00    6.615363e+09    1.155075e-09    2.173940e-11    8.715935e-10    1.008791e-10   -1.030000e+00    8.499314e-01    1.895148e-01
    9.172350e+00    1.833763e+01    4.966703e+00    6.309894e+09    1.149071e-09    2.157899e-11    8.634635e-10    1.001288e-10   -1.020000e+00    8.499314e-01    1.824152e-01
    9.525322e+00    1.861103e+01    4.523474e+00    6.000930e+09    1.142756e-09    2.140474e-11    8.549175e-10    9.933425e-11   -1.010000e+00    8.499314e-01    1.753619e-01
    9.893058e+00    1.887578e+01    4.104979e+00    5.689026e+09    1.136119e-09    2.121638e-11    8.459395e-10    9.849360e-11   -1.000000e+00    8.499314e-01    1.683662e-01
    1.027493e+01    1.913071e+01    3.711262e+00    5.374890e+09    1.129149e-09    2.101366e-11    8.365155e-10    9.760475e-11   -9.900000e-01    8.499314e-01    1.614406e-01
    1.066996e+01    1.937462e+01    3.342296e+00    5.059382e+09    1.121838e-09    2.079634e-11    8.266330e-10    9.666575e-11   -9.800000e-01    8.499314e-01    1.545991e-01
    1.107669e+01    1.960630e+01    2.997965e+00    4.743536e+09    1.114178e-09    2.056424e-11    8.162795e-10    9.567480e-11   -9.700000e-01    8.499314e-01    1.478567e-01
    1.149322e+01    1.982450e+01    2.678057e+00    4.428564e+09    1.106161e-09    2.031719e-11    8.054445e-10    9.463015e-11   -9.600000e-01    8.499314e-01    1.412297e-01
    1.191707e+01    2.002801e+01    2.382249e+00    4.115854e+09    1.097783e-09    2.005506e-11    7.941190e-10    9.353020e-11   -9.500000e-01    8.499314e-01    1.347352e-01
    1.234522e+01    2.021564e+01    2.110101e+00    3.806961e+09    1.089040e-09    1.977778e-11    7.822970e-10    9.237355e-11   -9.400000e-01    8.499314e-01    1.283915e-01
    1.277407e+01    2.038625e+01    1.861045e+00    3.503576e+09    1.079928e-09    1.948535e-11    7.699730e-10    9.115900e-11   -9.300000e-01    8.499314e-01    1.222171e-01
    1.319949e+01    2.053882e+01    1.634384e+00    3.207493e+09    1.070448e-09    1.917781e-11    7.571455e-10    8.988555e-11   -9.200000e-01    8.499314e-01    1.162311e-01
    1.361689e+01    2.067247e+01    1.429286e+00    2.920550e+09    1.060603e-09    1.885528e-11    7.438150e-10    8.855260e-11   -9.100000e-01    8.499314e-01    1.104520e-01
    1.402136e+01    2.078645e+01    1.244795e+00    2.644571e+09    1.050396e-09    1.851797e-11    7.299855e-10    8.715970e-11   -9.000000e-01    8.499314e-01    1.048981e-01
    1.440783e+01    2.088028e+01    1.079835e+00    2.381289e+09    1.039833e-09    1.816616e-11    7.156640e-10    8.570690e-11   -8.900000e-01    8.499314e-01    9.958618e-02
    1.477132e+01    2.095370e+01    9.332250e-01    2.132265e+09    1.028927e-09    1.780022e-11    7.008615e-10    8.419440e-11   -8.800000e-01    8.499314e-01    9.453146e-02
    1.510720e+01    2.100672e+01    8.037020e-01    1.898822e+09    1.017689e-09    1.742065e-11    6.855910e-10    8.262310e-11   -8.700000e-01    8.499314e-01    8.974692e-02
    1.541144e+01    2.103972e+01    6.899420e-01    1.681979e+09    1.006133e-09    1.702798e-11    6.698720e-10    8.099405e-11   -8.600000e-01    8.499314e-01    8.524284e-02
    1.568093e+01    2.105344e+01    5.905865e-01    1.482406e+09    9.942790e-10    1.662292e-11    6.537255e-10    7.930885e-11   -8.500000e-01    8.499314e-01    8.102644e-02
    1.591367e+01    2.104894e+01    5.042700e-01    1.300400e+09    9.821475e-10    1.620622e-11    6.371780e-10    7.756965e-11   -8.400000e-01    8.499314e-01    7.710162e-02
    1.610896e+01    2.102769e+01    4.296485e-01    1.135887e+09    9.697630e-10    1.577874e-11    6.202585e-10    7.577895e-11   -8.300000e-01    8.499314e-01    7.346883e-02
    1.626744e+01    2.099148e+01    3.654229e-01    9.884478e+08    9.571530e-10    1.534148e-11    6.030010e-10    7.393970e-11   -8.200000e-01    8.499314e-01    7.012512e-02
    1.639115e+01    2.094246e+01    3.103605e-01    8.573627e+08    9.443465e-10    1.489547e-11    5.854425e-10    7.205535e-11   -8.100000e-01    8.499314e-01    6.706434e-02
    1.648333e+01    2.088303e+01    2.633115e-01    7.416686e+08    9.313755e-10    1.444185e-11    5.676230e-10    7.012985e-11   -8.000000e-01    8.499314e-01    6.427740e-02
    1.654828e+01    2.081579e+01    2.232202e-01    6.402268e+08    9.182745e-10    1.398185e-11    5.495860e-10    6.816740e-11   -7.900000e-01    8.499314e-01    6.175273e-02
    1.659109e+01    2.074344e+01    1.891321e-01    5.517897e+08    9.050795e-10    1.351674e-11    5.313770e-10    6.617275e-11   -7.800000e-01    8.499314e-01    5.947673e-02
    1.661739e+01    2.066876e+01    1.601951e-01    4.750626e+08    8.918280e-10    1.304785e-11    5.130445e-10    6.415090e-11   -7.700000e-01    8.499314e-01    5.743427e-02
    1.663304e+01    2.059443e+01    1.356575e-01    4.087565e+08    8.785590e-10    1.257655e-11    4.946381e-10    6.210710e-11   -7.600000e-01    8.499314e-01    5.560925e-02
    1.664393e+01    2.052305e+01    1.148638e-01    3.516307e+08    8.653110e-10    1.210423e-11    4.762084e-10    6.004690e-11   -7.500000e-01    8.499314e-01    5.398502e-02
    1.665572e+01    2.045698e+01    9.724680e-02    3.025212e+08    8.521245e-10    1.163229e-11    4.578067e-10    5.797605e-11   -7.400000e-01    8.499314e-01    5.254481e-02
    1.667379e+01    2.039839e+01    8.231980e-02    2.603619e+08    8.390375e-10    1.116212e-11    4.394841e-10    5.590030e-11   -7.300000e-01    8.499314e-01    5.127214e-02
    1.670306e+01    2.034914e+01    6.966785e-02    2.241926e+08    8.260900e-10    1.069510e-11    4.212915e-10    5.382555e-11   -7.200000e-01    8.499314e-01    5.015106e-02
