# sky130 pfet_01v8 gm/ID Processed Lookup Table
# Corner: sf
# Temperature: 85C
# W = 2.0 um
# L = 3 um (3000 nm)
# Columns: gm/id [1/V]  gm/gds [V/V]  id/W [A/m]  ft [Hz]  Cgg/W [F/m]  Cgd/W [F/m]  Cgs/W [F/m]  Cdb/W [F/m]  vgs [V]  vth [V]  vdsat [V]
# vdsat = BSIM4 saturation voltage (|VDS|_sat, positive); use for headroom / saturation / cascode-bias calculations
#           gm/id          gm/gds            id/W              ft           Cgg/W           Cgd/W           Cgs/W           Cdb/W             vgs             vth           vdsat
    1.893691e+00    3.671618e+00    5.420005e+00    9.418702e+07    1.734355e-08    1.778951e-09    1.570665e-08    1.864946e-09   -1.800000e+00    9.607025e-01    7.100309e-01
    1.930560e+00    3.886699e+00    5.317370e+00    9.456831e+07    1.727646e-08    1.686105e-09    1.571253e-08    1.851578e-09   -1.790000e+00    9.607025e-01    7.020343e-01
    1.968475e+00    4.123795e+00    5.214705e+00    9.492653e+07    1.721044e-08    1.595843e-09    1.571701e-08    1.838442e-09   -1.780000e+00    9.607025e-01    6.940415e-01
    2.007431e+00    4.385828e+00    5.112065e+00    9.525856e+07    1.714562e-08    1.508329e-09    1.572008e-08    1.825561e-09   -1.770000e+00    9.607025e-01    6.860523e-01
    2.047432e+00    4.676137e+00    5.009470e+00    9.556094e+07    1.708209e-08    1.423707e-09    1.572169e-08    1.812952e-09   -1.760000e+00    9.607025e-01    6.780667e-01
    2.088471e+00    4.998529e+00    4.906944e+00    9.583009e+07    1.701993e-08    1.342099e-09    1.572184e-08    1.800632e-09   -1.750000e+00    9.607025e-01    6.700846e-01
    2.130534e+00    5.357344e+00    4.804520e+00    9.606223e+07    1.695922e-08    1.263605e-09    1.572050e-08    1.788617e-09   -1.740000e+00    9.607025e-01    6.621061e-01
    2.173603e+00    5.757501e+00    4.702232e+00    9.625358e+07    1.690003e-08    1.188301e-09    1.571769e-08    1.776919e-09   -1.730000e+00    9.607025e-01    6.541310e-01
    2.217648e+00    6.204552e+00    4.600117e+00    9.640022e+07    1.684238e-08    1.116241e-09    1.571339e-08    1.765550e-09   -1.720000e+00    9.607025e-01    6.461594e-01
    2.262637e+00    6.704731e+00    4.498217e+00    9.649838e+07    1.678632e-08    1.047454e-09    1.570760e-08    1.754516e-09   -1.710000e+00    9.607025e-01    6.381913e-01
    2.308531e+00    7.264987e+00    4.396576e+00    9.654424e+07    1.673185e-08    9.819455e-10    1.570034e-08    1.743825e-09   -1.700000e+00    9.607025e-01    6.302264e-01
    2.355286e+00    7.893018e+00    4.295241e+00    9.653436e+07    1.667898e-08    9.197030e-10    1.569164e-08    1.733478e-09   -1.690000e+00    9.607025e-01    6.222650e-01
    2.402858e+00    8.597260e+00    4.194263e+00    9.646562e+07    1.662767e-08    8.606915e-10    1.568149e-08    1.723476e-09   -1.680000e+00    9.607025e-01    6.143069e-01
    2.451205e+00    9.386888e+00    4.093695e+00    9.633524e+07    1.657792e-08    8.048590e-10    1.566992e-08    1.713818e-09   -1.670000e+00    9.607025e-01    6.063520e-01
    2.500285e+00    1.027176e+01    3.993592e+00    9.614113e+07    1.652967e-08    7.521370e-10    1.565697e-08    1.704499e-09   -1.660000e+00    9.607025e-01    5.984004e-01
    2.550068e+00    1.126237e+01    3.894012e+00    9.588180e+07    1.648287e-08    7.024435e-10    1.564264e-08    1.695515e-09   -1.650000e+00    9.607025e-01    5.904520e-01
    2.600528e+00    1.236973e+01    3.795012e+00    9.555639e+07    1.643748e-08    6.556840e-10    1.562697e-08    1.686856e-09   -1.640000e+00    9.607025e-01    5.825068e-01
    2.651655e+00    1.360529e+01    3.696651e+00    9.516485e+07    1.639340e-08    6.117555e-10    1.560997e-08    1.678513e-09   -1.630000e+00    9.607025e-01    5.745648e-01
    2.703449e+00    1.498077e+01    3.598986e+00    9.470782e+07    1.635056e-08    5.705465e-10    1.559167e-08    1.670475e-09   -1.620000e+00    9.607025e-01    5.666260e-01
    2.755930e+00    1.650808e+01    3.502076e+00    9.418669e+07    1.630889e-08    5.319405e-10    1.557208e-08    1.662730e-09   -1.610000e+00    9.607025e-01    5.586902e-01
    2.809130e+00    1.819911e+01    3.405975e+00    9.360345e+07    1.626828e-08    4.958165e-10    1.555123e-08    1.655265e-09   -1.600000e+00    9.607025e-01    5.507576e-01
    2.863092e+00    2.006562e+01    3.310737e+00    9.296038e+07    1.622864e-08    4.620522e-10    1.552912e-08    1.648064e-09   -1.590000e+00    9.607025e-01    5.428281e-01
    2.917881e+00    2.211919e+01    3.216413e+00    9.226043e+07    1.618990e-08    4.305242e-10    1.550577e-08    1.641114e-09   -1.580000e+00    9.607025e-01    5.349016e-01
    2.973572e+00    2.437107e+01    3.123050e+00    9.150678e+07    1.615193e-08    4.011098e-10    1.548119e-08    1.634399e-09   -1.570000e+00    9.607025e-01    5.269783e-01
    3.030248e+00    2.683208e+01    3.030695e+00    9.070264e+07    1.611463e-08    3.736882e-10    1.545536e-08    1.627903e-09   -1.560000e+00    9.607025e-01    5.190580e-01
    3.088005e+00    2.951266e+01    2.939389e+00    8.985144e+07    1.607793e-08    3.481412e-10    1.542831e-08    1.621609e-09   -1.550000e+00    9.607025e-01    5.111408e-01
    3.146948e+00    3.242281e+01    2.849171e+00    8.895655e+07    1.604169e-08    3.243540e-10    1.540002e-08    1.615500e-09   -1.540000e+00    9.607025e-01    5.032267e-01
    3.207187e+00    3.557212e+01    2.760076e+00    8.802120e+07    1.600583e-08    3.022157e-10    1.537047e-08    1.609561e-09   -1.530000e+00    9.607025e-01    4.953156e-01
    3.268843e+00    3.896985e+01    2.672140e+00    8.704860e+07    1.597025e-08    2.816199e-10    1.533964e-08    1.603775e-09   -1.520000e+00    9.607025e-01    4.874077e-01
    3.332039e+00    4.262493e+01    2.585390e+00    8.604167e+07    1.593483e-08    2.624651e-10    1.530754e-08    1.598125e-09   -1.510000e+00    9.607025e-01    4.795030e-01
    3.396904e+00    4.654612e+01    2.499856e+00    8.500320e+07    1.589948e-08    2.446546e-10    1.527412e-08    1.592596e-09   -1.500000e+00    9.607025e-01    4.716015e-01
    3.463570e+00    5.074204e+01    2.415563e+00    8.393572e+07    1.586411e-08    2.280965e-10    1.523935e-08    1.587170e-09   -1.490000e+00    9.607025e-01    4.637032e-01
    3.532178e+00    5.522134e+01    2.332534e+00    8.284157e+07    1.582860e-08    2.127045e-10    1.520321e-08    1.581831e-09   -1.480000e+00    9.607025e-01    4.558083e-01
    3.602873e+00    5.999279e+01    2.250791e+00    8.172290e+07    1.579285e-08    1.983970e-10    1.516564e-08    1.576564e-09   -1.470000e+00    9.607025e-01    4.479167e-01
    3.675806e+00    6.506533e+01    2.170354e+00    8.058161e+07    1.575678e-08    1.850973e-10    1.512661e-08    1.571352e-09   -1.460000e+00    9.607025e-01    4.400287e-01
    3.751129e+00    7.044825e+01    2.091241e+00    7.941933e+07    1.572027e-08    1.727339e-10    1.508607e-08    1.566180e-09   -1.450000e+00    9.607025e-01    4.321443e-01
    3.829009e+00    7.615139e+01    2.013469e+00    7.823767e+07    1.568323e-08    1.612395e-10    1.504395e-08    1.561031e-09   -1.440000e+00    9.607025e-01    4.242637e-01
    3.909612e+00    8.218496e+01    1.937054e+00    7.703790e+07    1.564556e-08    1.505517e-10    1.500021e-08    1.555892e-09   -1.430000e+00    9.607025e-01    4.163871e-01
    3.993118e+00    8.855998e+01    1.862011e+00    7.582120e+07    1.560716e-08    1.406120e-10    1.495476e-08    1.550746e-09   -1.420000e+00    9.607025e-01    4.085146e-01
    4.079715e+00    9.528821e+01    1.788354e+00    7.458862e+07    1.556793e-08    1.313662e-10    1.490755e-08    1.545577e-09   -1.410000e+00    9.607025e-01    4.006465e-01
    4.169595e+00    1.023821e+02    1.716096e+00    7.334096e+07    1.552776e-08    1.227636e-10    1.485850e-08    1.540369e-09   -1.400000e+00    9.607025e-01    3.927831e-01
    4.262967e+00    1.098554e+02    1.645250e+00    7.207901e+07    1.548656e-08    1.147578e-10    1.480753e-08    1.535109e-09   -1.390000e+00    9.607025e-01    3.849247e-01
    4.360050e+00    1.177225e+02    1.575827e+00    7.080339e+07    1.544423e-08    1.073049e-10    1.475454e-08    1.529781e-09   -1.380000e+00    9.607025e-01    3.770716e-01
    4.461070e+00    1.259990e+02    1.507840e+00    6.951452e+07    1.540064e-08    1.003648e-10    1.469946e-08    1.524367e-09   -1.370000e+00    9.607025e-01    3.692244e-01
    4.566273e+00    1.347018e+02    1.441299e+00    6.821283e+07    1.535572e-08    9.390020e-11    1.464218e-08    1.518854e-09   -1.360000e+00    9.607025e-01    3.613835e-01
    4.675908e+00    1.438487e+02    1.376216e+00    6.689850e+07    1.530933e-08    8.787655e-11    1.458260e-08    1.513224e-09   -1.350000e+00    9.607025e-01    3.535495e-01
    4.790251e+00    1.534593e+02    1.312602e+00    6.557181e+07    1.526139e-08    8.226185e-11    1.452062e-08    1.507463e-09   -1.340000e+00    9.607025e-01    3.457230e-01
    4.909586e+00    1.635541e+02    1.250466e+00    6.423282e+07    1.521178e-08    7.702655e-11    1.445613e-08    1.501553e-09   -1.330000e+00    9.607025e-01    3.379049e-01
    5.034213e+00    1.741549e+02    1.189820e+00    6.288152e+07    1.516037e-08    7.214330e-11    1.438900e-08    1.495479e-09   -1.320000e+00    9.607025e-01    3.300959e-01
    5.164446e+00    1.852849e+02    1.130673e+00    6.151778e+07    1.510707e-08    6.758675e-11    1.431914e-08    1.489222e-09   -1.310000e+00    9.607025e-01    3.222972e-01
    5.300619e+00    1.969687e+02    1.073037e+00    6.014148e+07    1.505176e-08    6.333355e-11    1.424639e-08    1.482769e-09   -1.300000e+00    9.607025e-01    3.145098e-01
    5.443075e+00    2.092319e+02    1.016922e+00    5.875233e+07    1.499432e-08    5.936210e-11    1.417064e-08    1.476100e-09   -1.290000e+00    9.607025e-01    3.067352e-01
    5.592178e+00    2.221012e+02    9.623370e-01    5.735004e+07    1.493464e-08    5.565235e-11    1.409176e-08    1.469198e-09   -1.280000e+00    9.607025e-01    2.989747e-01
    5.748309e+00    2.356045e+02    9.092935e-01    5.593427e+07    1.487258e-08    5.218585e-11    1.400961e-08    1.462046e-09   -1.270000e+00    9.607025e-01    2.912302e-01
    5.911856e+00    2.497704e+02    8.578025e-01    5.450465e+07    1.480805e-08    4.894545e-11    1.392405e-08    1.454625e-09   -1.260000e+00    9.607025e-01    2.835035e-01
    6.083222e+00    2.646277e+02    8.078730e-01    5.306069e+07    1.474090e-08    4.591538e-11    1.383493e-08    1.446918e-09   -1.250000e+00    9.607025e-01    2.757969e-01
    6.262811e+00    2.802053e+02    7.595165e-01    5.160194e+07    1.467103e-08    4.308100e-11    1.374212e-08    1.438906e-09   -1.240000e+00    9.607025e-01    2.681129e-01
    6.451044e+00    2.965320e+02    7.127425e-01    5.012796e+07    1.459832e-08    4.042876e-11    1.364546e-08    1.430571e-09   -1.230000e+00    9.607025e-01    2.604543e-01
    6.648335e+00    3.136353e+02    6.675610e-01    4.863833e+07    1.452263e-08    3.794613e-11    1.354482e-08    1.421893e-09   -1.220000e+00    9.607025e-01    2.528244e-01
    6.855090e+00    3.315411e+02    6.239820e-01    4.713267e+07    1.444386e-08    3.562150e-11    1.344004e-08    1.412854e-09   -1.210000e+00    9.607025e-01    2.452268e-01
    7.071698e+00    3.502725e+02    5.820150e-01    4.561067e+07    1.436189e-08    3.344414e-11    1.333097e-08    1.403435e-09   -1.200000e+00    9.607025e-01    2.376655e-01
    7.298541e+00    3.698490e+02    5.416680e-01    4.407218e+07    1.427660e-08    3.140408e-11    1.321748e-08    1.393618e-09   -1.190000e+00    9.607025e-01    2.301451e-01
    7.535944e+00    3.902847e+02    5.029495e-01    4.251717e+07    1.418789e-08    2.949210e-11    1.309943e-08    1.383384e-09   -1.180000e+00    9.607025e-01    2.226706e-01
    7.784197e+00    4.115877e+02    4.658662e-01    4.094588e+07    1.409565e-08    2.769964e-11    1.297667e-08    1.372714e-09   -1.170000e+00    9.607025e-01    2.152478e-01
    8.043524e+00    4.337573e+02    4.304234e-01    3.935878e+07    1.399977e-08    2.601876e-11    1.284909e-08    1.361591e-09   -1.160000e+00    9.607025e-01    2.078830e-01
    8.314068e+00    4.567825e+02    3.966248e-01    3.775668e+07    1.390016e-08    2.444212e-11    1.271654e-08    1.349997e-09   -1.150000e+00    9.607025e-01    2.005830e-01
    8.595864e+00    4.806408e+02    3.644722e-01    3.614078e+07    1.379674e-08    2.296286e-11    1.257892e-08    1.337914e-09   -1.140000e+00    9.607025e-01    1.933555e-01
    8.888825e+00    5.052940e+02    3.339650e-01    3.451277e+07    1.368944e-08    2.157463e-11    1.243612e-08    1.325328e-09   -1.130000e+00    9.607025e-01    1.862089e-01
    9.192712e+00    5.306873e+02    3.050994e-01    3.287482e+07    1.357819e-08    2.027155e-11    1.228805e-08    1.312223e-09   -1.120000e+00    9.607025e-01    1.791521e-01
    9.507112e+00    5.567466e+02    2.778682e-01    3.122975e+07    1.346292e-08    1.904813e-11    1.213464e-08    1.298584e-09   -1.110000e+00    9.607025e-01    1.721950e-01
    9.831410e+00    5.833764e+02    2.522605e-01    2.958097e+07    1.334360e-08    1.789926e-11    1.197580e-08    1.284400e-09   -1.100000e+00    9.607025e-01    1.653480e-01
    1.016477e+01    6.104576e+02    2.282608e-01    2.793256e+07    1.322020e-08    1.682022e-11    1.181151e-08    1.269658e-09   -1.090000e+00    9.607025e-01    1.586223e-01
    1.050611e+01    6.378473e+02    2.058485e-01    2.628935e+07    1.309272e-08    1.580656e-11    1.164173e-08    1.254349e-09   -1.080000e+00    9.607025e-01    1.520297e-01
    1.085408e+01    6.653769e+02    1.849979e-01    2.465678e+07    1.296115e-08    1.485419e-11    1.146646e-08    1.238467e-09   -1.070000e+00    9.607025e-01    1.455821e-01
    1.120708e+01    6.928548e+02    1.656773e-01    2.304095e+07    1.282553e-08    1.395927e-11    1.128572e-08    1.222004e-09   -1.060000e+00    9.607025e-01    1.392923e-01
    1.156325e+01    7.200670e+02    1.478491e-01    2.144851e+07    1.268590e-08    1.311821e-11    1.109954e-08    1.204959e-09   -1.050000e+00    9.607025e-01    1.331730e-01
    1.192047e+01    7.467825e+02    1.314693e-01    1.988656e+07    1.254234e-08    1.232770e-11    1.090801e-08    1.187329e-09   -1.040000e+00    9.607025e-01    1.272368e-01
    1.227646e+01    7.727578e+02    1.164878e-01    1.836242e+07    1.239492e-08    1.158461e-11    1.071120e-08    1.169119e-09   -1.030000e+00    9.607025e-01    1.214963e-01
    1.262874e+01    7.977452e+02    1.028485e-01    1.688351e+07    1.224377e-08    1.088603e-11    1.050928e-08    1.150332e-09   -1.020000e+00    9.607025e-01    1.159634e-01
    1.297479e+01    8.215021e+02    9.048940e-02    1.545706e+07    1.208902e-08    1.022926e-11    1.030237e-08    1.130976e-09   -1.010000e+00    9.607025e-01    1.106494e-01
    1.331212e+01    8.438021e+02    7.934375e-02    1.408993e+07    1.193085e-08    9.611750e-12    1.009068e-08    1.111063e-09   -1.000000e+00    9.607025e-01    1.055645e-01
    1.363834e+01    8.644453e+02    6.934040e-02    1.278829e+07    1.176943e-08    9.031130e-12    9.874425e-09    1.090609e-09   -9.900000e-01    9.607025e-01    1.007177e-01
    1.395136e+01    8.832710e+02    6.040470e-02    1.155747e+07    1.160498e-08    8.485175e-12    9.653865e-09    1.069629e-09   -9.800000e-01    9.607025e-01    9.611620e-02
    1.424939e+01    9.001670e+02    5.245995e-02    1.040170e+07    1.143774e-08    7.971805e-12    9.429280e-09    1.048147e-09   -9.700000e-01    9.607025e-01    9.176583e-02
    1.453120e+01    9.150808e+02    4.542822e-02    9.323982e+06    1.126798e-08    7.489070e-12    9.200995e-09    1.026186e-09   -9.600000e-01    9.607025e-01    8.767028e-02
    1.479609e+01    9.280212e+02    3.923162e-02    8.326031e+06    1.109597e-08    7.035145e-12    8.969355e-09    1.003775e-09   -9.500000e-01    9.607025e-01    8.383131e-02
    1.504407e+01    9.390659e+02    3.379349e-02    7.408240e+06    1.092203e-08    6.608310e-12    8.734730e-09    9.809465e-10   -9.400000e-01    9.607025e-01    8.024861e-02
    1.527582e+01    9.483548e+02    2.903947e-02    6.569720e+06    1.074648e-08    6.206965e-12    8.497530e-09    9.577350e-10   -9.300000e-01    9.607025e-01    7.691984e-02
    1.549276e+01    9.560901e+02    2.489834e-02    5.808410e+06    1.056969e-08    5.829595e-12    8.258185e-09    9.341775e-10   -9.200000e-01    9.607025e-01    7.384072e-02
    1.569696e+01    9.625234e+02    2.130289e-02    5.121247e+06    1.039198e-08    5.474785e-12    8.017130e-09    9.103155e-10   -9.100000e-01    9.607025e-01    7.100520e-02
    1.589108e+01    9.679465e+02    1.819043e-02    4.504333e+06    1.021377e-08    5.141205e-12    7.774845e-09    8.861920e-10   -9.000000e-01    9.607025e-01    6.840557e-02
    1.607825e+01    9.726766e+02    1.550318e-02    3.953161e+06    1.003541e-08    4.827606e-12    7.531800e-09    8.618525e-10   -8.900000e-01    9.607025e-01    6.603276e-02
    1.626196e+01    9.770427e+02    1.318846e-02    3.462811e+06    9.857305e-09    4.532807e-12    7.288490e-09    8.373445e-10   -8.800000e-01    9.607025e-01    6.387656e-02
    1.644580e+01    9.813712e+02    1.119878e-02    3.028149e+06    9.679855e-09    4.255702e-12    7.045410e-09    8.127165e-10   -8.700000e-01    9.607025e-01    6.192585e-02
    1.663341e+01    9.859722e+02    9.491660e-03    2.644006e+06    9.503450e-09    3.995251e-12    6.803055e-09    7.880180e-10   -8.600000e-01    9.607025e-01    6.016886e-02
    1.682820e+01    9.911289e+02    8.029425e-03    2.305318e+06    9.328490e-09    3.750475e-12    6.561930e-09    7.633005e-10   -8.500000e-01    9.607025e-01    5.859341e-02
    1.703322e+01    9.970847e+02    6.778905e-03    2.007249e+06    9.155355e-09    3.520449e-12    6.322520e-09    7.386140e-10   -8.400000e-01    9.607025e-01    5.718708e-02
    1.725108e+01    1.004041e+03    5.711065e-03    1.745274e+06    8.984420e-09    3.304306e-12    6.085305e-09    7.140095e-10   -8.300000e-01    9.607025e-01    5.593746e-02
    1.748374e+01    1.012148e+03    4.800617e-03    1.515225e+06    8.816060e-09    3.101228e-12    5.850745e-09    6.895370e-10   -8.200000e-01    9.607025e-01    5.483224e-02
    1.773248e+01    1.021502e+03    4.025614e-03    1.313332e+06    8.650615e-09    2.910443e-12    5.619290e-09    6.652450e-10   -8.100000e-01    9.607025e-01    5.385938e-02
    1.799783e+01    1.032147e+03    3.367059e-03    1.136224e+06    8.488420e-09    2.731227e-12    5.391360e-09    6.411810e-10   -8.000000e-01    9.607025e-01    5.300718e-02
    1.827960e+01    1.044077e+03    2.808543e-03    9.809213e+05    8.329785e-09    2.562894e-12    5.167360e-09    6.173910e-10   -7.900000e-01    9.607025e-01    5.226439e-02
    1.857685e+01    1.057235e+03    2.335896e-03    8.448087e+05    8.174995e-09    2.404799e-12    4.947648e-09    5.939185e-10   -7.800000e-01    9.607025e-01    5.162027e-02
    1.888795e+01    1.071521e+03    1.936888e-03    7.256076e+05    8.024310e-09    2.256335e-12    4.732571e-09    5.708035e-10   -7.700000e-01    9.607025e-01    5.106463e-02
    1.921071e+01    1.086798e+03    1.600951e-03    6.213367e+05    7.877975e-09    2.116930e-12    4.522433e-09    5.480850e-10   -7.600000e-01    9.607025e-01    5.058785e-02
    1.954244e+01    1.102901e+03    1.318953e-03    5.302746e+05    7.736195e-09    1.986044e-12    4.317511e-09    5.257980e-10   -7.500000e-01    9.607025e-01    5.018095e-02
    1.988010e+01    1.119642e+03    1.082994e-03    4.509200e+05    7.599155e-09    1.863167e-12    4.118043e-09    5.039740e-10   -7.400000e-01    9.607025e-01    4.983558e-02
    2.022046e+01    1.136821e+03    8.862355e-04    3.819560e+05    7.467015e-09    1.747822e-12    3.924234e-09    4.826428e-10   -7.300000e-01    9.607025e-01    4.954403e-02
    2.056019e+01    1.154233e+03    7.227600e-04    3.222193e+05    7.339895e-09    1.639558e-12    3.736254e-09    4.618293e-10   -7.200000e-01    9.607025e-01    4.929925e-02
