# sky130 pfet_01v8 gm/ID Processed Lookup Table
# Corner: sf
# Temperature: 85C
# W = 2.0 um
# L = 6 um (6000 nm)
# Columns: gm/id [1/V]  gm/gds [V/V]  id/W [A/m]  ft [Hz]  Cgg/W [F/m]  Cgd/W [F/m]  Cgs/W [F/m]  Cdb/W [F/m]  vgs [V]  vth [V]  vdsat [V]
# vdsat = BSIM4 saturation voltage (|VDS|_sat, positive); use for headroom / saturation / cascode-bias calculations
#           gm/id          gm/gds            id/W              ft           Cgg/W           Cgd/W           Cgs/W           Cdb/W             vgs             vth           vdsat
    1.949831e+00    4.143473e+00    2.708814e+00    2.446684e+07    3.435726e-08    3.800986e-09    3.123085e-08    3.657118e-09   -1.800000e+00    9.653441e-01    7.054297e-01
    1.987611e+00    4.410253e+00    2.655997e+00    2.455683e+07    3.421424e-08    3.605679e-09    3.124253e-08    3.629045e-09   -1.790000e+00    9.653441e-01    6.973857e-01
    2.026394e+00    4.706847e+00    2.603237e+00    2.464029e+07    3.407313e-08    3.415207e-09    3.125152e-08    3.601397e-09   -1.780000e+00    9.653441e-01    6.893460e-01
    2.066206e+00    5.037568e+00    2.550511e+00    2.471628e+07    3.393421e-08    3.229971e-09    3.125771e-08    3.574221e-09   -1.770000e+00    9.653441e-01    6.813107e-01
    2.107027e+00    5.407408e+00    2.497845e+00    2.478383e+07    3.379770e-08    3.050334e-09    3.126103e-08    3.547566e-09   -1.760000e+00    9.653441e-01    6.732796e-01
    2.148839e+00    5.822152e+00    2.445256e+00    2.484188e+07    3.366385e-08    2.876615e-09    3.126145e-08    3.521474e-09   -1.750000e+00    9.653441e-01    6.652528e-01
    2.191614e+00    6.288472e+00    2.392761e+00    2.488933e+07    3.353285e-08    2.709090e-09    3.125890e-08    3.495983e-09   -1.740000e+00    9.653441e-01    6.572303e-01
    2.235323e+00    6.814076e+00    2.340382e+00    2.492513e+07    3.340487e-08    2.547986e-09    3.125337e-08    3.471130e-09   -1.730000e+00    9.653441e-01    6.492121e-01
    2.279925e+00    7.407812e+00    2.288139e+00    2.494820e+07    3.328004e-08    2.393477e-09    3.124483e-08    3.446943e-09   -1.720000e+00    9.653441e-01    6.411981e-01
    2.325377e+00    8.079812e+00    2.236055e+00    2.495752e+07    3.315847e-08    2.245688e-09    3.123329e-08    3.423448e-09   -1.710000e+00    9.653441e-01    6.331884e-01
    2.371628e+00    8.841582e+00    2.184154e+00    2.495210e+07    3.304022e-08    2.104691e-09    3.121876e-08    3.400662e-09   -1.700000e+00    9.653441e-01    6.251829e-01
    2.418630e+00    9.706169e+00    2.132464e+00    2.493109e+07    3.292532e-08    1.970510e-09    3.120126e-08    3.378600e-09   -1.690000e+00    9.653441e-01    6.171816e-01
    2.466335e+00    1.068824e+01    2.081011e+00    2.489375e+07    3.281378e-08    1.843123e-09    3.118081e-08    3.357267e-09   -1.680000e+00    9.653441e-01    6.091846e-01
    2.514699e+00    1.180416e+01    2.029824e+00    2.483950e+07    3.270556e-08    1.722462e-09    3.115745e-08    3.336667e-09   -1.670000e+00    9.653441e-01    6.011918e-01
    2.563685e+00    1.307204e+01    1.978932e+00    2.476796e+07    3.260060e-08    1.608421e-09    3.113122e-08    3.316796e-09   -1.660000e+00    9.653441e-01    5.932032e-01
    2.613266e+00    1.451178e+01    1.928367e+00    2.467890e+07    3.249882e-08    1.500857e-09    3.110216e-08    3.297644e-09   -1.650000e+00    9.653441e-01    5.852189e-01
    2.663432e+00    1.614505e+01    1.878156e+00    2.457237e+07    3.240010e-08    1.399599e-09    3.107032e-08    3.279199e-09   -1.640000e+00    9.653441e-01    5.772387e-01
    2.714182e+00    1.799523e+01    1.828330e+00    2.444855e+07    3.230430e-08    1.304447e-09    3.103573e-08    3.261445e-09   -1.630000e+00    9.653441e-01    5.692628e-01
    2.765534e+00    2.008733e+01    1.778917e+00    2.430787e+07    3.221128e-08    1.215181e-09    3.099845e-08    3.244359e-09   -1.620000e+00    9.653441e-01    5.612911e-01
    2.817523e+00    2.244788e+01    1.729946e+00    2.415088e+07    3.212085e-08    1.131565e-09    3.095850e-08    3.227916e-09   -1.610000e+00    9.653441e-01    5.533236e-01
    2.870199e+00    2.510479e+01    1.681442e+00    2.397831e+07    3.203284e-08    1.053351e-09    3.091593e-08    3.212090e-09   -1.600000e+00    9.653441e-01    5.453603e-01
    2.923625e+00    2.808718e+01    1.633432e+00    2.379097e+07    3.194705e-08    9.802810e-10    3.087076e-08    3.196852e-09   -1.590000e+00    9.653441e-01    5.374013e-01
    2.977880e+00    3.142521e+01    1.585939e+00    2.358975e+07    3.186328e-08    9.120960e-10    3.082300e-08    3.182170e-09   -1.580000e+00    9.653441e-01    5.294466e-01
    3.033053e+00    3.514995e+01    1.538985e+00    2.337559e+07    3.178131e-08    8.485320e-10    3.077269e-08    3.168010e-09   -1.570000e+00    9.653441e-01    5.214962e-01
    3.089243e+00    3.929318e+01    1.492589e+00    2.314945e+07    3.170092e-08    7.893300e-10    3.071981e-08    3.154339e-09   -1.560000e+00    9.653441e-01    5.135500e-01
    3.146558e+00    4.388725e+01    1.446771e+00    2.291225e+07    3.162190e-08    7.342330e-10    3.066437e-08    3.141121e-09   -1.550000e+00    9.653441e-01    5.056082e-01
    3.205113e+00    4.896494e+01    1.401547e+00    2.266492e+07    3.154402e-08    6.829905e-10    3.060634e-08    3.128322e-09   -1.540000e+00    9.653441e-01    4.976708e-01
    3.265026e+00    5.455941e+01    1.356934e+00    2.240830e+07    3.146708e-08    6.353600e-10    3.054573e-08    3.115905e-09   -1.530000e+00    9.653441e-01    4.897378e-01
    3.326423e+00    6.070402e+01    1.312944e+00    2.214322e+07    3.139083e-08    5.911080e-10    3.048248e-08    3.103836e-09   -1.520000e+00    9.653441e-01    4.818093e-01
    3.389434e+00    6.743232e+01    1.269589e+00    2.187043e+07    3.131506e-08    5.500105e-10    3.041656e-08    3.092077e-09   -1.510000e+00    9.653441e-01    4.738853e-01
    3.454193e+00    7.477801e+01    1.226883e+00    2.159062e+07    3.123955e-08    5.118535e-10    3.034791e-08    3.080594e-09   -1.500000e+00    9.653441e-01    4.659660e-01
    3.520835e+00    8.277494e+01    1.184835e+00    2.130441e+07    3.116407e-08    4.764351e-10    3.027648e-08    3.069350e-09   -1.490000e+00    9.653441e-01    4.580513e-01
    3.589505e+00    9.145715e+01    1.143454e+00    2.101236e+07    3.108841e-08    4.435630e-10    3.020218e-08    3.058313e-09   -1.480000e+00    9.653441e-01    4.501415e-01
    3.660349e+00    1.008588e+02    1.102749e+00    2.071497e+07    3.101237e-08    4.130568e-10    3.012495e-08    3.047446e-09   -1.470000e+00    9.653441e-01    4.422366e-01
    3.733519e+00    1.110142e+02    1.062728e+00    2.041270e+07    3.093570e-08    3.847469e-10    3.004468e-08    3.036715e-09   -1.460000e+00    9.653441e-01    4.343368e-01
    3.809172e+00    1.219583e+02    1.023397e+00    2.010593e+07    3.085820e-08    3.584742e-10    2.996127e-08    3.026088e-09   -1.450000e+00    9.653441e-01    4.264422e-01
    3.887476e+00    1.337259e+02    9.847635e-01    1.979502e+07    3.077967e-08    3.340901e-10    2.987461e-08    3.015530e-09   -1.440000e+00    9.653441e-01    4.185530e-01
    3.968597e+00    1.463526e+02    9.468340e-01    1.948024e+07    3.069988e-08    3.114560e-10    2.978457e-08    3.005009e-09   -1.430000e+00    9.653441e-01    4.106694e-01
    4.052720e+00    1.598746e+02    9.096135e-01    1.916187e+07    3.061863e-08    2.904427e-10    2.969103e-08    2.994493e-09   -1.420000e+00    9.653441e-01    4.027917e-01
    4.140032e+00    1.743285e+02    8.731075e-01    1.884013e+07    3.053568e-08    2.709302e-10    2.959383e-08    2.983948e-09   -1.410000e+00    9.653441e-01    3.949202e-01
    4.230731e+00    1.897517e+02    8.373210e-01    1.851519e+07    3.045084e-08    2.528072e-10    2.949282e-08    2.973341e-09   -1.400000e+00    9.653441e-01    3.870552e-01
    4.325023e+00    2.061826e+02    8.022595e-01    1.818721e+07    3.036390e-08    2.359701e-10    2.938784e-08    2.962642e-09   -1.390000e+00    9.653441e-01    3.791971e-01
    4.423132e+00    2.236604e+02    7.679270e-01    1.785629e+07    3.027462e-08    2.203232e-10    2.927871e-08    2.951818e-09   -1.380000e+00    9.653441e-01    3.713462e-01
    4.525288e+00    2.422252e+02    7.343280e-01    1.752254e+07    3.018279e-08    2.057780e-10    2.916524e-08    2.940836e-09   -1.370000e+00    9.653441e-01    3.635032e-01
    4.631735e+00    2.619181e+02    7.014675e-01    1.718601e+07    3.008821e-08    1.922524e-10    2.904725e-08    2.929665e-09   -1.360000e+00    9.653441e-01    3.556686e-01
    4.742731e+00    2.827812e+02    6.693495e-01    1.684675e+07    2.999063e-08    1.796708e-10    2.892453e-08    2.918272e-09   -1.350000e+00    9.653441e-01    3.478430e-01
    4.858552e+00    3.048576e+02    6.379780e-01    1.650476e+07    2.988984e-08    1.679630e-10    2.879685e-08    2.906624e-09   -1.340000e+00    9.653441e-01    3.400272e-01
    4.979477e+00    3.281912e+02    6.073580e-01    1.616003e+07    2.978561e-08    1.570644e-10    2.866401e-08    2.894689e-09   -1.330000e+00    9.653441e-01    3.322220e-01
    5.105816e+00    3.528269e+02    5.774930e-01    1.581254e+07    2.967771e-08    1.469154e-10    2.852576e-08    2.882434e-09   -1.320000e+00    9.653441e-01    3.244284e-01
    5.237886e+00    3.788095e+02    5.483875e-01    1.546224e+07    2.956591e-08    1.374608e-10    2.838188e-08    2.869825e-09   -1.310000e+00    9.653441e-01    3.166476e-01
    5.376009e+00    4.061846e+02    5.200465e-01    1.510906e+07    2.944997e-08    1.286498e-10    2.823209e-08    2.856828e-09   -1.300000e+00    9.653441e-01    3.088807e-01
    5.520542e+00    4.349968e+02    4.924737e-01    1.475291e+07    2.932966e-08    1.204353e-10    2.807615e-08    2.843410e-09   -1.290000e+00    9.653441e-01    3.011293e-01
    5.671842e+00    4.652906e+02    4.656736e-01    1.439370e+07    2.920475e-08    1.127741e-10    2.791380e-08    2.829535e-09   -1.280000e+00    9.653441e-01    2.933950e-01
    5.830286e+00    4.971087e+02    4.396507e-01    1.403131e+07    2.907499e-08    1.056263e-10    2.774476e-08    2.815168e-09   -1.270000e+00    9.653441e-01    2.856796e-01
    5.996259e+00    5.304911e+02    4.144093e-01    1.366563e+07    2.894013e-08    9.895475e-11    2.756876e-08    2.800275e-09   -1.260000e+00    9.653441e-01    2.779852e-01
    6.170155e+00    5.654737e+02    3.899540e-01    1.329652e+07    2.879995e-08    9.272550e-11    2.738552e-08    2.784819e-09   -1.250000e+00    9.653441e-01    2.703143e-01
    6.352375e+00    6.020885e+02    3.662893e-01    1.292386e+07    2.865420e-08    8.690710e-11    2.719475e-08    2.768765e-09   -1.240000e+00    9.653441e-01    2.626695e-01
    6.543319e+00    6.403598e+02    3.434194e-01    1.254752e+07    2.850264e-08    8.147040e-11    2.699616e-08    2.752078e-09   -1.230000e+00    9.653441e-01    2.550538e-01
    6.743387e+00    6.803036e+02    3.213486e-01    1.216739e+07    2.834504e-08    7.638855e-11    2.678949e-08    2.734719e-09   -1.220000e+00    9.653441e-01    2.474707e-01
    6.952965e+00    7.219251e+02    3.000811e-01    1.178338e+07    2.818116e-08    7.163680e-11    2.657442e-08    2.716653e-09   -1.210000e+00    9.653441e-01    2.399239e-01
    7.172422e+00    7.652155e+02    2.796207e-01    1.139542e+07    2.801078e-08    6.719210e-11    2.635070e-08    2.697845e-09   -1.200000e+00    9.653441e-01    2.324179e-01
    7.402093e+00    8.101494e+02    2.599711e-01    1.100345e+07    2.783368e-08    6.303325e-11    2.611804e-08    2.678257e-09   -1.190000e+00    9.653441e-01    2.249573e-01
    7.642276e+00    8.566812e+02    2.411351e-01    1.060751e+07    2.764965e-08    5.914065e-11    2.587617e-08    2.657856e-09   -1.180000e+00    9.653441e-01    2.175476e-01
    7.893213e+00    9.047415e+02    2.231154e-01    1.020768e+07    2.745848e-08    5.549605e-11    2.562485e-08    2.636605e-09   -1.170000e+00    9.653441e-01    2.101946e-01
    8.155071e+00    9.542332e+02    2.059136e-01    9.804085e+06    2.726000e-08    5.208270e-11    2.536381e-08    2.614472e-09   -1.160000e+00    9.653441e-01    2.029048e-01
    8.427924e+00    1.005026e+03    1.895307e-01    9.396982e+06    2.705402e-08    4.888500e-11    2.509284e-08    2.591423e-09   -1.150000e+00    9.653441e-01    1.956855e-01
    8.711739e+00    1.056956e+03    1.739663e-01    8.986720e+06    2.684040e-08    4.588845e-11    2.481173e-08    2.567427e-09   -1.140000e+00    9.653441e-01    1.885444e-01
    9.006346e+00    1.109816e+03    1.592189e-01    8.573770e+06    2.661899e-08    4.307968e-11    2.452029e-08    2.542455e-09   -1.130000e+00    9.653441e-01    1.814902e-01
    9.311410e+00    1.163357e+03    1.452854e-01    8.158742e+06    2.638969e-08    4.044626e-11    2.421835e-08    2.516480e-09   -1.120000e+00    9.653441e-01    1.745321e-01
    9.626421e+00    1.217284e+03    1.321607e-01    7.742403e+06    2.615240e-08    3.797666e-11    2.390580e-08    2.489475e-09   -1.110000e+00    9.653441e-01    1.676799e-01
    9.950663e+00    1.271256e+03    1.198379e-01    7.325683e+06    2.590708e-08    3.566018e-11    2.358253e-08    2.461418e-09   -1.100000e+00    9.653441e-01    1.609442e-01
    1.028317e+01    1.324881e+03    1.083079e-01    6.909679e+06    2.565368e-08    3.348684e-11    2.324848e-08    2.432291e-09   -1.090000e+00    9.653441e-01    1.543362e-01
    1.062278e+01    1.377730e+03    9.755860e-02    6.495664e+06    2.539221e-08    3.144742e-11    2.290363e-08    2.402077e-09   -1.080000e+00    9.653441e-01    1.478675e-01
    1.096803e+01    1.429332e+03    8.757570e-02    6.085068e+06    2.512273e-08    2.953332e-11    2.254800e-08    2.370764e-09   -1.070000e+00    9.653441e-01    1.415501e-01
    1.131720e+01    1.479186e+03    7.834170e-02    5.679473e+06    2.484530e-08    2.773652e-11    2.218168e-08    2.338346e-09   -1.060000e+00    9.653441e-01    1.353964e-01
    1.166839e+01    1.526780e+03    6.983620e-02    5.280588e+06    2.456006e-08    2.604959e-11    2.180477e-08    2.304818e-09   -1.050000e+00    9.653441e-01    1.294186e-01
    1.201941e+01    1.571598e+03    6.203585e-02    4.890206e+06    2.426716e-08    2.446558e-11    2.141745e-08    2.270183e-09   -1.040000e+00    9.653441e-01    1.236290e-01
    1.236795e+01    1.613144e+03    5.491425e-02    4.510164e+06    2.396682e-08    2.297803e-11    2.101998e-08    2.234448e-09   -1.030000e+00    9.653441e-01    1.180393e-01
    1.271157e+01    1.650964e+03    4.844213e-02    4.142291e+06    2.365931e-08    2.158089e-11    2.061263e-08    2.197627e-09   -1.020000e+00    9.653441e-01    1.126609e-01
    1.304781e+01    1.684666e+03    4.258772e-02    3.788348e+06    2.334492e-08    2.026856e-11    2.019575e-08    2.159737e-09   -1.010000e+00    9.653441e-01    1.075041e-01
    1.337428e+01    1.713942e+03    3.731690e-02    3.449970e+06    2.302401e-08    1.903577e-11    1.976977e-08    2.120806e-09   -1.000000e+00    9.653441e-01    1.025781e-01
    1.368878e+01    1.738592e+03    3.259373e-02    3.128605e+06    2.269699e-08    1.787763e-11    1.933517e-08    2.080863e-09   -9.900000e-01    9.653441e-01    9.789081e-02
    1.398939e+01    1.758536e+03    2.838092e-02    2.825462e+06    2.236433e-08    1.678955e-11    1.889248e-08    2.039948e-09   -9.800000e-01    9.653441e-01    9.344844e-02
    1.427461e+01    1.773829e+03    2.464031e-02    2.541468e+06    2.202652e-08    1.576724e-11    1.844232e-08    1.998104e-09   -9.700000e-01    9.653441e-01    8.925552e-02
    1.454345e+01    1.784662e+03    2.133352e-02    2.277238e+06    2.168411e-08    1.480669e-11    1.798533e-08    1.955384e-09   -9.600000e-01    9.653441e-01    8.531468e-02
    1.479553e+01    1.791359e+03    1.842246e-02    2.033063e+06    2.133769e-08    1.390415e-11    1.752225e-08    1.911843e-09   -9.500000e-01    9.653441e-01    8.162656e-02
    1.503113e+01    1.794366e+03    1.586989e-02    1.808910e+06    2.098790e-08    1.305612e-11    1.705384e-08    1.867547e-09   -9.400000e-01    9.653441e-01    7.818984e-02
    1.525122e+01    1.794236e+03    1.363991e-02    1.604439e+06    2.063540e-08    1.225930e-11    1.658093e-08    1.822565e-09   -9.300000e-01    9.653441e-01    7.500128e-02
    1.545744e+01    1.791598e+03    1.169832e-02    1.419038e+06    2.028091e-08    1.151059e-11    1.610437e-08    1.776971e-09   -9.200000e-01    9.653441e-01    7.205583e-02
    1.565206e+01    1.787141e+03    1.001305e-02    1.251863e+06    1.992515e-08    1.080711e-11    1.562507e-08    1.730844e-09   -9.100000e-01    9.653441e-01    6.934678e-02
    1.583785e+01    1.781574e+03    8.554300e-03    1.101882e+06    1.956887e-08    1.014615e-11    1.514397e-08    1.684272e-09   -9.000000e-01    9.653441e-01    6.686596e-02
    1.601802e+01    1.775608e+03    7.294725e-03    9.679348e+05    1.921285e-08    9.525150e-12    1.466201e-08    1.637340e-09   -8.900000e-01    9.653441e-01    6.460397e-02
    1.619601e+01    1.769922e+03    6.209505e-03    8.487753e+05    1.885786e-08    8.941730e-12    1.418017e-08    1.590141e-09   -8.800000e-01    9.653441e-01    6.255042e-02
    1.637536e+01    1.765149e+03    5.276310e-03    7.431213e+05    1.850469e-08    8.393630e-12    1.369943e-08    1.542769e-09   -8.700000e-01    9.653441e-01    6.069415e-02
    1.655957e+01    1.761850e+03    4.475228e-03    6.496951e+05    1.815410e-08    7.878750e-12    1.322077e-08    1.495318e-09   -8.600000e-01    9.653441e-01    5.902348e-02
    1.675185e+01    1.760507e+03    3.788644e-03    5.672556e+05    1.780689e-08    7.395100e-12    1.274513e-08    1.447886e-09   -8.500000e-01    9.653441e-01    5.752642e-02
    1.695504e+01    1.761502e+03    3.201066e-03    4.946241e+05    1.746378e-08    6.940820e-12    1.227350e-08    1.400568e-09   -8.400000e-01    9.653441e-01    5.619084e-02
    1.717150e+01    1.765131e+03    2.698951e-03    4.307046e+05    1.712553e-08    6.514150e-12    1.180677e-08    1.353460e-09   -8.300000e-01    9.653441e-01    5.500467e-02
    1.740295e+01    1.771580e+03    2.270509e-03    3.744920e+05    1.679282e-08    6.113440e-12    1.134584e-08    1.306656e-09   -8.200000e-01    9.653441e-01    5.395600e-02
    1.765042e+01    1.780945e+03    1.905512e-03    3.250799e+05    1.646633e-08    5.737140e-12    1.089157e-08    1.260246e-09   -8.100000e-01    9.653441e-01    5.303323e-02
    1.791424e+01    1.793222e+03    1.595107e-03    2.816599e+05    1.614668e-08    5.383795e-12    1.044475e-08    1.214321e-09   -8.000000e-01    9.653441e-01    5.222512e-02
    1.819400e+01    1.808327e+03    1.331642e-03    2.435187e+05    1.583447e-08    5.052015e-12    1.000614e-08    1.168963e-09   -7.900000e-01    9.653441e-01    5.152089e-02
    1.848860e+01    1.826089e+03    1.108504e-03    2.100312e+05    1.553022e-08    4.740523e-12    9.576410e-09    1.124253e-09   -7.800000e-01    9.653441e-01    5.091028e-02
    1.879632e+01    1.846275e+03    9.199800e-04    1.806529e+05    1.523444e-08    4.448091e-12    9.156215e-09    1.080267e-09   -7.700000e-01    9.653441e-01    5.038355e-02
    1.911486e+01    1.868593e+03    7.611300e-04    1.549102e+05    1.494755e-08    4.173578e-12    8.746110e-09    1.037073e-09   -7.600000e-01    9.653441e-01    4.993156e-02
    1.944149e+01    1.892708e+03    6.276785e-04    1.323909e+05    1.466996e-08    3.915902e-12    8.346595e-09    9.947350e-10   -7.500000e-01    9.653441e-01    4.954576e-02
    1.977318e+01    1.918254e+03    5.159230e-04    1.127352e+05    1.440198e-08    3.674050e-12    7.958100e-09    9.533115e-10   -7.400000e-01    9.653441e-01    4.921821e-02
    2.010668e+01    1.944856e+03    4.226558e-04    9.562654e+04    1.414389e-08    3.447066e-12    7.580985e-09    9.128535e-10   -7.300000e-01    9.653441e-01    4.894161e-02
    2.043868e+01    1.972130e+03    3.450981e-04    8.078451e+04    1.389593e-08    3.234050e-12    7.215555e-09    8.734065e-10   -7.200000e-01    9.653441e-01    4.870928e-02
