# sky130 pfet_01v8 gm/ID Processed Lookup Table
# Corner: sf
# Temperature: 85C
# W = 2.0 um
# L = 4 um (4000 nm)
# Columns: gm/id [1/V]  gm/gds [V/V]  id/W [A/m]  ft [Hz]  Cgg/W [F/m]  Cgd/W [F/m]  Cgs/W [F/m]  Cdb/W [F/m]  vgs [V]  vth [V]  vdsat [V]
# vdsat = BSIM4 saturation voltage (|VDS|_sat, positive); use for headroom / saturation / cascode-bias calculations
#           gm/id          gm/gds            id/W              ft           Cgg/W           Cgd/W           Cgs/W           Cdb/W             vgs             vth           vdsat
    1.917772e+00    3.883663e+00    4.126049e+00    5.474789e+07    2.300298e-08    2.407219e-09    2.090056e-08    2.448030e-09   -1.800000e+00    9.636842e-01    7.061971e-01
    1.955067e+00    4.121545e+00    4.046921e+00    5.496049e+07    2.291162e-08    2.281716e-09    2.090817e-08    2.430110e-09   -1.790000e+00    9.636842e-01    6.981786e-01
    1.993390e+00    4.384729e+00    3.967815e+00    5.515897e+07    2.282167e-08    2.159622e-09    2.091393e-08    2.412492e-09   -1.780000e+00    9.636842e-01    6.901644e-01
    2.032743e+00    4.676676e+00    3.888742e+00    5.534132e+07    2.273329e-08    2.041170e-09    2.091779e-08    2.395207e-09   -1.770000e+00    9.636842e-01    6.821544e-01
    2.073122e+00    5.001358e+00    3.809726e+00    5.550541e+07    2.264662e-08    1.926562e-09    2.091974e-08    2.378279e-09   -1.760000e+00    9.636842e-01    6.741486e-01
    2.114512e+00    5.363331e+00    3.730790e+00    5.564907e+07    2.256177e-08    1.815978e-09    2.091970e-08    2.361734e-09   -1.750000e+00    9.636842e-01    6.661470e-01
    2.156893e+00    5.767785e+00    3.651959e+00    5.576995e+07    2.247886e-08    1.709562e-09    2.091770e-08    2.345592e-09   -1.740000e+00    9.636842e-01    6.581496e-01
    2.200241e+00    6.220646e+00    3.573262e+00    5.586582e+07    2.239799e-08    1.607428e-09    2.091370e-08    2.329873e-09   -1.730000e+00    9.636842e-01    6.501564e-01
    2.244518e+00    6.728612e+00    3.494728e+00    5.593428e+07    2.231920e-08    1.509657e-09    2.090770e-08    2.314592e-09   -1.720000e+00    9.636842e-01    6.421673e-01
    2.289686e+00    7.299235e+00    3.416394e+00    5.597313e+07    2.224255e-08    1.416298e-09    2.089973e-08    2.299761e-09   -1.710000e+00    9.636842e-01    6.341823e-01
    2.335702e+00    7.940967e+00    3.338291e+00    5.598019e+07    2.216805e-08    1.327369e-09    2.088977e-08    2.285387e-09   -1.700000e+00    9.636842e-01    6.262014e-01
    2.382519e+00    8.663196e+00    3.260462e+00    5.595352e+07    2.209571e-08    1.242858e-09    2.087785e-08    2.271476e-09   -1.690000e+00    9.636842e-01    6.182245e-01
    2.430091e+00    9.476271e+00    3.182943e+00    5.589141e+07    2.202553e-08    1.162726e-09    2.086399e-08    2.258030e-09   -1.680000e+00    9.636842e-01    6.102517e-01
    2.478375e+00    1.039147e+01    3.105779e+00    5.579250e+07    2.195745e-08    1.086907e-09    2.084823e-08    2.245047e-09   -1.670000e+00    9.636842e-01    6.022829e-01
    2.527334e+00    1.142099e+01    3.029012e+00    5.565571e+07    2.189143e-08    1.015313e-09    2.083058e-08    2.232522e-09   -1.660000e+00    9.636842e-01    5.943181e-01
    2.576939e+00    1.257786e+01    2.952688e+00    5.548044e+07    2.182739e-08    9.478360e-10    2.081110e-08    2.220448e-09   -1.650000e+00    9.636842e-01    5.863573e-01
    2.627175e+00    1.387586e+01    2.876849e+00    5.526656e+07    2.176526e-08    8.843520e-10    2.078979e-08    2.208814e-09   -1.640000e+00    9.636842e-01    5.784004e-01
    2.678037e+00    1.532937e+01    2.801543e+00    5.501428e+07    2.170494e-08    8.247225e-10    2.076669e-08    2.197608e-09   -1.630000e+00    9.636842e-01    5.704475e-01
    2.729536e+00    1.695324e+01    2.726811e+00    5.472428e+07    2.164631e-08    7.687975e-10    2.074182e-08    2.186815e-09   -1.620000e+00    9.636842e-01    5.624986e-01
    2.781704e+00    1.876267e+01    2.652698e+00    5.439770e+07    2.158929e-08    7.164200e-10    2.071523e-08    2.176420e-09   -1.610000e+00    9.636842e-01    5.545536e-01
    2.834577e+00    2.077296e+01    2.579244e+00    5.403582e+07    2.153372e-08    6.674260e-10    2.068691e-08    2.166402e-09   -1.600000e+00    9.636842e-01    5.466126e-01
    2.888215e+00    2.299946e+01    2.506490e+00    5.364032e+07    2.147950e-08    6.216490e-10    2.065691e-08    2.156744e-09   -1.590000e+00    9.636842e-01    5.386755e-01
    2.942691e+00    2.545735e+01    2.434470e+00    5.321309e+07    2.142648e-08    5.789210e-10    2.062522e-08    2.147426e-09   -1.580000e+00    9.636842e-01    5.307423e-01
    2.998084e+00    2.816153e+01    2.363223e+00    5.275600e+07    2.137453e-08    5.390750e-10    2.059185e-08    2.138425e-09   -1.570000e+00    9.636842e-01    5.228130e-01
    3.054487e+00    3.112657e+01    2.292778e+00    5.227107e+07    2.132353e-08    5.019455e-10    2.055681e-08    2.129721e-09   -1.560000e+00    9.636842e-01    5.148877e-01
    3.112002e+00    3.436662e+01    2.223167e+00    5.176033e+07    2.127331e-08    4.673717e-10    2.052010e-08    2.121291e-09   -1.550000e+00    9.636842e-01    5.069664e-01
    3.170739e+00    3.789539e+01    2.154417e+00    5.122575e+07    2.122375e-08    4.351957e-10    2.048170e-08    2.113113e-09   -1.540000e+00    9.636842e-01    4.990491e-01
    3.230817e+00    4.172615e+01    2.086553e+00    5.066926e+07    2.117470e-08    4.052661e-10    2.044160e-08    2.105165e-09   -1.530000e+00    9.636842e-01    4.911358e-01
    3.292352e+00    4.587174e+01    2.019599e+00    5.009261e+07    2.112603e-08    3.774372e-10    2.039978e-08    2.097425e-09   -1.520000e+00    9.636842e-01    4.832266e-01
    3.355471e+00    5.034463e+01    1.953575e+00    4.949747e+07    2.107758e-08    3.515698e-10    2.035621e-08    2.089869e-09   -1.510000e+00    9.636842e-01    4.753215e-01
    3.420309e+00    5.515710e+01    1.888502e+00    4.888543e+07    2.102923e-08    3.275315e-10    2.031086e-08    2.082475e-09   -1.500000e+00    9.636842e-01    4.674205e-01
    3.486998e+00    6.032113e+01    1.824396e+00    4.825786e+07    2.098084e-08    3.051966e-10    2.026368e-08    2.075223e-09   -1.490000e+00    9.636842e-01    4.595238e-01
    3.555677e+00    6.584869e+01    1.761274e+00    4.761602e+07    2.093226e-08    2.844468e-10    2.021462e-08    2.068088e-09   -1.480000e+00    9.636842e-01    4.516314e-01
    3.626496e+00    7.175182e+01    1.699150e+00    4.696113e+07    2.088336e-08    2.651704e-10    2.016364e-08    2.061051e-09   -1.470000e+00    9.636842e-01    4.437435e-01
    3.699601e+00    7.804275e+01    1.638039e+00    4.629417e+07    2.083401e-08    2.472627e-10    2.011066e-08    2.054090e-09   -1.460000e+00    9.636842e-01    4.358601e-01
    3.775152e+00    8.473391e+01    1.577953e+00    4.561608e+07    2.078407e-08    2.306254e-10    2.005563e-08    2.047182e-09   -1.450000e+00    9.636842e-01    4.279815e-01
    3.853312e+00    9.183824e+01    1.518903e+00    4.492768e+07    2.073339e-08    2.151668e-10    1.999845e-08    2.040307e-09   -1.440000e+00    9.636842e-01    4.201077e-01
    3.934251e+00    9.936921e+01    1.460900e+00    4.422963e+07    2.068184e-08    2.008014e-10    1.993906e-08    2.033445e-09   -1.430000e+00    9.636842e-01    4.122389e-01
    4.018147e+00    1.073411e+02    1.403954e+00    4.352257e+07    2.062930e-08    1.874496e-10    1.987737e-08    2.026574e-09   -1.420000e+00    9.636842e-01    4.043755e-01
    4.105185e+00    1.157686e+02    1.348077e+00    4.280700e+07    2.057561e-08    1.750371e-10    1.981327e-08    2.019674e-09   -1.410000e+00    9.636842e-01    3.965177e-01
    4.195564e+00    1.246677e+02    1.293276e+00    4.208336e+07    2.052065e-08    1.634950e-10    1.974667e-08    2.012723e-09   -1.400000e+00    9.636842e-01    3.886657e-01
    4.289492e+00    1.340553e+02    1.239560e+00    4.135205e+07    2.046427e-08    1.527596e-10    1.967745e-08    2.005701e-09   -1.390000e+00    9.636842e-01    3.808200e-01
    4.387187e+00    1.439494e+02    1.186937e+00    4.061336e+07    2.040633e-08    1.427715e-10    1.960551e-08    1.998588e-09   -1.380000e+00    9.636842e-01    3.729809e-01
    4.488879e+00    1.543691e+02    1.135416e+00    3.986750e+07    2.034670e-08    1.334759e-10    1.953070e-08    1.991362e-09   -1.370000e+00    9.636842e-01    3.651490e-01
    4.594810e+00    1.653348e+02    1.085005e+00    3.911464e+07    2.028523e-08    1.248221e-10    1.945292e-08    1.984002e-09   -1.360000e+00    9.636842e-01    3.573247e-01
    4.705238e+00    1.768682e+02    1.035711e+00    3.835491e+07    2.022177e-08    1.167630e-10    1.937203e-08    1.976489e-09   -1.350000e+00    9.636842e-01    3.495087e-01
    4.820431e+00    1.889926e+02    9.875420e-01    3.758835e+07    2.015619e-08    1.092551e-10    1.928787e-08    1.968800e-09   -1.340000e+00    9.636842e-01    3.417018e-01
    4.940678e+00    2.017324e+02    9.405055e-01    3.681497e+07    2.008832e-08    1.022583e-10    1.920030e-08    1.960912e-09   -1.330000e+00    9.636842e-01    3.339047e-01
    5.066275e+00    2.151134e+02    8.946095e-01    3.603474e+07    2.001802e-08    9.573545e-11    1.910916e-08    1.952807e-09   -1.320000e+00    9.636842e-01    3.261184e-01
    5.197536e+00    2.291629e+02    8.498615e-01    3.524755e+07    1.994513e-08    8.965220e-11    1.901431e-08    1.944459e-09   -1.310000e+00    9.636842e-01    3.183439e-01
    5.334796e+00    2.439093e+02    8.062685e-01    3.445327e+07    1.986951e-08    8.397690e-11    1.891555e-08    1.935848e-09   -1.300000e+00    9.636842e-01    3.105826e-01
    5.478397e+00    2.593821e+02    7.638385e-01    3.365174e+07    1.979100e-08    7.868015e-11    1.881274e-08    1.926951e-09   -1.290000e+00    9.636842e-01    3.028357e-01
    5.628700e+00    2.756120e+02    7.225790e-01    3.284276e+07    1.970943e-08    7.373495e-11    1.870568e-08    1.917744e-09   -1.280000e+00    9.636842e-01    2.951049e-01
    5.786079e+00    2.926302e+02    6.824975e-01    3.202607e+07    1.962465e-08    6.911625e-11    1.859421e-08    1.908206e-09   -1.270000e+00    9.636842e-01    2.873920e-01
    5.950921e+00    3.104681e+02    6.436015e-01    3.120143e+07    1.953650e-08    6.480095e-11    1.847811e-08    1.898310e-09   -1.260000e+00    9.636842e-01    2.796991e-01
    6.123612e+00    3.291573e+02    6.058995e-01    3.036857e+07    1.944483e-08    6.076760e-11    1.835723e-08    1.888034e-09   -1.250000e+00    9.636842e-01    2.720284e-01
    6.304558e+00    3.487285e+02    5.693985e-01    2.952721e+07    1.934946e-08    5.699650e-11    1.823136e-08    1.877355e-09   -1.240000e+00    9.636842e-01    2.643826e-01
    6.494163e+00    3.692112e+02    5.341060e-01    2.867707e+07    1.925023e-08    5.346935e-11    1.810031e-08    1.866247e-09   -1.230000e+00    9.636842e-01    2.567647e-01
    6.692825e+00    3.906326e+02    5.000295e-01    2.781790e+07    1.914701e-08    5.016925e-11    1.796389e-08    1.854685e-09   -1.220000e+00    9.636842e-01    2.491780e-01
    6.900937e+00    4.130166e+02    4.671759e-01    2.694948e+07    1.903962e-08    4.708058e-11    1.782190e-08    1.842646e-09   -1.210000e+00    9.636842e-01    2.416262e-01
    7.118864e+00    4.363830e+02    4.355525e-01    2.607167e+07    1.892790e-08    4.418882e-11    1.767415e-08    1.830106e-09   -1.200000e+00    9.636842e-01    2.341136e-01
    7.346956e+00    4.607445e+02    4.051651e-01    2.518437e+07    1.881172e-08    4.148056e-11    1.752046e-08    1.817038e-09   -1.190000e+00    9.636842e-01    2.266449e-01
    7.585513e+00    4.861078e+02    3.760196e-01    2.428760e+07    1.869093e-08    3.894341e-11    1.736064e-08    1.803421e-09   -1.180000e+00    9.636842e-01    2.192253e-01
    7.834787e+00    5.124681e+02    3.481205e-01    2.338153e+07    1.856539e-08    3.656583e-11    1.719452e-08    1.789230e-09   -1.170000e+00    9.636842e-01    2.118607e-01
    8.094956e+00    5.398098e+02    3.214716e-01    2.246647e+07    1.843497e-08    3.433717e-11    1.702193e-08    1.774441e-09   -1.160000e+00    9.636842e-01    2.045574e-01
    8.366114e+00    5.681027e+02    2.960751e-01    2.154296e+07    1.829955e-08    3.224755e-11    1.684270e-08    1.759032e-09   -1.150000e+00    9.636842e-01    1.973226e-01
    8.648237e+00    5.972996e+02    2.719316e-01    2.061174e+07    1.815903e-08    3.028776e-11    1.665671e-08    1.742981e-09   -1.140000e+00    9.636842e-01    1.901640e-01
    8.941175e+00    6.273335e+02    2.490397e-01    1.967386e+07    1.801331e-08    2.844929e-11    1.646380e-08    1.726270e-09   -1.130000e+00    9.636842e-01    1.830901e-01
    9.244616e+00    6.581153e+02    2.273957e-01    1.873069e+07    1.786231e-08    2.672423e-11    1.626386e-08    1.708876e-09   -1.120000e+00    9.636842e-01    1.761100e-01
    9.558070e+00    6.895311e+02    2.069933e-01    1.778391e+07    1.770596e-08    2.510523e-11    1.605682e-08    1.690785e-09   -1.110000e+00    9.636842e-01    1.692336e-01
    9.880835e+00    7.214392e+02    1.878229e-01    1.683559e+07    1.754422e-08    2.358544e-11    1.584257e-08    1.671979e-09   -1.100000e+00    9.636842e-01    1.624713e-01
    1.021199e+01    7.536708e+02    1.698714e-01    1.588819e+07    1.737706e-08    2.215852e-11    1.562109e-08    1.652445e-09   -1.090000e+00    9.636842e-01    1.558344e-01
    1.055035e+01    7.860264e+02    1.531221e-01    1.494457e+07    1.720447e-08    2.081855e-11    1.539235e-08    1.632171e-09   -1.080000e+00    9.636842e-01    1.493344e-01
    1.089449e+01    8.182795e+02    1.375539e-01    1.400796e+07    1.702648e-08    1.956002e-11    1.515635e-08    1.611149e-09   -1.070000e+00    9.636842e-01    1.429834e-01
    1.124272e+01    8.501767e+02    1.231413e-01    1.308194e+07    1.684315e-08    1.837781e-11    1.491312e-08    1.589372e-09   -1.060000e+00    9.636842e-01    1.367937e-01
    1.159310e+01    8.814432e+02    1.098542e-01    1.217039e+07    1.665452e-08    1.726713e-11    1.466275e-08    1.566838e-09   -1.050000e+00    9.636842e-01    1.307778e-01
    1.194347e+01    9.117885e+02    9.765785e-02    1.127741e+07    1.646072e-08    1.622353e-11    1.440533e-08    1.543547e-09   -1.040000e+00    9.636842e-01    1.249481e-01
    1.229148e+01    9.409142e+02    8.651280e-02    1.040721e+07    1.626187e-08    1.524285e-11    1.414103e-08    1.519503e-09   -1.030000e+00    9.636842e-01    1.193165e-01
    1.263465e+01    9.685265e+02    7.637510e-02    9.564009e+06    1.605814e-08    1.432120e-11    1.387002e-08    1.494715e-09   -1.020000e+00    9.636842e-01    1.138945e-01
    1.297049e+01    9.943470e+02    6.719665e-02    8.751904e+06    1.584972e-08    1.345497e-11    1.359253e-08    1.469193e-09   -1.010000e+00    9.636842e-01    1.086927e-01
    1.329652e+01    1.018125e+03    5.892585e-02    7.974707e+06    1.563686e-08    1.264077e-11    1.330882e-08    1.442955e-09   -1.000000e+00    9.636842e-01    1.037207e-01
    1.361048e+01    1.039654e+03    5.150780e-02    7.235823e+06    1.541980e-08    1.187542e-11    1.301921e-08    1.416020e-09   -9.900000e-01    9.636842e-01    9.898659e-02
    1.391034e+01    1.058782e+03    4.488559e-02    6.538140e+06    1.519885e-08    1.115597e-11    1.272406e-08    1.388414e-09   -9.800000e-01    9.636842e-01    9.449699e-02
    1.419451e+01    1.075425e+03    3.900067e-02    5.883898e+06    1.497433e-08    1.047965e-11    1.242375e-08    1.360167e-09   -9.700000e-01    9.636842e-01    9.025674e-02
    1.446190e+01    1.089572e+03    3.379398e-02    5.274631e+06    1.474662e-08    9.843855e-12    1.211872e-08    1.331312e-09   -9.600000e-01    9.636842e-01    8.626878e-02
    1.471201e+01    1.101292e+03    2.920672e-02    4.711127e+06    1.451610e-08    9.246155e-12    1.180944e-08    1.301887e-09   -9.500000e-01    9.636842e-01    8.253408e-02
    1.494502e+01    1.110731e+03    2.518125e-02    4.193424e+06    1.428319e-08    8.684275e-12    1.149644e-08    1.271934e-09   -9.400000e-01    9.636842e-01    7.905157e-02
    1.516182e+01    1.118112e+03    2.166184e-02    3.720854e+06    1.404832e-08    8.156070e-12    1.118025e-08    1.241501e-09   -9.300000e-01    9.636842e-01    7.581828e-02
    1.536400e+01    1.123722e+03    1.859536e-02    3.292099e+06    1.381198e-08    7.659540e-12    1.086145e-08    1.210638e-09   -9.200000e-01    9.636842e-01    7.282933e-02
    1.555375e+01    1.127899e+03    1.593175e-02    2.905295e+06    1.357465e-08    7.192805e-12    1.054062e-08    1.179399e-09   -9.100000e-01    9.636842e-01    7.007819e-02
    1.573388e+01    1.131020e+03    1.362449e-02    2.558138e+06    1.333682e-08    6.754085e-12    1.021842e-08    1.147840e-09   -9.000000e-01    9.636842e-01    6.755680e-02
    1.590759e+01    1.133484e+03    1.163081e-02    2.247998e+06    1.309901e-08    6.341730e-12    9.895465e-09    1.116022e-09   -8.900000e-01    9.636842e-01    6.525584e-02
    1.607839e+01    1.135692e+03    9.911810e-03    1.972039e+06    1.286175e-08    5.954175e-12    9.572415e-09    1.084006e-09   -8.800000e-01    9.636842e-01    6.316495e-02
    1.624994e+01    1.138034e+03    8.432450e-03    1.727328e+06    1.262557e-08    5.589950e-12    9.249925e-09    1.051857e-09   -8.700000e-01    9.636842e-01    6.127299e-02
    1.642584e+01    1.140877e+03    7.161460e-03    1.510928e+06    1.239098e-08    5.247680e-12    8.928660e-09    1.019639e-09   -8.600000e-01    9.636842e-01    5.956828e-02
    1.660953e+01    1.144546e+03    6.071130e-03    1.319979e+06    1.215850e-08    4.926062e-12    8.609260e-09    9.874185e-10   -8.500000e-01    9.636842e-01    5.803880e-02
    1.680405e+01    1.149321e+03    5.137090e-03    1.151755e+06    1.192865e-08    4.623875e-12    8.292380e-09    9.552605e-10   -8.400000e-01    9.636842e-01    5.667241e-02
    1.701199e+01    1.155429e+03    4.338023e-03    1.003715e+06    1.170191e-08    4.339970e-12    7.978640e-09    9.232315e-10   -8.300000e-01    9.636842e-01    5.545700e-02
    1.723536e+01    1.163036e+03    3.655364e-03    8.735260e+05    1.147877e-08    4.073264e-12    7.668650e-09    8.913950e-10   -8.200000e-01    9.636842e-01    5.438066e-02
    1.747547e+01    1.172249e+03    3.073005e-03    7.590782e+05    1.125967e-08    3.822737e-12    7.362985e-09    8.598145e-10   -8.100000e-01    9.636842e-01    5.343178e-02
    1.773296e+01    1.183114e+03    2.577006e-03    6.584894e+05    1.104505e-08    3.587429e-12    7.062195e-09    8.285500e-10   -8.000000e-01    9.636842e-01    5.259911e-02
    1.800769e+01    1.195619e+03    2.155319e-03    5.700961e+05    1.083532e-08    3.366436e-12    6.766790e-09    7.976605e-10   -7.900000e-01    9.636842e-01    5.187189e-02
    1.829885e+01    1.209698e+03    1.797540e-03    4.924424e+05    1.063083e-08    3.158905e-12    6.477245e-09    7.672005e-10   -7.800000e-01    9.636842e-01    5.123987e-02
    1.860493e+01    1.225234e+03    1.494680e-03    4.242598e+05    1.043193e-08    2.964036e-12    6.193995e-09    7.372225e-10   -7.700000e-01    9.636842e-01    5.069332e-02
    1.892384e+01    1.242070e+03    1.238967e-03    3.644478e+05    1.023891e-08    2.781072e-12    5.917435e-09    7.077750e-10   -7.600000e-01    9.636842e-01    5.022310e-02
    1.925298e+01    1.260011e+03    1.023677e-03    3.120517e+05    1.005205e-08    2.609301e-12    5.647900e-09    6.789020e-10   -7.500000e-01    9.636842e-01    4.982066e-02
    1.958940e+01    1.278842e+03    8.429855e-04    2.662410e+05    9.871575e-09    2.448053e-12    5.385705e-09    6.506435e-10   -7.400000e-01    9.636842e-01    4.947806e-02
    1.992987e+01    1.298326e+03    6.918405e-04    2.262887e+05    9.697675e-09    2.296696e-12    5.131095e-09    6.230365e-10   -7.300000e-01    9.636842e-01    4.918794e-02
    2.027106e+01    1.318222e+03    5.658615e-04    1.915535e+05    9.530520e-09    2.154635e-12    4.884285e-09    5.961115e-10   -7.200000e-01    9.636842e-01    4.894359e-02
