# sky130 nfet_01v8 gm/ID Processed Lookup Table
# Corner: sf
# Temperature: 75C
# W = 2.0 um
# L = 4.68 um (4680 nm)
# Columns: gm/id [1/V]  gm/gds [V/V]  id/W [A/m]  ft [Hz]  Cgg/W [F/m]  Cgd/W [F/m]  Cgs/W [F/m]  Vov [V]
#         gm/id          gm/gds            id/W              ft           Cgg/W           Cgd/W           Cgs/W             Vov
    2.250296e+01    2.100126e+02    1.660009e-06    5.481079e+02    1.084687e-08    7.710235e-13    1.782593e-09   -4.572332e-01
    2.249922e+01    2.099782e+02    1.857681e-06    6.118521e+02    1.087207e-08    7.970555e-13    1.851311e-09   -4.522332e-01
    2.249528e+01    2.099420e+02    2.078851e-06    6.828554e+02    1.089948e-08    8.240280e-13    1.922521e-09   -4.472332e-01
    2.249110e+01    2.099037e+02    2.326305e-06    7.619229e+02    1.092915e-08    8.519750e-13    1.996287e-09   -4.422332e-01
    2.248670e+01    2.098634e+02    2.603159e-06    8.499461e+02    1.096112e-08    8.809325e-13    2.072673e-09   -4.372332e-01
    2.248205e+01    2.098208e+02    2.912896e-06    9.479121e+02    1.099545e-08    9.109370e-13    2.151740e-09   -4.322332e-01
    2.247713e+01    2.097759e+02    3.259409e-06    1.056913e+03    1.103217e-08    9.420270e-13    2.233553e-09   -4.272332e-01
    2.247193e+01    2.097285e+02    3.647049e-06    1.178154e+03    1.107133e-08    9.742420e-13    2.318176e-09   -4.222332e-01
    2.246644e+01    2.096785e+02    4.080684e-06    1.312974e+03    1.111300e-08    1.007623e-12    2.405668e-09   -4.172332e-01
    2.246065e+01    2.096258e+02    4.565749e-06    1.462848e+03    1.115720e-08    1.042212e-12    2.496091e-09   -4.122332e-01
    2.245454e+01    2.095702e+02    5.108320e-06    1.629408e+03    1.120398e-08    1.078052e-12    2.589504e-09   -4.072332e-01
    2.244809e+01    2.095117e+02    5.715190e-06    1.814456e+03    1.125340e-08    1.115187e-12    2.685963e-09   -4.022332e-01
    2.244130e+01    2.094501e+02    6.393940e-06    2.019981e+03    1.130549e-08    1.153666e-12    2.785524e-09   -3.972332e-01
    2.243411e+01    2.093851e+02    7.153055e-06    2.248180e+03    1.136029e-08    1.193536e-12    2.888242e-09   -3.922332e-01
    2.242652e+01    2.093167e+02    8.002000e-06    2.501477e+03    1.141785e-08    1.234844e-12    2.994166e-09   -3.872332e-01
    2.241853e+01    2.092448e+02    8.951350e-06    2.782545e+03    1.147820e-08    1.277645e-12    3.103347e-09   -3.822332e-01
    2.241011e+01    2.091690e+02    1.001292e-05    3.094333e+03    1.154138e-08    1.321989e-12    3.215831e-09   -3.772332e-01
    2.240121e+01    2.090893e+02    1.119990e-05    3.440093e+03    1.160742e-08    1.367930e-12    3.331662e-09   -3.722332e-01
    2.239184e+01    2.090055e+02    1.252701e-05    3.823404e+03    1.167636e-08    1.415525e-12    3.450879e-09   -3.672332e-01
    2.238196e+01    2.089174e+02    1.401071e-05    4.248214e+03    1.174822e-08    1.464833e-12    3.573522e-09   -3.622332e-01
    2.237155e+01    2.088247e+02    1.566934e-05    4.718868e+03    1.182304e-08    1.515911e-12    3.699623e-09   -3.572332e-01
    2.236058e+01    2.087275e+02    1.752339e-05    5.240151e+03    1.190084e-08    1.568822e-12    3.829213e-09   -3.522332e-01
    2.234903e+01    2.086253e+02    1.959572e-05    5.817330e+03    1.198164e-08    1.623628e-12    3.962319e-09   -3.472332e-01
    2.233686e+01    2.085181e+02    2.191182e-05    6.456198e+03    1.206546e-08    1.680394e-12    4.098963e-09   -3.422332e-01
    2.232407e+01    2.084057e+02    2.450013e-05    7.163126e+03    1.215232e-08    1.739189e-12    4.239162e-09   -3.372332e-01
    2.231057e+01    2.082877e+02    2.739240e-05    7.945124e+03    1.224222e-08    1.800080e-12    4.382931e-09   -3.322332e-01
    2.229640e+01    2.081643e+02    3.062398e-05    8.809897e+03    1.233519e-08    1.863140e-12    4.530277e-09   -3.272332e-01
    2.228148e+01    2.080349e+02    3.423430e-05    9.765904e+03    1.243120e-08    1.928440e-12    4.681207e-09   -3.222332e-01
    2.226580e+01    2.078995e+02    3.826734e-05    1.082245e+04    1.253029e-08    1.996057e-12    4.835717e-09   -3.172332e-01
    2.224932e+01    2.077579e+02    4.277205e-05    1.198974e+04    1.263244e-08    2.066069e-12    4.993803e-09   -3.122332e-01
    2.223200e+01    2.076100e+02    4.780301e-05    1.327899e+04    1.273764e-08    2.138555e-12    5.155455e-09   -3.072332e-01
    2.221382e+01    2.074554e+02    5.342095e-05    1.470250e+04    1.284588e-08    2.213597e-12    5.320650e-09   -3.022332e-01
    2.219473e+01    2.072944e+02    5.969360e-05    1.627378e+04    1.295715e-08    2.291280e-12    5.489375e-09   -2.972332e-01
    2.217470e+01    2.071263e+02    6.669625e-05    1.800762e+04    1.307143e-08    2.371692e-12    5.661590e-09   -2.922332e-01
    2.215369e+01    2.069512e+02    7.451275e-05    1.992026e+04    1.318869e-08    2.454921e-12    5.837275e-09   -2.872332e-01
    2.213166e+01    2.067693e+02    8.323635e-05    2.202951e+04    1.330891e-08    2.541060e-12    6.016385e-09   -2.822332e-01
    2.210859e+01    2.065802e+02    9.297080e-05    2.435485e+04    1.343205e-08    2.630203e-12    6.198870e-09   -2.772332e-01
    2.208444e+01    2.063839e+02    1.038314e-04    2.691766e+04    1.355808e-08    2.722449e-12    6.384685e-09   -2.722332e-01
    2.205917e+01    2.061805e+02    1.159464e-04    2.974129e+04    1.368695e-08    2.817897e-12    6.573770e-09   -2.672332e-01
    2.203274e+01    2.059700e+02    1.294582e-04    3.285139e+04    1.381862e-08    2.916650e-12    6.766070e-09   -2.622332e-01
    2.200512e+01    2.057525e+02    1.445251e-04    3.627594e+04    1.395303e-08    3.018814e-12    6.961505e-09   -2.572332e-01
    2.197628e+01    2.055280e+02    1.613228e-04    4.004563e+04    1.409013e-08    3.124500e-12    7.160010e-09   -2.522332e-01
    2.194619e+01    2.052969e+02    1.800463e-04    4.419394e+04    1.422986e-08    3.233818e-12    7.361505e-09   -2.472332e-01
    2.191482e+01    2.050594e+02    2.009120e-04    4.875753e+04    1.437217e-08    3.346883e-12    7.565905e-09   -2.422332e-01
    2.188214e+01    2.048158e+02    2.241600e-04    5.377648e+04    1.451696e-08    3.463814e-12    7.773115e-09   -2.372332e-01
    2.184814e+01    2.045667e+02    2.500563e-04    5.929453e+04    1.466418e-08    3.584733e-12    7.983045e-09   -2.322332e-01
    2.181277e+01    2.043123e+02    2.788961e-04    6.535943e+04    1.481375e-08    3.709766e-12    8.195595e-09   -2.272332e-01
    2.177604e+01    2.040536e+02    3.110059e-04    7.202344e+04    1.496559e-08    3.839041e-12    8.410660e-09   -2.222332e-01
    2.173794e+01    2.037913e+02    3.467477e-04    7.934357e+04    1.511960e-08    3.972690e-12    8.628130e-09   -2.172332e-01
    2.169844e+01    2.035260e+02    3.865220e-04    8.738190e+04    1.527571e-08    4.110850e-12    8.847890e-09   -2.122332e-01
    2.165757e+01    2.032591e+02    4.307722e-04    9.620644e+04    1.543382e-08    4.253660e-12    9.069820e-09   -2.072332e-01
    2.161531e+01    2.029917e+02    4.799885e-04    1.058911e+05    1.559384e-08    4.401265e-12    9.293800e-09   -2.022332e-01
    2.157169e+01    2.027251e+02    5.347130e-04    1.165167e+05    1.575567e-08    4.553813e-12    9.519710e-09   -1.972332e-01
    2.152671e+01    2.024609e+02    5.955450e-04    1.281713e+05    1.591921e-08    4.711455e-12    9.747415e-09   -1.922332e-01
    2.148043e+01    2.022009e+02    6.631460e-04    1.409511e+05    1.608436e-08    4.874348e-12    9.976785e-09   -1.872332e-01
    2.143285e+01    2.019469e+02    7.382475e-04    1.549608e+05    1.625100e-08    5.042655e-12    1.020768e-08   -1.822332e-01
    2.138403e+01    2.017014e+02    8.216560e-04    1.703147e+05    1.641904e-08    5.216540e-12    1.043999e-08   -1.772332e-01
    2.133404e+01    2.014668e+02    9.142620e-04    1.871374e+05    1.658836e-08    5.396170e-12    1.067354e-08   -1.722332e-01
    2.128294e+01    2.012456e+02    1.017049e-03    2.055650e+05    1.675885e-08    5.581725e-12    1.090821e-08   -1.672332e-01
    2.123079e+01    2.010411e+02    1.131099e-03    2.257458e+05    1.693040e-08    5.773385e-12    1.114385e-08   -1.622332e-01
    2.117768e+01    2.008565e+02    1.257607e-03    2.478415e+05    1.710290e-08    5.971335e-12    1.138032e-08   -1.572332e-01
    2.112373e+01    2.006953e+02    1.397892e-03    2.720289e+05    1.727624e-08    6.175760e-12    1.161749e-08   -1.522332e-01
    2.106902e+01    2.005616e+02    1.553402e-03    2.985010e+05    1.745029e-08    6.386865e-12    1.185520e-08   -1.472332e-01
    2.101369e+01    2.004595e+02    1.725737e-03    3.274684e+05    1.762494e-08    6.604850e-12    1.209331e-08   -1.422332e-01
    2.095785e+01    2.003936e+02    1.916658e-03    3.591613e+05    1.780009e-08    6.829920e-12    1.233168e-08   -1.372332e-01
    2.090164e+01    2.003688e+02    2.128106e-03    3.938312e+05    1.797560e-08    7.062290e-12    1.257017e-08   -1.322332e-01
    2.084519e+01    2.003903e+02    2.362214e-03    4.317531e+05    1.815139e-08    7.302180e-12    1.280863e-08   -1.272332e-01
    2.078866e+01    2.004637e+02    2.621336e-03    4.732279e+05    1.832732e-08    7.549820e-12    1.304693e-08   -1.222332e-01
    2.073218e+01    2.005948e+02    2.908059e-03    5.185844e+05    1.850328e-08    7.805440e-12    1.328493e-08   -1.172332e-01
    2.067590e+01    2.007898e+02    3.225236e-03    5.681831e+05    1.867918e-08    8.069280e-12    1.352248e-08   -1.122332e-01
    2.061994e+01    2.010549e+02    3.576002e-03    6.224170e+05    1.885489e-08    8.341595e-12    1.375948e-08   -1.072332e-01
    2.056446e+01    2.013969e+02    3.963812e-03    6.817179e+05    1.903031e-08    8.622630e-12    1.399576e-08   -1.022332e-01
    2.050956e+01    2.018226e+02    4.392467e-03    7.465573e+05    1.920533e-08    8.912660e-12    1.423121e-08   -9.723320e-02
    2.045534e+01    2.023389e+02    4.866149e-03    8.174509e+05    1.937986e-08    9.211945e-12    1.446571e-08   -9.223320e-02
    2.040187e+01    2.029530e+02    5.389465e-03    8.949623e+05    1.955379e-08    9.520770e-12    1.469912e-08   -8.723320e-02
    2.034922e+01    2.036715e+02    5.967470e-03    9.797079e+05    1.972702e-08    9.839425e-12    1.493134e-08   -8.223320e-02
    2.029737e+01    2.045020e+02    6.605740e-03    1.072358e+06    1.989947e-08    1.016820e-11    1.516225e-08   -7.723320e-02
    2.024631e+01    2.054509e+02    7.310400e-03    1.173648e+06    2.007102e-08    1.050741e-11    1.539173e-08   -7.223320e-02
    2.019596e+01    2.065250e+02    8.088180e-03    1.284371e+06    2.024161e-08    1.085736e-11    1.561967e-08   -6.723320e-02
    2.014622e+01    2.077306e+02    8.946470e-03    1.405395e+06    2.041113e-08    1.121839e-11    1.584599e-08   -6.223320e-02
    2.009690e+01    2.090735e+02    9.893385e-03    1.537655e+06    2.057952e-08    1.159081e-11    1.607057e-08   -5.723320e-02
    2.004775e+01    2.105589e+02    1.093784e-02    1.682166e+06    2.074668e-08    1.197500e-11    1.629333e-08   -5.223320e-02
    1.999849e+01    2.121914e+02    1.208958e-02    1.840017e+06    2.091255e-08    1.237129e-11    1.651416e-08   -4.723320e-02
    1.994876e+01    2.139746e+02    1.335930e-02    2.012380e+06    2.107704e-08    1.278006e-11    1.673299e-08   -4.223320e-02
    1.989812e+01    2.159116e+02    1.475866e-02    2.200507e+06    2.124010e-08    1.320168e-11    1.694974e-08   -3.723320e-02
    1.984611e+01    2.180039e+02    1.630043e-02    2.405732e+06    2.140165e-08    1.363656e-11    1.716432e-08   -3.223320e-02
    1.979217e+01    2.202522e+02    1.799849e-02    2.629470e+06    2.156163e-08    1.408510e-11    1.737667e-08   -2.723320e-02
    1.973571e+01    2.226556e+02    1.986797e-02    2.873207e+06    2.171999e-08    1.454771e-11    1.758673e-08   -2.223320e-02
    1.967610e+01    2.252119e+02    2.192527e-02    3.138505e+06    2.187667e-08    1.502482e-11    1.779442e-08   -1.723320e-02
    1.961265e+01    2.279175e+02    2.418816e-02    3.426992e+06    2.203161e-08    1.551689e-11    1.799969e-08   -1.223320e-02
    1.954466e+01    2.307671e+02    2.667585e-02    3.740343e+06    2.218478e-08    1.602437e-11    1.820249e-08   -7.233200e-03
    1.947144e+01    2.337538e+02    2.940902e-02    4.080289e+06    2.233612e-08    1.654774e-11    1.840277e-08   -2.233200e-03
    1.939227e+01    2.368691e+02    3.240988e-02    4.448580e+06    2.248561e-08    1.708749e-11    1.860049e-08    2.766800e-03
    1.930642e+01    2.401024e+02    3.570222e-02    4.846980e+06    2.263320e-08    1.764412e-11    1.879560e-08    7.766800e-03
    1.921324e+01    2.434418e+02    3.931143e-02    5.277252e+06    2.277885e-08    1.821818e-11    1.898806e-08    1.276680e-02
    1.911212e+01    2.468739e+02    4.326448e-02    5.741134e+06    2.292255e-08    1.881019e-11    1.917786e-08    1.776680e-02
    1.900245e+01    2.503832e+02    4.758997e-02    6.240306e+06    2.306425e-08    1.942072e-11    1.936496e-08    2.276680e-02
    1.888374e+01    2.539531e+02    5.231805e-02    6.776384e+06    2.320394e-08    2.005034e-11    1.954933e-08    2.776680e-02
    1.875556e+01    2.575655e+02    5.748040e-02    7.350879e+06    2.334160e-08    2.069966e-11    1.973097e-08    3.276680e-02
    1.861757e+01    2.612013e+02    6.311010e-02    7.965180e+06    2.347721e-08    2.136929e-11    1.990984e-08    3.776680e-02
    1.846953e+01    2.648401e+02    6.924165e-02    8.620521e+06    2.361076e-08    2.205989e-11    2.008595e-08    4.276680e-02
    1.831128e+01    2.684608e+02    7.591080e-02    9.317960e+06    2.374224e-08    2.277211e-11    2.025928e-08    4.776680e-02
    1.814277e+01    2.720416e+02    8.315435e-02    1.005835e+07    2.387163e-08    2.350664e-11    2.042983e-08    5.276680e-02
    1.796406e+01    2.755605e+02    9.101005e-02    1.084232e+07    2.399893e-08    2.426418e-11    2.059760e-08    5.776680e-02
    1.777531e+01    2.789950e+02    9.951640e-02    1.167024e+07    2.412415e-08    2.504548e-11    2.076258e-08    6.276680e-02
    1.757677e+01    2.823236e+02    1.087125e-01    1.254226e+07    2.424727e-08    2.585130e-11    2.092479e-08    6.776680e-02
    1.736877e+01    2.855242e+02    1.186377e-01    1.345819e+07    2.436830e-08    2.668242e-11    2.108423e-08    7.276680e-02
    1.715175e+01    2.885758e+02    1.293315e-01    1.441760e+07    2.448725e-08    2.753965e-11    2.124091e-08    7.776680e-02
    1.692619e+01    2.914583e+02    1.408334e-01    1.541975e+07    2.460411e-08    2.842385e-11    2.139484e-08    8.276680e-02
    1.669268e+01    2.941525e+02    1.531821e-01    1.646361e+07    2.471891e-08    2.933588e-11    2.154604e-08    8.776680e-02
    1.645182e+01    2.966406e+02    1.664163e-01    1.754787e+07    2.483164e-08    3.027665e-11    2.169452e-08    9.276680e-02
    1.620428e+01    2.989063e+02    1.805730e-01    1.867092e+07    2.494233e-08    3.124710e-11    2.184031e-08    9.776680e-02
    1.595076e+01    3.009348e+02    1.956887e-01    1.983090e+07    2.505097e-08    3.224821e-11    2.198342e-08    1.027668e-01
    1.569199e+01    3.027132e+02    2.117981e-01    2.102572e+07    2.515760e-08    3.328097e-11    2.212388e-08    1.077668e-01
    1.542869e+01    3.042307e+02    2.289348e-01    2.225303e+07    2.526224e-08    3.434643e-11    2.226172e-08    1.127668e-01
    1.516163e+01    3.054778e+02    2.471300e-01    2.351032e+07    2.536488e-08    3.544566e-11    2.239696e-08    1.177668e-01
    1.489153e+01    3.064477e+02    2.664132e-01    2.479488e+07    2.546556e-08    3.657980e-11    2.252963e-08    1.227668e-01
    1.461914e+01    3.071353e+02    2.868117e-01    2.610387e+07    2.556430e-08    3.775000e-11    2.265976e-08    1.277668e-01
    1.434517e+01    3.075371e+02    3.083505e-01    2.743437e+07    2.566111e-08    3.895745e-11    2.278737e-08    1.327668e-01
    1.407030e+01    3.076521e+02    3.310522e-01    2.878334e+07    2.575603e-08    4.020343e-11    2.291251e-08    1.377668e-01
    1.379522e+01    3.074809e+02    3.549368e-01    3.014774e+07    2.584907e-08    4.148921e-11    2.303520e-08    1.427668e-01
    1.352054e+01    3.070258e+02    3.800219e-01    3.152450e+07    2.594027e-08    4.281612e-11    2.315549e-08    1.477668e-01
    1.324686e+01    3.062909e+02    4.063223e-01    3.291059e+07    2.602964e-08    4.418559e-11    2.327339e-08    1.527668e-01
    1.297475e+01    3.052819e+02    4.338505e-01    3.430302e+07    2.611721e-08    4.559903e-11    2.338895e-08    1.577668e-01
    1.270470e+01    3.040052e+02    4.626162e-01    3.569883e+07    2.620302e-08    4.705795e-11    2.350221e-08    1.627668e-01
    1.243723e+01    3.024698e+02    4.926266e-01    3.709533e+07    2.628708e-08    4.856390e-11    2.361320e-08    1.677668e-01
    1.217275e+01    3.006846e+02    5.238865e-01    3.848976e+07    2.636944e-08    5.011850e-11    2.372195e-08    1.727668e-01
    1.191166e+01    2.986597e+02    5.563985e-01    3.987962e+07    2.645011e-08    5.172340e-11    2.382852e-08    1.777668e-01
    1.165432e+01    2.964063e+02    5.901625e-01    4.126251e+07    2.652912e-08    5.338035e-11    2.393292e-08    1.827668e-01
    1.140104e+01    2.939363e+02    6.251770e-01    4.263630e+07    2.660651e-08    5.509115e-11    2.403521e-08    1.877668e-01
    1.115209e+01    2.912614e+02    6.614375e-01    4.399890e+07    2.668231e-08    5.685770e-11    2.413542e-08    1.927668e-01
    1.090772e+01    2.883943e+02    6.989385e-01    4.534853e+07    2.675653e-08    5.868185e-11    2.423358e-08    1.977668e-01
    1.066813e+01    2.853480e+02    7.376730e-01    4.668357e+07    2.682923e-08    6.056575e-11    2.432974e-08    2.027668e-01
    1.043349e+01    2.821351e+02    7.776315e-01    4.800257e+07    2.690042e-08    6.251135e-11    2.442394e-08    2.077668e-01
    1.020393e+01    2.787683e+02    8.188035e-01    4.930424e+07    2.697013e-08    6.452095e-11    2.451621e-08    2.127668e-01
    9.979580e+00    2.752607e+02    8.611775e-01    5.058758e+07    2.703841e-08    6.659670e-11    2.460659e-08    2.177668e-01
    9.760495e+00    2.716244e+02    9.047410e-01    5.185164e+07    2.710527e-08    6.874100e-11    2.469512e-08    2.227668e-01
    9.546752e+00    2.678721e+02    9.494800e-01    5.309577e+07    2.717075e-08    7.095630e-11    2.478183e-08    2.277668e-01
    9.338374e+00    2.640155e+02    9.953805e-01    5.431941e+07    2.723488e-08    7.324505e-11    2.486677e-08    2.327668e-01
    9.135378e+00    2.600663e+02    1.042427e+00    5.552218e+07    2.729769e-08    7.560995e-11    2.494996e-08    2.377668e-01
    8.937741e+00    2.560353e+02    1.090605e+00    5.670378e+07    2.735920e-08    7.805375e-11    2.503146e-08    2.427668e-01
    8.745457e+00    2.519333e+02    1.139898e+00    5.786416e+07    2.741945e-08    8.057920e-11    2.511129e-08    2.477668e-01
    8.558476e+00    2.477704e+02    1.190289e+00    5.900328e+07    2.747848e-08    8.318925e-11    2.518948e-08    2.527668e-01
    8.376747e+00    2.435562e+02    1.241763e+00    6.012132e+07    2.753630e-08    8.588705e-11    2.526609e-08    2.577668e-01
    8.200200e+00    2.392998e+02    1.294303e+00    6.121844e+07    2.759295e-08    8.867570e-11    2.534112e-08    2.627668e-01
    8.028760e+00    2.350096e+02    1.347892e+00    6.229496e+07    2.764846e-08    9.155855e-11    2.541464e-08    2.677668e-01
    7.862342e+00    2.306937e+02    1.402516e+00    6.335127e+07    2.770286e-08    9.453895e-11    2.548667e-08    2.727668e-01
    7.700846e+00    2.263594e+02    1.458158e+00    6.438780e+07    2.775617e-08    9.762060e-11    2.555724e-08    2.777668e-01
    7.544180e+00    2.220137e+02    1.514802e+00    6.540508e+07    2.780842e-08    1.008071e-10    2.562638e-08    2.827668e-01
    7.392231e+00    2.176632e+02    1.572432e+00    6.640362e+07    2.785966e-08    1.041024e-10    2.569413e-08    2.877668e-01
    7.244893e+00    2.133137e+02    1.631034e+00    6.738406e+07    2.790988e-08    1.075105e-10    2.576052e-08    2.927668e-01
    7.102051e+00    2.089705e+02    1.690594e+00    6.834699e+07    2.795915e-08    1.110354e-10    2.582557e-08    2.977668e-01
