# sky130 nfet_01v8 gm/ID Processed Lookup Table
# Corner: sf
# Temperature: 75C
# W = 2.0 um
# L = 5.4 um (5400 nm)
# Columns: gm/id [1/V]  gm/gds [V/V]  id/W [A/m]  ft [Hz]  Cgg/W [F/m]  Cgd/W [F/m]  Cgs/W [F/m]  Vov [V]
#         gm/id          gm/gds            id/W              ft           Cgg/W           Cgd/W           Cgs/W             Vov
    2.264494e+01    2.306244e+02    1.408432e-06    4.058460e+02    1.250737e-08    8.800490e-13    2.047667e-09   -4.560435e-01
    2.264116e+01    2.305865e+02    1.577266e-06    4.533619e+02    1.253657e-08    9.099190e-13    2.127087e-09   -4.510435e-01
    2.263716e+01    2.305465e+02    1.766303e-06    5.063255e+02    1.256833e-08    9.408735e-13    2.209411e-09   -4.460435e-01
    2.263294e+01    2.305043e+02    1.977956e-06    5.653451e+02    1.260271e-08    9.729530e-13    2.294715e-09   -4.410435e-01
    2.262847e+01    2.304596e+02    2.214923e-06    6.310943e+02    1.263978e-08    1.006199e-12    2.383074e-09   -4.360435e-01
    2.262376e+01    2.304126e+02    2.480222e-06    7.043207e+02    1.267959e-08    1.040654e-12    2.474560e-09   -4.310435e-01
    2.261877e+01    2.303628e+02    2.777232e-06    7.858496e+02    1.272219e-08    1.076362e-12    2.569252e-09   -4.260435e-01
    2.261350e+01    2.303104e+02    3.109729e-06    8.765970e+02    1.276764e-08    1.113369e-12    2.667222e-09   -4.210435e-01
    2.260794e+01    2.302551e+02    3.481938e-06    9.775745e+02    1.281600e-08    1.151724e-12    2.768543e-09   -4.160435e-01
    2.260206e+01    2.301967e+02    3.898587e-06    1.089902e+03    1.286732e-08    1.191473e-12    2.873287e-09   -4.110435e-01
    2.259585e+01    2.301352e+02    4.364960e-06    1.214818e+03    1.292165e-08    1.232669e-12    2.981522e-09   -4.060435e-01
    2.258930e+01    2.300703e+02    4.886969e-06    1.353691e+03    1.297906e-08    1.275363e-12    3.093317e-09   -4.010435e-01
    2.258239e+01    2.300021e+02    5.471220e-06    1.508032e+03    1.303957e-08    1.319610e-12    3.208737e-09   -3.960435e-01
    2.257509e+01    2.299300e+02    6.125100e-06    1.679513e+03    1.310326e-08    1.365464e-12    3.327847e-09   -3.910435e-01
    2.256739e+01    2.298544e+02    6.856875e-06    1.869978e+03    1.317016e-08    1.412983e-12    3.450707e-09   -3.860435e-01
    2.255925e+01    2.297745e+02    7.675770e-06    2.081461e+03    1.324033e-08    1.462228e-12    3.577375e-09   -3.810435e-01
    2.255067e+01    2.296904e+02    8.592105e-06    2.316207e+03    1.331380e-08    1.513258e-12    3.707906e-09   -3.760435e-01
    2.254163e+01    2.296020e+02    9.617405e-06    2.576696e+03    1.339061e-08    1.566137e-12    3.842352e-09   -3.710435e-01
    2.253209e+01    2.295089e+02    1.076456e-05    2.865657e+03    1.347081e-08    1.620930e-12    3.980761e-09   -3.660435e-01
    2.252203e+01    2.294111e+02    1.204795e-05    3.186104e+03    1.355442e-08    1.677704e-12    4.123179e-09   -3.610435e-01
    2.251142e+01    2.293082e+02    1.348366e-05    3.541353e+03    1.364149e-08    1.736529e-12    4.269644e-09   -3.560435e-01
    2.250025e+01    2.292001e+02    1.508963e-05    3.935058e+03    1.373203e-08    1.797475e-12    4.420194e-09   -3.510435e-01
    2.248848e+01    2.290867e+02    1.688592e-05    4.371246e+03    1.382610e-08    1.860617e-12    4.574859e-09   -3.460435e-01
    2.247607e+01    2.289675e+02    1.889489e-05    4.854347e+03    1.392368e-08    1.926029e-12    4.733668e-09   -3.410435e-01
    2.246300e+01    2.288425e+02    2.114154e-05    5.389238e+03    1.402482e-08    1.993791e-12    4.896639e-09   -3.360435e-01
    2.244926e+01    2.287115e+02    2.365372e-05    5.981283e+03    1.412952e-08    2.063982e-12    5.063790e-09   -3.310435e-01
    2.243477e+01    2.285740e+02    2.646256e-05    6.636380e+03    1.423778e-08    2.136685e-12    5.235130e-09   -3.260435e-01
    2.241956e+01    2.284303e+02    2.960275e-05    7.361023e+03    1.434964e-08    2.211985e-12    5.410670e-09   -3.210435e-01
    2.240355e+01    2.282797e+02    3.311297e-05    8.162337e+03    1.446507e-08    2.289971e-12    5.590400e-09   -3.160435e-01
    2.238671e+01    2.281222e+02    3.703640e-05    9.048152e+03    1.458408e-08    2.370732e-12    5.774320e-09   -3.110435e-01
    2.236902e+01    2.279576e+02    4.142111e-05    1.002708e+04    1.470666e-08    2.454362e-12    5.962415e-09   -3.060435e-01
    2.235042e+01    2.277856e+02    4.632074e-05    1.110857e+04    1.483281e-08    2.540955e-12    6.154660e-09   -3.010435e-01
    2.233090e+01    2.276063e+02    5.179500e-05    1.230299e+04    1.496248e-08    2.630611e-12    6.351040e-09   -2.960435e-01
    2.231043e+01    2.274194e+02    5.791040e-05    1.362173e+04    1.509568e-08    2.723432e-12    6.551510e-09   -2.910435e-01
    2.228894e+01    2.272246e+02    6.474110e-05    1.507727e+04    1.523236e-08    2.819520e-12    6.756035e-09   -2.860435e-01
    2.226641e+01    2.270222e+02    7.236950e-05    1.668329e+04    1.537249e-08    2.918984e-12    6.964570e-09   -2.810435e-01
    2.224281e+01    2.268118e+02    8.088745e-05    1.845483e+04    1.551604e-08    3.021933e-12    7.177060e-09   -2.760435e-01
    2.221809e+01    2.265934e+02    9.039700e-05    2.040831e+04    1.566296e-08    3.128481e-12    7.393450e-09   -2.710435e-01
    2.219222e+01    2.263673e+02    1.010118e-04    2.256177e+04    1.581321e-08    3.238745e-12    7.613660e-09   -2.660435e-01
    2.216517e+01    2.261331e+02    1.128581e-04    2.493494e+04    1.596671e-08    3.352844e-12    7.837630e-09   -2.610435e-01
    2.213689e+01    2.258912e+02    1.260763e-04    2.754943e+04    1.612343e-08    3.470903e-12    8.065275e-09   -2.560435e-01
    2.210735e+01    2.256418e+02    1.408222e-04    3.042889e+04    1.628328e-08    3.593046e-12    8.296505e-09   -2.510435e-01
    2.207652e+01    2.253851e+02    1.572691e-04    3.359920e+04    1.644619e-08    3.719407e-12    8.531225e-09   -2.460435e-01
    2.204439e+01    2.251214e+02    1.756092e-04    3.708864e+04    1.661210e-08    3.850117e-12    8.769340e-09   -2.410435e-01
    2.201091e+01    2.248511e+02    1.960559e-04    4.092816e+04    1.678092e-08    3.985315e-12    9.010745e-09   -2.360435e-01
    2.197606e+01    2.245747e+02    2.188459e-04    4.515158e+04    1.695256e-08    4.125142e-12    9.255320e-09   -2.310435e-01
    2.193982e+01    2.242930e+02    2.442417e-04    4.979587e+04    1.712694e-08    4.269745e-12    9.502945e-09   -2.260435e-01
    2.190219e+01    2.240066e+02    2.725342e-04    5.490138e+04    1.730396e-08    4.419273e-12    9.753505e-09   -2.210435e-01
    2.186315e+01    2.237165e+02    3.040457e-04    6.051224e+04    1.748350e-08    4.573881e-12    1.000686e-08   -2.160435e-01
    2.182268e+01    2.234237e+02    3.391332e-04    6.667654e+04    1.766548e-08    4.733725e-12    1.026290e-08   -2.110435e-01
    2.178080e+01    2.231295e+02    3.781921e-04    7.344688e+04    1.784978e-08    4.898970e-12    1.052145e-08   -2.060435e-01
    2.173749e+01    2.228351e+02    4.216597e-04    8.088055e+04    1.803631e-08    5.069785e-12    1.078239e-08   -2.010435e-01
    2.169281e+01    2.225424e+02    4.700199e-04    8.904029e+04    1.822491e-08    5.246335e-12    1.104556e-08   -1.960435e-01
    2.164674e+01    2.222532e+02    5.238075e-04    9.799431e+04    1.841550e-08    5.428805e-12    1.131081e-08   -1.910435e-01
    2.159934e+01    2.219694e+02    5.836140e-04    1.078171e+05    1.860794e-08    5.617370e-12    1.157798e-08   -1.860435e-01
    2.155061e+01    2.216932e+02    6.500930e-04    1.185901e+05    1.880212e-08    5.812225e-12    1.184693e-08   -1.810435e-01
    2.150065e+01    2.214276e+02    7.239655e-04    1.304020e+05    1.899790e-08    6.013555e-12    1.211749e-08   -1.760435e-01
    2.144948e+01    2.211752e+02    8.060290e-04    1.433495e+05    1.919515e-08    6.221565e-12    1.238949e-08   -1.710435e-01
    2.139718e+01    2.209393e+02    8.971625e-04    1.575384e+05    1.939373e-08    6.436450e-12    1.266276e-08   -1.660435e-01
    2.134385e+01    2.207232e+02    9.983360e-04    1.730839e+05    1.959354e-08    6.658430e-12    1.293715e-08   -1.610435e-01
    2.128956e+01    2.205311e+02    1.110620e-03    1.901120e+05    1.979442e-08    6.887710e-12    1.321248e-08   -1.560435e-01
    2.123442e+01    2.203669e+02    1.235195e-03    2.087602e+05    1.999624e-08    7.124520e-12    1.348858e-08   -1.510435e-01
    2.117855e+01    2.202353e+02    1.373361e-03    2.291786e+05    2.019887e-08    7.369085e-12    1.376529e-08   -1.460435e-01
    2.112205e+01    2.201412e+02    1.526555e-03    2.515313e+05    2.040217e-08    7.621635e-12    1.404244e-08   -1.410435e-01
    2.106507e+01    2.200898e+02    1.696354e-03    2.759978e+05    2.060602e-08    7.882420e-12    1.431985e-08   -1.360435e-01
    2.100775e+01    2.200868e+02    1.884501e-03    3.027740e+05    2.081026e-08    8.151685e-12    1.459736e-08   -1.310435e-01
    2.095021e+01    2.201383e+02    2.092916e-03    3.320746e+05    2.101478e-08    8.429685e-12    1.487481e-08   -1.260435e-01
    2.089262e+01    2.202507e+02    2.323711e-03    3.641343e+05    2.121942e-08    8.716690e-12    1.515203e-08   -1.210435e-01
    2.083513e+01    2.204309e+02    2.579214e-03    3.992101e+05    2.142408e-08    9.012960e-12    1.542886e-08   -1.160435e-01
    2.077785e+01    2.206856e+02    2.861989e-03    4.375827e+05    2.162862e-08    9.318785e-12    1.570514e-08   -1.110435e-01
    2.072094e+01    2.210222e+02    3.174861e-03    4.795600e+05    2.183290e-08    9.634445e-12    1.598071e-08   -1.060435e-01
    2.066454e+01    2.214488e+02    3.520938e-03    5.254793e+05    2.203680e-08    9.960240e-12    1.625541e-08   -1.010435e-01
    2.060874e+01    2.219727e+02    3.903643e-03    5.757086e+05    2.224021e-08    1.029648e-11    1.652911e-08   -9.604350e-02
    2.055363e+01    2.226021e+02    4.326746e-03    6.306513e+05    2.244300e-08    1.064348e-11    1.680164e-08   -9.104350e-02
    2.049928e+01    2.233449e+02    4.794396e-03    6.907479e+05    2.264504e-08    1.100155e-11    1.707287e-08   -8.604350e-02
    2.044573e+01    2.242093e+02    5.311160e-03    7.564800e+05    2.284624e-08    1.137104e-11    1.734267e-08   -8.104350e-02
    2.039297e+01    2.252030e+02    5.882055e-03    8.283718e+05    2.304648e-08    1.175229e-11    1.761089e-08   -7.604350e-02
    2.034095e+01    2.263341e+02    6.512615e-03    9.069959e+05    2.324564e-08    1.214565e-11    1.787740e-08   -7.104350e-02
    2.028957e+01    2.276098e+02    7.208905e-03    9.929731e+05    2.344363e-08    1.255150e-11    1.814209e-08   -6.604350e-02
    2.023869e+01    2.290373e+02    7.977600e-03    1.086978e+06    2.364034e-08    1.297020e-11    1.840483e-08   -6.104350e-02
    2.018810e+01    2.306229e+02    8.826020e-03    1.189742e+06    2.383569e-08    1.340215e-11    1.866550e-08   -5.604350e-02
    2.013751e+01    2.323727e+02    9.762205e-03    1.302050e+06    2.402958e-08    1.384776e-11    1.892399e-08   -5.104350e-02
    2.008660e+01    2.342913e+02    1.079496e-02    1.424751e+06    2.422191e-08    1.430742e-11    1.918022e-08   -4.604350e-02
    2.003497e+01    2.363832e+02    1.193390e-02    1.558752e+06    2.441261e-08    1.478158e-11    1.943407e-08   -4.104350e-02
    1.998216e+01    2.386511e+02    1.318958e-02    1.705023e+06    2.460159e-08    1.527068e-11    1.968544e-08   -3.604350e-02
    1.992765e+01    2.410966e+02    1.457346e-02    1.864591e+06    2.478878e-08    1.577517e-11    1.993426e-08   -3.104350e-02
    1.987085e+01    2.437203e+02    1.609807e-02    2.038545e+06    2.497411e-08    1.629551e-11    2.018043e-08   -2.604350e-02
    1.981114e+01    2.465209e+02    1.777700e-02    2.228027e+06    2.515751e-08    1.683220e-11    2.042390e-08   -2.104350e-02
    1.974784e+01    2.494954e+02    1.962501e-02    2.434229e+06    2.533893e-08    1.738574e-11    2.066457e-08   -1.604350e-02
    1.968026e+01    2.526396e+02    2.165805e-02    2.658390e+06    2.551829e-08    1.795665e-11    2.090239e-08   -1.104350e-02
    1.960767e+01    2.559471e+02    2.389332e-02    2.901782e+06    2.569555e-08    1.854545e-11    2.113730e-08   -6.043500e-03
    1.952935e+01    2.594098e+02    2.634937e-02    3.165707e+06    2.587065e-08    1.915271e-11    2.136923e-08   -1.043500e-03
    1.944459e+01    2.630175e+02    2.904603e-02    3.451479e+06    2.604356e-08    1.977899e-11    2.159815e-08    3.956500e-03
    1.935267e+01    2.667584e+02    3.200455e-02    3.760414e+06    2.621423e-08    2.042490e-11    2.182399e-08    8.956500e-03
    1.925295e+01    2.706186e+02    3.524753e-02    4.093815e+06    2.638262e-08    2.109101e-11    2.204674e-08    1.395650e-02
    1.914483e+01    2.745826e+02    3.879897e-02    4.452957e+06    2.654870e-08    2.177799e-11    2.226635e-08    1.895650e-02
    1.902775e+01    2.786331e+02    4.268421e-02    4.839063e+06    2.671244e-08    2.248646e-11    2.248278e-08    2.395650e-02
    1.890127e+01    2.827512e+02    4.692992e-02    5.253292e+06    2.687382e-08    2.321712e-11    2.269602e-08    2.895650e-02
    1.876497e+01    2.869162e+02    5.156405e-02    5.696708e+06    2.703281e-08    2.397064e-11    2.290605e-08    3.395650e-02
    1.861859e+01    2.911067e+02    5.661580e-02    6.170285e+06    2.718938e-08    2.474777e-11    2.311285e-08    3.895650e-02
    1.846194e+01    2.953000e+02    6.211540e-02    6.674855e+06    2.734355e-08    2.554923e-11    2.331640e-08    4.395650e-02
    1.829493e+01    2.994724e+02    6.809410e-02    7.211115e+06    2.749527e-08    2.637579e-11    2.351670e-08    4.895650e-02
    1.811760e+01    3.035998e+02    7.458400e-02    7.779592e+06    2.764456e-08    2.722827e-11    2.371374e-08    5.395650e-02
    1.793005e+01    3.076575e+02    8.161795e-02    8.380636e+06    2.779140e-08    2.810748e-11    2.390753e-08    5.895650e-02
    1.773251e+01    3.116210e+02    8.922935e-02    9.014407e+06    2.793579e-08    2.901426e-11    2.409807e-08    6.395650e-02
    1.752532e+01    3.154664e+02    9.745185e-02    9.680865e+06    2.807773e-08    2.994952e-11    2.428536e-08    6.895650e-02
    1.730886e+01    3.191693e+02    1.063194e-01    1.037975e+07    2.821724e-08    3.091416e-11    2.446942e-08    7.395650e-02
    1.708363e+01    3.227068e+02    1.158658e-01    1.111058e+07    2.835430e-08    3.190912e-11    2.465026e-08    7.895650e-02
    1.685019e+01    3.260566e+02    1.261246e-01    1.187268e+07    2.848894e-08    3.293539e-11    2.482788e-08    8.395650e-02
    1.660915e+01    3.291984e+02    1.371289e-01    1.266513e+07    2.862115e-08    3.399399e-11    2.500233e-08    8.895650e-02
    1.636117e+01    3.321119e+02    1.489112e-01    1.348682e+07    2.875096e-08    3.508596e-11    2.517361e-08    9.395650e-02
    1.610695e+01    3.347802e+02    1.615029e-01    1.433642e+07    2.887839e-08    3.621239e-11    2.534175e-08    9.895650e-02
    1.584724e+01    3.371868e+02    1.749343e-01    1.521245e+07    2.900344e-08    3.737440e-11    2.550678e-08    1.039565e-01
    1.558277e+01    3.393181e+02    1.892346e-01    1.611322e+07    2.912613e-08    3.857317e-11    2.566872e-08    1.089565e-01
    1.531431e+01    3.411620e+02    2.044312e-01    1.703691e+07    2.924650e-08    3.980992e-11    2.582760e-08    1.139565e-01
    1.504261e+01    3.427085e+02    2.205502e-01    1.798156e+07    2.936455e-08    4.108589e-11    2.598346e-08    1.189565e-01
    1.476842e+01    3.439500e+02    2.376155e-01    1.894509e+07    2.948032e-08    4.240238e-11    2.613633e-08    1.239565e-01
    1.449248e+01    3.448808e+02    2.556493e-01    1.992536e+07    2.959383e-08    4.376074e-11    2.628625e-08    1.289565e-01
    1.421549e+01    3.454976e+02    2.746717e-01    2.092015e+07    2.970511e-08    4.516237e-11    2.643326e-08    1.339565e-01
    1.393814e+01    3.457989e+02    2.947008e-01    2.192721e+07    2.981418e-08    4.660871e-11    2.657738e-08    1.389565e-01
    1.366107e+01    3.457851e+02    3.157524e-01    2.294428e+07    2.992108e-08    4.810127e-11    2.671867e-08    1.439565e-01
    1.338491e+01    3.454589e+02    3.378402e-01    2.396911e+07    3.002583e-08    4.964160e-11    2.685716e-08    1.489565e-01
    1.311023e+01    3.448242e+02    3.609755e-01    2.499949e+07    3.012846e-08    5.123135e-11    2.699290e-08    1.539565e-01
    1.283756e+01    3.438869e+02    3.851676e-01    2.603325e+07    3.022902e-08    5.287210e-11    2.712591e-08    1.589565e-01
    1.256739e+01    3.426541e+02    4.104236e-01    2.706829e+07    3.032751e-08    5.456570e-11    2.725626e-08    1.639565e-01
    1.230019e+01    3.411345e+02    4.367485e-01    2.810264e+07    3.042400e-08    5.631390e-11    2.738398e-08    1.689565e-01
    1.203636e+01    3.393378e+02    4.641452e-01    2.913440e+07    3.051850e-08    5.811860e-11    2.750912e-08    1.739565e-01
    1.177627e+01    3.372747e+02    4.926147e-01    3.016179e+07    3.061105e-08    5.998170e-11    2.763171e-08    1.789565e-01
    1.152024e+01    3.349564e+02    5.221560e-01    3.118314e+07    3.070169e-08    6.190520e-11    2.775181e-08    1.839565e-01
    1.126857e+01    3.323956e+02    5.527670e-01    3.219698e+07    3.079045e-08    6.389130e-11    2.786946e-08    1.889565e-01
    1.102148e+01    3.296045e+02    5.844435e-01    3.320187e+07    3.087736e-08    6.594205e-11    2.798471e-08    1.939565e-01
    1.077921e+01    3.265966e+02    6.171795e-01    3.419662e+07    3.096247e-08    6.805970e-11    2.809759e-08    1.989565e-01
    1.054194e+01    3.233850e+02    6.509680e-01    3.518013e+07    3.104579e-08    7.024670e-11    2.820816e-08    2.039565e-01
    1.030979e+01    3.199831e+02    6.858010e-01    3.615143e+07    3.112738e-08    7.250540e-11    2.831646e-08    2.089565e-01
    1.008289e+01    3.164047e+02    7.216695e-01    3.710972e+07    3.120728e-08    7.483835e-11    2.842253e-08    2.139565e-01
    9.861323e+00    3.126628e+02    7.585630e-01    3.805431e+07    3.128551e-08    7.724815e-11    2.852642e-08    2.189565e-01
    9.645153e+00    3.087707e+02    7.964700e-01    3.898464e+07    3.136210e-08    7.973750e-11    2.862818e-08    2.239565e-01
    9.434407e+00    3.047413e+02    8.353795e-01    3.990028e+07    3.143711e-08    8.230930e-11    2.872784e-08    2.289565e-01
    9.229097e+00    3.005869e+02    8.752790e-01    4.080091e+07    3.151055e-08    8.496640e-11    2.882546e-08    2.339565e-01
    9.029237e+00    2.963205e+02    9.161555e-01    4.168639e+07    3.158247e-08    8.771190e-11    2.892107e-08    2.389565e-01
    8.834777e+00    2.919530e+02    9.579965e-01    4.255651e+07    3.165290e-08    9.054895e-11    2.901472e-08    2.439565e-01
    8.645697e+00    2.874961e+02    1.000788e+00    4.341135e+07    3.172188e-08    9.348085e-11    2.910644e-08    2.489565e-01
    8.461930e+00    2.829605e+02    1.044517e+00    4.425089e+07    3.178946e-08    9.651100e-11    2.919629e-08    2.539565e-01
    8.283413e+00    2.783564e+02    1.089170e+00    4.507532e+07    3.185564e-08    9.964295e-11    2.928430e-08    2.589565e-01
    8.110075e+00    2.736936e+02    1.134733e+00    4.588485e+07    3.192047e-08    1.028804e-10    2.937052e-08    2.639565e-01
    7.941822e+00    2.689812e+02    1.181193e+00    4.667974e+07    3.198399e-08    1.062273e-10    2.945498e-08    2.689565e-01
    7.778561e+00    2.642280e+02    1.228537e+00    4.746031e+07    3.204624e-08    1.096874e-10    2.953772e-08    2.739565e-01
    7.620190e+00    2.594420e+02    1.276751e+00    4.822688e+07    3.210724e-08    1.132650e-10    2.961879e-08    2.789565e-01
    7.466601e+00    2.546308e+02    1.325824e+00    4.897990e+07    3.216703e-08    1.169644e-10    2.969822e-08    2.839565e-01
    7.317678e+00    2.498014e+02    1.375741e+00    4.971972e+07    3.222564e-08    1.207901e-10    2.977604e-08    2.889565e-01
    7.173314e+00    2.449607e+02    1.426492e+00    5.044686e+07    3.228309e-08    1.247466e-10    2.985231e-08    2.939565e-01
    7.033383e+00    2.401145e+02    1.478064e+00    5.116171e+07    3.233945e-08    1.288390e-10    2.992704e-08    2.989565e-01
