# sky130 nfet_01v8 gm/ID Processed Lookup Table
# Corner: sf
# Temperature: 75C
# W = 2.0 um
# L = 3.96 um (3960 nm)
# Columns: gm/id [1/V]  gm/gds [V/V]  id/W [A/m]  ft [Hz]  Cgg/W [F/m]  Cgd/W [F/m]  Cgs/W [F/m]  Vov [V]
#         gm/id          gm/gds            id/W              ft           Cgg/W           Cgd/W           Cgs/W             Vov
    2.233307e+01    1.868960e+02    2.001853e-06    7.747272e+02    9.184425e-09    6.597490e-13    1.513798e-09   -4.589125e-01
    2.232940e+01    1.868658e+02    2.238329e-06    8.641127e+02    9.205570e-09    6.818800e-13    1.571722e-09   -4.539125e-01
    2.232552e+01    1.868338e+02    2.502692e-06    9.635959e+02    9.228565e-09    7.048055e-13    1.631725e-09   -4.489125e-01
    2.232144e+01    1.868003e+02    2.798223e-06    1.074288e+03    9.253450e-09    7.285530e-13    1.693861e-09   -4.439125e-01
    2.231710e+01    1.867646e+02    3.128585e-06    1.197419e+03    9.280255e-09    7.531535e-13    1.758182e-09   -4.389125e-01
    2.231255e+01    1.867272e+02    3.497873e-06    1.334348e+03    9.309025e-09    7.786375e-13    1.824739e-09   -4.339125e-01
    2.230771e+01    1.866876e+02    3.910659e-06    1.486578e+03    9.339795e-09    8.050375e-13    1.893584e-09   -4.289125e-01
    2.230262e+01    1.866460e+02    4.372049e-06    1.655771e+03    9.372615e-09    8.323860e-13    1.964772e-09   -4.239125e-01
    2.229725e+01    1.866021e+02    4.887747e-06    1.843765e+03    9.407510e-09    8.607170e-13    2.038350e-09   -4.189125e-01
    2.229157e+01    1.865556e+02    5.464125e-06    2.052585e+03    9.444530e-09    8.900665e-13    2.114368e-09   -4.139125e-01
    2.228560e+01    1.865069e+02    6.108290e-06    2.284473e+03    9.483705e-09    9.204705e-13    2.192877e-09   -4.089125e-01
    2.227930e+01    1.864556e+02    6.828185e-06    2.541900e+03    9.525075e-09    9.519665e-13    2.273921e-09   -4.039125e-01
    2.227263e+01    1.864014e+02    7.632680e-06    2.827594e+03    9.568670e-09    9.845935e-13    2.357546e-09   -3.989125e-01
    2.226560e+01    1.863444e+02    8.531670e-06    3.144565e+03    9.614530e-09    1.018392e-12    2.443798e-09   -3.939125e-01
    2.225820e+01    1.862844e+02    9.536195e-06    3.496127e+03    9.662690e-09    1.053403e-12    2.532717e-09   -3.889125e-01
    2.225039e+01    1.862212e+02    1.065859e-05    3.885943e+03    9.713170e-09    1.089668e-12    2.624346e-09   -3.839125e-01
    2.224215e+01    1.861548e+02    1.191261e-05    4.318039e+03    9.766015e-09    1.127233e-12    2.718720e-09   -3.789125e-01
    2.223347e+01    1.860850e+02    1.331362e-05    4.796860e+03    9.821240e-09    1.166142e-12    2.815877e-09   -3.739125e-01
    2.222433e+01    1.860115e+02    1.487871e-05    5.327292e+03    9.878880e-09    1.206443e-12    2.915849e-09   -3.689125e-01
    2.221469e+01    1.859343e+02    1.662703e-05    5.914718e+03    9.938960e-09    1.248184e-12    3.018669e-09   -3.639125e-01
    2.220454e+01    1.858533e+02    1.857985e-05    6.565065e+03    1.000150e-08    1.291414e-12    3.124363e-09   -3.589125e-01
    2.219384e+01    1.857681e+02    2.076096e-05    7.284850e+03    1.006652e-08    1.336184e-12    3.232956e-09   -3.539125e-01
    2.218259e+01    1.856787e+02    2.319682e-05    8.081247e+03    1.013403e-08    1.382548e-12    3.344470e-09   -3.489125e-01
    2.217074e+01    1.855849e+02    2.591700e-05    8.962137e+03    1.020407e-08    1.430560e-12    3.458923e-09   -3.439125e-01
    2.215827e+01    1.854865e+02    2.895439e-05    9.936182e+03    1.027663e-08    1.480277e-12    3.576330e-09   -3.389125e-01
    2.214515e+01    1.853834e+02    3.234568e-05    1.101292e+04    1.035173e-08    1.531755e-12    3.696702e-09   -3.339125e-01
    2.213135e+01    1.852753e+02    3.613175e-05    1.220279e+04    1.042937e-08    1.585054e-12    3.820048e-09   -3.289125e-01
    2.211684e+01    1.851621e+02    4.035813e-05    1.351729e+04    1.050956e-08    1.640236e-12    3.946370e-09   -3.239125e-01
    2.210159e+01    1.850438e+02    4.507551e-05    1.496904e+04    1.059231e-08    1.697363e-12    4.075666e-09   -3.189125e-01
    2.208557e+01    1.849200e+02    5.034035e-05    1.657187e+04    1.067760e-08    1.756501e-12    4.207935e-09   -3.139125e-01
    2.206873e+01    1.847907e+02    5.621555e-05    1.834098e+04    1.076543e-08    1.817717e-12    4.343164e-09   -3.089125e-01
    2.205107e+01    1.846556e+02    6.277100e-05    2.029304e+04    1.085580e-08    1.881078e-12    4.481341e-09   -3.039125e-01
    2.203252e+01    1.845147e+02    7.008455e-05    2.244630e+04    1.094868e-08    1.946656e-12    4.622447e-09   -2.989125e-01
    2.201307e+01    1.843678e+02    7.824280e-05    2.482078e+04    1.104409e-08    2.014524e-12    4.766462e-09   -2.939125e-01
    2.199268e+01    1.842147e+02    8.734200e-05    2.743845e+04    1.114197e-08    2.084756e-12    4.913355e-09   -2.889125e-01
    2.197130e+01    1.840556e+02    9.748925e-05    3.032333e+04    1.124232e-08    2.157430e-12    5.063095e-09   -2.839125e-01
    2.194892e+01    1.838902e+02    1.088035e-04    3.350176e+04    1.134510e-08    2.232624e-12    5.215650e-09   -2.789125e-01
    2.192548e+01    1.837185e+02    1.214169e-04    3.700256e+04    1.145029e-08    2.310421e-12    5.370970e-09   -2.739125e-01
    2.190097e+01    1.835405e+02    1.354762e-04    4.085728e+04    1.155785e-08    2.390903e-12    5.529015e-09   -2.689125e-01
    2.187534e+01    1.833562e+02    1.511447e-04    4.510043e+04    1.166775e-08    2.474157e-12    5.689735e-09   -2.639125e-01
    2.184857e+01    1.831657e+02    1.686031e-04    4.976976e+04    1.177994e-08    2.560273e-12    5.853070e-09   -2.589125e-01
    2.182060e+01    1.829689e+02    1.880525e-04    5.490656e+04    1.189438e-08    2.649339e-12    6.018965e-09   -2.539125e-01
    2.179143e+01    1.827663e+02    2.097155e-04    6.055592e+04    1.201102e-08    2.741453e-12    6.187350e-09   -2.489125e-01
    2.176103e+01    1.825579e+02    2.338391e-04    6.676722e+04    1.212980e-08    2.836707e-12    6.358155e-09   -2.439125e-01
    2.172934e+01    1.823438e+02    2.606972e-04    7.359416e+04    1.225067e-08    2.935203e-12    6.531315e-09   -2.389125e-01
    2.169639e+01    1.821248e+02    2.905933e-04    8.109576e+04    1.237357e-08    3.037041e-12    6.706740e-09   -2.339125e-01
    2.166212e+01    1.819010e+02    3.238633e-04    8.933610e+04    1.249844e-08    3.142328e-12    6.884360e-09   -2.289125e-01
    2.162652e+01    1.816729e+02    3.608793e-04    9.838530e+04    1.262521e-08    3.251169e-12    7.064085e-09   -2.239125e-01
    2.158959e+01    1.814412e+02    4.020532e-04    1.083198e+05    1.275382e-08    3.363677e-12    7.245820e-09   -2.189125e-01
    2.155131e+01    1.812067e+02    4.478405e-04    1.192231e+05    1.288418e-08    3.479965e-12    7.429480e-09   -2.139125e-01
    2.151168e+01    1.809700e+02    4.987452e-04    1.311861e+05    1.301623e-08    3.600149e-12    7.614965e-09   -2.089125e-01
    2.147071e+01    1.807323e+02    5.553240e-04    1.443082e+05    1.314989e-08    3.724352e-12    7.802170e-09   -2.039125e-01
    2.142840e+01    1.804946e+02    6.181925e-04    1.586974e+05    1.328507e-08    3.852695e-12    7.991005e-09   -1.989125e-01
    2.138476e+01    1.802582e+02    6.880310e-04    1.744717e+05    1.342170e-08    3.985307e-12    8.181350e-09   -1.939125e-01
    2.133986e+01    1.800247e+02    7.655890e-04    1.917598e+05    1.355969e-08    4.122319e-12    8.373105e-09   -1.889125e-01
    2.129367e+01    1.797954e+02    8.516965e-04    2.107017e+05    1.369895e-08    4.263864e-12    8.566160e-09   -1.839125e-01
    2.124626e+01    1.795723e+02    9.472665e-04    2.314502e+05    1.383940e-08    4.410083e-12    8.760400e-09   -1.789125e-01
    2.119770e+01    1.793575e+02    1.053308e-03    2.541719e+05    1.398095e-08    4.561118e-12    8.955715e-09   -1.739125e-01
    2.114802e+01    1.791530e+02    1.170932e-03    2.790483e+05    1.412350e-08    4.717114e-12    9.151985e-09   -1.689125e-01
    2.109731e+01    1.789615e+02    1.301365e-03    3.062774e+05    1.426696e-08    4.878223e-12    9.349100e-09   -1.639125e-01
    2.104563e+01    1.787856e+02    1.445958e-03    3.360751e+05    1.441124e-08    5.044600e-12    9.546935e-09   -1.589125e-01
    2.099309e+01    1.786282e+02    1.606196e-03    3.686769e+05    1.455624e-08    5.216405e-12    9.745375e-09   -1.539125e-01
    2.093978e+01    1.784927e+02    1.783720e-03    4.043397e+05    1.470187e-08    5.393800e-12    9.944305e-09   -1.489125e-01
    2.088582e+01    1.783824e+02    1.980334e-03    4.433439e+05    1.484804e-08    5.576960e-12    1.014360e-08   -1.439125e-01
    2.083132e+01    1.783013e+02    2.198023e-03    4.859960e+05    1.499465e-08    5.766055e-12    1.034315e-08   -1.389125e-01
    2.077639e+01    1.782531e+02    2.438975e-03    5.326299e+05    1.514161e-08    5.961260e-12    1.054283e-08   -1.339125e-01
    2.072121e+01    1.782426e+02    2.705596e-03    5.836118e+05    1.528882e-08    6.162770e-12    1.074253e-08   -1.289125e-01
    2.066588e+01    1.782741e+02    3.000533e-03    6.393408e+05    1.543619e-08    6.370765e-12    1.094212e-08   -1.239125e-01
    2.061056e+01    1.783525e+02    3.326700e-03    7.002534e+05    1.558362e-08    6.585450e-12    1.114151e-08   -1.189125e-01
    2.055538e+01    1.784830e+02    3.687304e-03    7.668272e+05    1.573103e-08    6.807015e-12    1.134057e-08   -1.139125e-01
    2.050050e+01    1.786708e+02    4.085872e-03    8.395848e+05    1.587832e-08    7.035680e-12    1.153920e-08   -1.089125e-01
    2.044601e+01    1.789215e+02    4.526283e-03    9.190967e+05    1.602542e-08    7.271650e-12    1.173727e-08   -1.039125e-01
    2.039207e+01    1.792409e+02    5.012810e-03    1.005989e+06    1.617222e-08    7.515145e-12    1.193469e-08   -9.891250e-02
    2.033878e+01    1.796347e+02    5.550140e-03    1.100944e+06    1.631864e-08    7.766400e-12    1.213136e-08   -9.391250e-02
    2.028622e+01    1.801090e+02    6.143445e-03    1.204709e+06    1.646459e-08    8.025640e-12    1.232716e-08   -8.891250e-02
    2.023447e+01    1.806698e+02    6.798395e-03    1.318101e+06    1.661001e-08    8.293110e-12    1.252200e-08   -8.391250e-02
    2.018355e+01    1.813228e+02    7.521240e-03    1.442009e+06    1.675480e-08    8.569065e-12    1.271579e-08   -7.891250e-02
    2.013346e+01    1.820741e+02    8.318845e-03    1.577405e+06    1.689889e-08    8.853750e-12    1.290843e-08   -7.391250e-02
    2.008416e+01    1.829292e+02    9.198745e-03    1.725347e+06    1.704221e-08    9.147435e-12    1.309984e-08   -6.891250e-02
    2.003556e+01    1.838936e+02    1.016923e-02    1.886984e+06    1.718468e-08    9.450390e-12    1.328991e-08   -6.391250e-02
    1.998753e+01    1.849724e+02    1.123938e-02    2.063563e+06    1.732622e-08    9.762900e-12    1.347858e-08   -5.891250e-02
    1.993988e+01    1.861703e+02    1.241918e-02    2.256432e+06    1.746680e-08    1.008525e-11    1.366577e-08   -5.391250e-02
    1.989235e+01    1.874911e+02    1.371956e-02    2.467050e+06    1.760632e-08    1.041775e-11    1.385139e-08   -4.891250e-02
    1.984463e+01    1.889385e+02    1.515250e-02    2.696982e+06    1.774472e-08    1.076069e-11    1.403537e-08   -4.391250e-02
    1.979635e+01    1.905148e+02    1.673108e-02    2.947908e+06    1.788197e-08    1.111441e-11    1.421764e-08   -3.891250e-02
    1.974708e+01    1.922221e+02    1.846961e-02    3.221624e+06    1.801798e-08    1.147922e-11    1.439816e-08   -3.391250e-02
    1.969633e+01    1.940609e+02    2.038372e-02    3.520036e+06    1.815272e-08    1.185547e-11    1.457684e-08   -2.891250e-02
    1.964355e+01    1.960310e+02    2.249036e-02    3.845163e+06    1.828613e-08    1.224350e-11    1.475364e-08   -2.391250e-02
    1.958814e+01    1.981308e+02    2.480803e-02    4.199128e+06    1.841817e-08    1.264368e-11    1.492849e-08   -1.891250e-02
    1.952948e+01    2.003577e+02    2.735674e-02    4.584157e+06    1.854880e-08    1.305639e-11    1.510136e-08   -1.391250e-02
    1.946688e+01    2.027072e+02    3.015817e-02    5.002556e+06    1.867796e-08    1.348201e-11    1.527218e-08   -8.912500e-03
    1.939966e+01    2.051739e+02    3.323568e-02    5.456710e+06    1.880564e-08    1.392092e-11    1.544094e-08   -3.912500e-03
    1.932712e+01    2.077508e+02    3.661446e-02    5.949063e+06    1.893178e-08    1.437356e-11    1.560757e-08    1.087500e-03
    1.924856e+01    2.104295e+02    4.032152e-02    6.482094e+06    1.905635e-08    1.484035e-11    1.577206e-08    6.087500e-03
    1.916329e+01    2.131999e+02    4.438572e-02    7.058296e+06    1.917934e-08    1.532172e-11    1.593436e-08    1.108750e-02
    1.907067e+01    2.160506e+02    4.883787e-02    7.680145e+06    1.930072e-08    1.581813e-11    1.609446e-08    1.608750e-02
    1.897009e+01    2.189687e+02    5.371065e-02    8.350083e+06    1.942045e-08    1.633005e-11    1.625232e-08    2.108750e-02
    1.886101e+01    2.219402e+02    5.903865e-02    9.070475e+06    1.953851e-08    1.685795e-11    1.640792e-08    2.608750e-02
    1.874291e+01    2.249495e+02    6.485840e-02    9.843567e+06    1.965490e-08    1.740236e-11    1.656125e-08    3.108750e-02
    1.861541e+01    2.279800e+02    7.120805e-02    1.067146e+07    1.976960e-08    1.796378e-11    1.671230e-08    3.608750e-02
    1.847818e+01    2.310147e+02    7.812765e-02    1.155610e+07    1.988258e-08    1.854275e-11    1.686105e-08    4.108750e-02
    1.833099e+01    2.340348e+02    8.565875e-02    1.249918e+07    1.999385e-08    1.913983e-11    1.700749e-08    4.608750e-02
    1.817372e+01    2.370217e+02    9.384430e-02    1.350215e+07    2.010339e-08    1.975560e-11    1.715162e-08    5.108750e-02
    1.800633e+01    2.399560e+02    1.027287e-01    1.456616e+07    2.021119e-08    2.039065e-11    1.729343e-08    5.608750e-02
    1.782888e+01    2.428183e+02    1.123573e-01    1.569207e+07    2.031726e-08    2.104558e-11    1.743293e-08    6.108750e-02
    1.764152e+01    2.455891e+02    1.227763e-01    1.688034e+07    2.042159e-08    2.172105e-11    1.757011e-08    6.608750e-02
    1.744454e+01    2.482492e+02    1.340326e-01    1.813111e+07    2.052418e-08    2.241771e-11    1.770499e-08    7.108750e-02
    1.723826e+01    2.507801e+02    1.461734e-01    1.944408e+07    2.062502e-08    2.313623e-11    1.783756e-08    7.608750e-02
    1.702309e+01    2.531637e+02    1.592461e-01    2.081856e+07    2.072415e-08    2.387735e-11    1.796785e-08    8.108750e-02
    1.679954e+01    2.553830e+02    1.732976e-01    2.225346e+07    2.082154e-08    2.464177e-11    1.809584e-08    8.608750e-02
    1.656817e+01    2.574219e+02    1.883747e-01    2.374726e+07    2.091721e-08    2.543026e-11    1.822157e-08    9.108750e-02
    1.632958e+01    2.592658e+02    2.045230e-01    2.529804e+07    2.101117e-08    2.624360e-11    1.834505e-08    9.608750e-02
    1.608441e+01    2.609017e+02    2.217871e-01    2.690349e+07    2.110343e-08    2.708261e-11    1.846629e-08    1.010875e-01
    1.583337e+01    2.623175e+02    2.402103e-01    2.856091e+07    2.119401e-08    2.794813e-11    1.858531e-08    1.060875e-01
    1.557715e+01    2.635036e+02    2.598340e-01    3.026728e+07    2.128290e-08    2.884103e-11    1.870213e-08    1.110875e-01
    1.531649e+01    2.644514e+02    2.806979e-01    3.201925e+07    2.137013e-08    2.976222e-11    1.881678e-08    1.160875e-01
    1.505210e+01    2.651547e+02    3.028391e-01    3.381319e+07    2.145573e-08    3.071263e-11    1.892927e-08    1.210875e-01
    1.478472e+01    2.656086e+02    3.262927e-01    3.564523e+07    2.153968e-08    3.169325e-11    1.903962e-08    1.260875e-01
    1.451507e+01    2.658106e+02    3.510909e-01    3.751132e+07    2.162204e-08    3.270507e-11    1.914787e-08    1.310875e-01
    1.424384e+01    2.657591e+02    3.772631e-01    3.940723e+07    2.170279e-08    3.374912e-11    1.925403e-08    1.360875e-01
    1.397171e+01    2.654551e+02    4.048359e-01    4.132867e+07    2.178198e-08    3.482652e-11    1.935815e-08    1.410875e-01
    1.369933e+01    2.649006e+02    4.338329e-01    4.327127e+07    2.185961e-08    3.593837e-11    1.946023e-08    1.460875e-01
    1.342732e+01    2.640994e+02    4.642744e-01    4.523063e+07    2.193570e-08    3.708583e-11    1.956032e-08    1.510875e-01
    1.315626e+01    2.630568e+02    4.961777e-01    4.720242e+07    2.201029e-08    3.827013e-11    1.965843e-08    1.560875e-01
    1.288671e+01    2.617791e+02    5.295570e-01    4.918237e+07    2.208339e-08    3.949250e-11    1.975461e-08    1.610875e-01
    1.261919e+01    2.602743e+02    5.644235e-01    5.116636e+07    2.215502e-08    4.075425e-11    1.984888e-08    1.660875e-01
    1.235414e+01    2.585505e+02    6.007850e-01    5.315031e+07    2.222521e-08    4.205672e-11    1.994126e-08    1.710875e-01
    1.209202e+01    2.566179e+02    6.386465e-01    5.513051e+07    2.229397e-08    4.340133e-11    2.003179e-08    1.760875e-01
    1.183319e+01    2.544861e+02    6.780105e-01    5.710322e+07    2.236135e-08    4.478951e-11    2.012051e-08    1.810875e-01
    1.157804e+01    2.521665e+02    7.188760e-01    5.906513e+07    2.242735e-08    4.622279e-11    2.020743e-08    1.860875e-01
    1.132685e+01    2.496703e+02    7.612405e-01    6.101311e+07    2.249200e-08    4.770271e-11    2.029260e-08    1.910875e-01
    1.107991e+01    2.470089e+02    8.050985e-01    6.294421e+07    2.255534e-08    4.923091e-11    2.037605e-08    1.960875e-01
    1.083745e+01    2.441945e+02    8.504420e-01    6.485592e+07    2.261738e-08    5.080905e-11    2.045780e-08    2.010875e-01
    1.059968e+01    2.412389e+02    8.972610e-01    6.674582e+07    2.267814e-08    5.243895e-11    2.053789e-08    2.060875e-01
    1.036676e+01    2.381541e+02    9.455445e-01    6.861190e+07    2.273766e-08    5.412235e-11    2.061635e-08    2.110875e-01
    1.013884e+01    2.349518e+02    9.952790e-01    7.045235e+07    2.279596e-08    5.586120e-11    2.069321e-08    2.160875e-01
    9.916035e+00    2.316437e+02    1.046449e+00    7.226566e+07    2.285306e-08    5.765740e-11    2.076850e-08    2.210875e-01
    9.698418e+00    2.282411e+02    1.099039e+00    7.405059e+07    2.290899e-08    5.951300e-11    2.084227e-08    2.260875e-01
    9.486051e+00    2.247551e+02    1.153032e+00    7.580606e+07    2.296377e-08    6.143015e-11    2.091452e-08    2.310875e-01
    9.278970e+00    2.211963e+02    1.208411e+00    7.753137e+07    2.301743e-08    6.341105e-11    2.098530e-08    2.360875e-01
    9.077188e+00    2.175746e+02    1.265155e+00    7.922594e+07    2.307000e-08    6.545790e-11    2.105464e-08    2.410875e-01
    8.880702e+00    2.139003e+02    1.323244e+00    8.088938e+07    2.312150e-08    6.757320e-11    2.112256e-08    2.460875e-01
    8.689494e+00    2.101822e+02    1.382661e+00    8.252161e+07    2.317195e-08    6.975930e-11    2.118910e-08    2.510875e-01
    8.503520e+00    2.064290e+02    1.443384e+00    8.412259e+07    2.322139e-08    7.201885e-11    2.125428e-08    2.560875e-01
    8.322733e+00    2.026490e+02    1.505392e+00    8.569248e+07    2.326983e-08    7.435445e-11    2.131814e-08    2.610875e-01
    8.147067e+00    1.988499e+02    1.568667e+00    8.723165e+07    2.331729e-08    7.676890e-11    2.138070e-08    2.660875e-01
    7.976453e+00    1.950390e+02    1.633187e+00    8.874054e+07    2.336381e-08    7.926505e-11    2.144201e-08    2.710875e-01
    7.810811e+00    1.912227e+02    1.698931e+00    9.021972e+07    2.340941e-08    8.184585e-11    2.150207e-08    2.760875e-01
    7.650039e+00    1.874072e+02    1.765880e+00    9.166976e+07    2.345410e-08    8.451450e-11    2.156091e-08    2.810875e-01
    7.494049e+00    1.835982e+02    1.834015e+00    9.309146e+07    2.349793e-08    8.727420e-11    2.161858e-08    2.860875e-01
    7.342737e+00    1.798007e+02    1.903315e+00    9.448564e+07    2.354090e-08    9.012825e-11    2.167508e-08    2.910875e-01
    7.195989e+00    1.760193e+02    1.973764e+00    9.585306e+07    2.358305e-08    9.308015e-11    2.173045e-08    2.960875e-01
