# sky130 nfet_01v8 gm/ID Processed Lookup Table
# Corner: ss
# Temperature: 75C
# W = 2.0 um
# L = 5.22 um (5220 nm)
# Columns: gm/id [1/V]  gm/gds [V/V]  id/W [A/m]  ft [Hz]  Cgg/W [F/m]  Cgd/W [F/m]  Cgs/W [F/m]  Vov [V]
#         gm/id          gm/gds            id/W              ft           Cgg/W           Cgd/W           Cgs/W             Vov
    2.363935e+01    2.355690e+02    2.869470e-07    9.791179e+01    1.102611e-08    4.735356e-13    1.103559e-09   -5.075931e-01
    2.363728e+01    2.355485e+02    3.229473e-07    1.101532e+02    1.102941e-08    4.896739e-13    1.146687e-09   -5.025931e-01
    2.363510e+01    2.355269e+02    3.634603e-07    1.239051e+02    1.103431e-08    5.064010e-13    1.191559e-09   -4.975931e-01
    2.363278e+01    2.355041e+02    4.090511e-07    1.393508e+02    1.104087e-08    5.237395e-13    1.238236e-09   -4.925931e-01
    2.363033e+01    2.354799e+02    4.603550e-07    1.566950e+02    1.104912e-08    5.417125e-13    1.286780e-09   -4.875931e-01
    2.362773e+01    2.354543e+02    5.180870e-07    1.761669e+02    1.105912e-08    5.603445e-13    1.337254e-09   -4.825931e-01
    2.362498e+01    2.354269e+02    5.830510e-07    1.980227e+02    1.107090e-08    5.796600e-13    1.389723e-09   -4.775931e-01
    2.362206e+01    2.353981e+02    6.561520e-07    2.225487e+02    1.108453e-08    5.996850e-13    1.444252e-09   -4.725931e-01
    2.361895e+01    2.353676e+02    7.384070e-07    2.500644e+02    1.110004e-08    6.204465e-13    1.500908e-09   -4.675931e-01
    2.361567e+01    2.353352e+02    8.309600e-07    2.809270e+02    1.111750e-08    6.419720e-13    1.559759e-09   -4.625931e-01
    2.361219e+01    2.353011e+02    9.350980e-07    3.155352e+02    1.113693e-08    6.642910e-13    1.620872e-09   -4.575931e-01
    2.360850e+01    2.352647e+02    1.052268e-06    3.543337e+02    1.115841e-08    6.874335e-13    1.684319e-09   -4.525931e-01
    2.360458e+01    2.352263e+02    1.184098e-06    3.978189e+02    1.118198e-08    7.114295e-13    1.750166e-09   -4.475931e-01
    2.360044e+01    2.351856e+02    1.332416e-06    4.465438e+02    1.120769e-08    7.363120e-13    1.818484e-09   -4.425931e-01
    2.359606e+01    2.351426e+02    1.499279e-06    5.011256e+02    1.123559e-08    7.621135e-13    1.889342e-09   -4.375931e-01
    2.359141e+01    2.350971e+02    1.687003e-06    5.622511e+02    1.126574e-08    7.888690e-13    1.962812e-09   -4.325931e-01
    2.358649e+01    2.350489e+02    1.898186e-06    6.306865e+02    1.129818e-08    8.166140e-13    2.038962e-09   -4.275931e-01
    2.358127e+01    2.349979e+02    2.135750e-06    7.072837e+02    1.133298e-08    8.453850e-13    2.117862e-09   -4.225931e-01
    2.357574e+01    2.349439e+02    2.402983e-06    7.929920e+02    1.137018e-08    8.752205e-13    2.199583e-09   -4.175931e-01
    2.356990e+01    2.348870e+02    2.703575e-06    8.888670e+02    1.140984e-08    9.061595e-13    2.284193e-09   -4.125931e-01
    2.356371e+01    2.348266e+02    3.041678e-06    9.960827e+02    1.145201e-08    9.382430e-13    2.371758e-09   -4.075931e-01
    2.355716e+01    2.347630e+02    3.421953e-06    1.115945e+03    1.149673e-08    9.715130e-13    2.462346e-09   -4.025931e-01
    2.355022e+01    2.346956e+02    3.849641e-06    1.249904e+03    1.154407e-08    1.006014e-12    2.556023e-09   -3.975931e-01
    2.354288e+01    2.346244e+02    4.330630e-06    1.399573e+03    1.159406e-08    1.041789e-12    2.652853e-09   -3.925931e-01
    2.353512e+01    2.345493e+02    4.871530e-06    1.566740e+03    1.164676e-08    1.078886e-12    2.752899e-09   -3.875931e-01
    2.352690e+01    2.344699e+02    5.479770e-06    1.753394e+03    1.170221e-08    1.117353e-12    2.856220e-09   -3.825931e-01
    2.351820e+01    2.343861e+02    6.163695e-06    1.961740e+03    1.176045e-08    1.157238e-12    2.962874e-09   -3.775931e-01
    2.350901e+01    2.342976e+02    6.932665e-06    2.194222e+03    1.182154e-08    1.198595e-12    3.072918e-09   -3.725931e-01
    2.349928e+01    2.342042e+02    7.797205e-06    2.453555e+03    1.188551e-08    1.241474e-12    3.186405e-09   -3.675931e-01
    2.348900e+01    2.341058e+02    8.769120e-06    2.742744e+03    1.195241e-08    1.285931e-12    3.303384e-09   -3.625931e-01
    2.347813e+01    2.340019e+02    9.861660e-06    3.065121e+03    1.202226e-08    1.332023e-12    3.423903e-09   -3.575931e-01
    2.346664e+01    2.338925e+02    1.108970e-05    3.424376e+03    1.209510e-08    1.379806e-12    3.548004e-09   -3.525931e-01
    2.345451e+01    2.337772e+02    1.246993e-05    3.824593e+03    1.217097e-08    1.429341e-12    3.675727e-09   -3.475931e-01
    2.344169e+01    2.336559e+02    1.402106e-05    4.270294e+03    1.224989e-08    1.480691e-12    3.807108e-09   -3.425931e-01
    2.342816e+01    2.335281e+02    1.576411e-05    4.766481e+03    1.233189e-08    1.533917e-12    3.942177e-09   -3.375931e-01
    2.341387e+01    2.333937e+02    1.772260e-05    5.318688e+03    1.241699e-08    1.589086e-12    4.080961e-09   -3.325931e-01
    2.339879e+01    2.332525e+02    1.992296e-05    5.933027e+03    1.250521e-08    1.646265e-12    4.223481e-09   -3.275931e-01
    2.338287e+01    2.331040e+02    2.239477e-05    6.616261e+03    1.259656e-08    1.705524e-12    4.369754e-09   -3.225931e-01
    2.336609e+01    2.329482e+02    2.517120e-05    7.375855e+03    1.269106e-08    1.766935e-12    4.519791e-09   -3.175931e-01
    2.334840e+01    2.327845e+02    2.828939e-05    8.220050e+03    1.278870e-08    1.830570e-12    4.673599e-09   -3.125931e-01
    2.332976e+01    2.326130e+02    3.179098e-05    9.157954e+03    1.288950e-08    1.896508e-12    4.831177e-09   -3.075931e-01
    2.331011e+01    2.324332e+02    3.572257e-05    1.019959e+04    1.299345e-08    1.964824e-12    4.992519e-09   -3.025931e-01
    2.328943e+01    2.322450e+02    4.013633e-05    1.135607e+04    1.310053e-08    2.035600e-12    5.157615e-09   -2.975931e-01
    2.326767e+01    2.320482e+02    4.509067e-05    1.263956e+04    1.321075e-08    2.108918e-12    5.326440e-09   -2.925931e-01
    2.324475e+01    2.318424e+02    5.065090e-05    1.406354e+04    1.332409e-08    2.184863e-12    5.498980e-09   -2.875931e-01
    2.322069e+01    2.316277e+02    5.689005e-05    1.564285e+04    1.344051e-08    2.263524e-12    5.675195e-09   -2.825931e-01
    2.319538e+01    2.314036e+02    6.388990e-05    1.739379e+04    1.356000e-08    2.344990e-12    5.855050e-09   -2.775931e-01
    2.316880e+01    2.311703e+02    7.174170e-05    1.933433e+04    1.368252e-08    2.429353e-12    6.038500e-09   -2.725931e-01
    2.314090e+01    2.309278e+02    8.054750e-05    2.148427e+04    1.380804e-08    2.516709e-12    6.225495e-09   -2.675931e-01
    2.311162e+01    2.306757e+02    9.042125e-05    2.386532e+04    1.393651e-08    2.607156e-12    6.415980e-09   -2.625931e-01
    2.308096e+01    2.304143e+02    1.014901e-04    2.650141e+04    1.406788e-08    2.700794e-12    6.609885e-09   -2.575931e-01
    2.304883e+01    2.301436e+02    1.138960e-04    2.941879e+04    1.420211e-08    2.797726e-12    6.807140e-09   -2.525931e-01
    2.301520e+01    2.298638e+02    1.277975e-04    3.264632e+04    1.433914e-08    2.898058e-12    7.007670e-09   -2.475931e-01
    2.298003e+01    2.295750e+02    1.433710e-04    3.621571e+04    1.447889e-08    3.001901e-12    7.211390e-09   -2.425931e-01
    2.294329e+01    2.292779e+02    1.608134e-04    4.016170e+04    1.462130e-08    3.109365e-12    7.418205e-09   -2.375931e-01
    2.290494e+01    2.289727e+02    1.803440e-04    4.452244e+04    1.476630e-08    3.220566e-12    7.628020e-09   -2.325931e-01
    2.286494e+01    2.286600e+02    2.022069e-04    4.933975e+04    1.491383e-08    3.335623e-12    7.840735e-09   -2.275931e-01
    2.282327e+01    2.283407e+02    2.266739e-04    5.465955e+04    1.506377e-08    3.454655e-12    8.056235e-09   -2.225931e-01
    2.277990e+01    2.280152e+02    2.540474e-04    6.053197e+04    1.521605e-08    3.577790e-12    8.274410e-09   -2.175931e-01
    2.273484e+01    2.276853e+02    2.846637e-04    6.701219e+04    1.537059e-08    3.705155e-12    8.495140e-09   -2.125931e-01
    2.268805e+01    2.273515e+02    3.188965e-04    7.416038e+04    1.552727e-08    3.836880e-12    8.718290e-09   -2.075931e-01
    2.263954e+01    2.270157e+02    3.571609e-04    8.204257e+04    1.568601e-08    3.973102e-12    8.943745e-09   -2.025931e-01
    2.258932e+01    2.266793e+02    3.999179e-04    9.073093e+04    1.584670e-08    4.113961e-12    9.171360e-09   -1.975931e-01
    2.253741e+01    2.263444e+02    4.476792e-04    1.003045e+05    1.600923e-08    4.259597e-12    9.400995e-09   -1.925931e-01
    2.248381e+01    2.260130e+02    5.010125e-04    1.108498e+05    1.617349e-08    4.410159e-12    9.632515e-09   -1.875931e-01
    2.242859e+01    2.256877e+02    5.605465e-04    1.224612e+05    1.633937e-08    4.565795e-12    9.865765e-09   -1.825931e-01
    2.237178e+01    2.253711e+02    6.269795e-04    1.352422e+05    1.650676e-08    4.726662e-12    1.010060e-08   -1.775931e-01
    2.231342e+01    2.250663e+02    7.010840e-04    1.493059e+05    1.667553e-08    4.892918e-12    1.033687e-08   -1.725931e-01
    2.225362e+01    2.247769e+02    7.837150e-04    1.647759e+05    1.684556e-08    5.064725e-12    1.057442e-08   -1.675931e-01
    2.219243e+01    2.245067e+02    8.758205e-04    1.817875e+05    1.701673e-08    5.242255e-12    1.081309e-08   -1.625931e-01
    2.212995e+01    2.242595e+02    9.784480e-04    2.004886e+05    1.718893e-08    5.425675e-12    1.105272e-08   -1.575931e-01
    2.206630e+01    2.240404e+02    1.092757e-03    2.210410e+05    1.736202e-08    5.615165e-12    1.129316e-08   -1.525931e-01
    2.200159e+01    2.238539e+02    1.220028e-03    2.436220e+05    1.753588e-08    5.810905e-12    1.153425e-08   -1.475931e-01
    2.193596e+01    2.237058e+02    1.361679e-03    2.684252e+05    1.771039e-08    6.013085e-12    1.177582e-08   -1.425931e-01
    2.186955e+01    2.236016e+02    1.519273e-03    2.956629e+05    1.788541e-08    6.221890e-12    1.201772e-08   -1.375931e-01
    2.180249e+01    2.235476e+02    1.694542e-03    3.255673e+05    1.806083e-08    6.437530e-12    1.225979e-08   -1.325931e-01
    2.173495e+01    2.235506e+02    1.889394e-03    3.583929e+05    1.823652e-08    6.660195e-12    1.250188e-08   -1.275931e-01
    2.166709e+01    2.236174e+02    2.105939e-03    3.944183e+05    1.841236e-08    6.890105e-12    1.274382e-08   -1.225931e-01
    2.159906e+01    2.237555e+02    2.346504e-03    4.339488e+05    1.858822e-08    7.127465e-12    1.298546e-08   -1.175931e-01
    2.153101e+01    2.239724e+02    2.613661e-03    4.773188e+05    1.876399e-08    7.372505e-12    1.322666e-08   -1.125931e-01
    2.146308e+01    2.242764e+02    2.910244e-03    5.248945e+05    1.893955e-08    7.625440e-12    1.346725e-08   -1.075931e-01
    2.139540e+01    2.246756e+02    3.239383e-03    5.770772e+05    1.911477e-08    7.886515e-12    1.370711e-08   -1.025931e-01
    2.132806e+01    2.251783e+02    3.604531e-03    6.343053e+05    1.928954e-08    8.155970e-12    1.394607e-08   -9.759310e-02
    2.126115e+01    2.257929e+02    4.009492e-03    6.970590e+05    1.946375e-08    8.434040e-12    1.418402e-08   -9.259310e-02
    2.119472e+01    2.265281e+02    4.458462e-03    7.658628e+05    1.963731e-08    8.720995e-12    1.442079e-08   -8.759310e-02
    2.112876e+01    2.273920e+02    4.956067e-03    8.412887e+05    1.981008e-08    9.017085e-12    1.465628e-08   -8.259310e-02
    2.106323e+01    2.283928e+02    5.507400e-03    9.239604e+05    1.998198e-08    9.322585e-12    1.489035e-08   -7.759310e-02
    2.099805e+01    2.295382e+02    6.118060e-03    1.014555e+06    2.015290e-08    9.637775e-12    1.512287e-08   -7.259310e-02
    2.093303e+01    2.308356e+02    6.794225e-03    1.113806e+06    2.032275e-08    9.962935e-12    1.535373e-08   -6.759310e-02
    2.086796e+01    2.322913e+02    7.542665e-03    1.222510e+06    2.049143e-08    1.029836e-11    1.558283e-08   -6.259310e-02
    2.080255e+01    2.339114e+02    8.370820e-03    1.341524e+06    2.065886e-08    1.064436e-11    1.581004e-08   -5.759310e-02
    2.073643e+01    2.357005e+02    9.286855e-03    1.471766e+06    2.082496e-08    1.100123e-11    1.603526e-08   -5.259310e-02
    2.066918e+01    2.376624e+02    1.029970e-02    1.614221e+06    2.098963e-08    1.136932e-11    1.625840e-08   -4.759310e-02
    2.060028e+01    2.397995e+02    1.141912e-02    1.769937e+06    2.115281e-08    1.174894e-11    1.647937e-08   -4.259310e-02
    2.052915e+01    2.421129e+02    1.265578e-02    1.940022e+06    2.131441e-08    1.214044e-11    1.669808e-08   -3.759310e-02
    2.045518e+01    2.446018e+02    1.402128e-02    2.125642e+06    2.147439e-08    1.254416e-11    1.691444e-08   -3.259310e-02
    2.037768e+01    2.472641e+02    1.552823e-02    2.328021e+06    2.163266e-08    1.296048e-11    1.712839e-08   -2.759310e-02
    2.029591e+01    2.500956e+02    1.719030e-02    2.548424e+06    2.178917e-08    1.338977e-11    1.733985e-08   -2.259310e-02
    2.020913e+01    2.530902e+02    1.902227e-02    2.788156e+06    2.194386e-08    1.383240e-11    1.754875e-08   -1.759310e-02
    2.011657e+01    2.562399e+02    2.104004e-02    3.048552e+06    2.209668e-08    1.428879e-11    1.775505e-08   -1.259310e-02
    2.001747e+01    2.595348e+02    2.326070e-02    3.330957e+06    2.224759e-08    1.475934e-11    1.795867e-08   -7.593100e-03
    1.991107e+01    2.629628e+02    2.570254e-02    3.636720e+06    2.239654e-08    1.524448e-11    1.815957e-08   -2.593100e-03
    1.979667e+01    2.665097e+02    2.838505e-02    3.967171e+06    2.254349e-08    1.574465e-11    1.835771e-08    2.406900e-03
    1.967362e+01    2.701599e+02    3.132893e-02    4.323606e+06    2.268840e-08    1.626029e-11    1.855305e-08    7.406900e-03
    1.954134e+01    2.738955e+02    3.455607e-02    4.707271e+06    2.283125e-08    1.679187e-11    1.874556e-08    1.240690e-02
    1.939930e+01    2.776971e+02    3.808952e-02    5.119326e+06    2.297201e-08    1.733987e-11    1.893519e-08    1.740690e-02
    1.924711e+01    2.815437e+02    4.195340e-02    5.560844e+06    2.311064e-08    1.790479e-11    1.912194e-08    2.240690e-02
    1.908447e+01    2.854137e+02    4.617289e-02    6.032784e+06    2.324713e-08    1.848714e-11    1.930578e-08    2.740690e-02
    1.891118e+01    2.892834e+02    5.077410e-02    6.535955e+06    2.338148e-08    1.908746e-11    1.948669e-08    3.240690e-02
    1.872717e+01    2.931290e+02    5.578395e-02    7.071012e+06    2.351365e-08    1.970629e-11    1.966466e-08    3.740690e-02
    1.853248e+01    2.969262e+02    6.123015e-02    7.638440e+06    2.364364e-08    2.034418e-11    1.983969e-08    4.240690e-02
    1.832727e+01    3.006506e+02    6.714095e-02    8.238531e+06    2.377144e-08    2.100175e-11    2.001176e-08    4.740690e-02
    1.811183e+01    3.042775e+02    7.354485e-02    8.871361e+06    2.389706e-08    2.167957e-11    2.018090e-08    5.240690e-02
    1.788651e+01    3.077829e+02    8.047090e-02    9.536807e+06    2.402048e-08    2.237828e-11    2.034708e-08    5.740690e-02
    1.765180e+01    3.111435e+02    8.794795e-02    1.023451e+07    2.414170e-08    2.309853e-11    2.051032e-08    6.240690e-02
    1.740827e+01    3.143368e+02    9.600485e-02    1.096390e+07    2.426074e-08    2.384097e-11    2.067062e-08    6.740690e-02
    1.715655e+01    3.173422e+02    1.046702e-01    1.172417e+07    2.437760e-08    2.460629e-11    2.082802e-08    7.240690e-02
    1.689733e+01    3.201397e+02    1.139719e-01    1.251431e+07    2.449229e-08    2.539523e-11    2.098252e-08    7.740690e-02
    1.663138e+01    3.227114e+02    1.239374e-01    1.333309e+07    2.460481e-08    2.620851e-11    2.113412e-08    8.240690e-02
    1.635948e+01    3.250414e+02    1.345930e-01    1.417909e+07    2.471519e-08    2.704688e-11    2.128288e-08    8.740690e-02
    1.608245e+01    3.271152e+02    1.459643e-01    1.505072e+07    2.482343e-08    2.791114e-11    2.142879e-08    9.240690e-02
    1.580110e+01    3.289215e+02    1.580756e-01    1.594621e+07    2.492956e-08    2.880212e-11    2.157189e-08    9.740690e-02
    1.551628e+01    3.304501e+02    1.709495e-01    1.686368e+07    2.503359e-08    2.972064e-11    2.171221e-08    1.024069e-01
    1.522881e+01    3.316935e+02    1.846074e-01    1.780111e+07    2.513554e-08    3.066760e-11    2.184978e-08    1.074069e-01
    1.493950e+01    3.326463e+02    1.990693e-01    1.875640e+07    2.523544e-08    3.164389e-11    2.198462e-08    1.124069e-01
    1.464912e+01    3.333052e+02    2.143531e-01    1.972738e+07    2.533331e-08    3.265044e-11    2.211676e-08    1.174069e-01
    1.435843e+01    3.336688e+02    2.304753e-01    2.071187e+07    2.542917e-08    3.368824e-11    2.224626e-08    1.224069e-01
    1.406815e+01    3.337383e+02    2.474503e-01    2.170763e+07    2.552305e-08    3.475828e-11    2.237314e-08    1.274069e-01
    1.377895e+01    3.335160e+02    2.652908e-01    2.271249e+07    2.561497e-08    3.586160e-11    2.249743e-08    1.324069e-01
    1.349146e+01    3.330064e+02    2.840079e-01    2.372425e+07    2.570496e-08    3.699928e-11    2.261918e-08    1.374069e-01
    1.320626e+01    3.322153e+02    3.036104e-01    2.474080e+07    2.579306e-08    3.817243e-11    2.273842e-08    1.424069e-01
    1.292390e+01    3.311502e+02    3.241056e-01    2.576013e+07    2.587929e-08    3.938222e-11    2.285519e-08    1.474069e-01
    1.264486e+01    3.298196e+02    3.454990e-01    2.678025e+07    2.596368e-08    4.062983e-11    2.296954e-08    1.524069e-01
    1.236957e+01    3.282333e+02    3.677944e-01    2.779936e+07    2.604625e-08    4.191651e-11    2.308150e-08    1.574069e-01
    1.209844e+01    3.264017e+02    3.909941e-01    2.881570e+07    2.612706e-08    4.324354e-11    2.319112e-08    1.624069e-01
    1.183180e+01    3.243363e+02    4.150986e-01    2.982768e+07    2.620611e-08    4.461225e-11    2.329844e-08    1.674069e-01
    1.156995e+01    3.220490e+02    4.401072e-01    3.083386e+07    2.628345e-08    4.602402e-11    2.340349e-08    1.724069e-01
    1.131315e+01    3.195518e+02    4.660179e-01    3.183285e+07    2.635911e-08    4.748029e-11    2.350633e-08    1.774069e-01
    1.106162e+01    3.168576e+02    4.928272e-01    3.282350e+07    2.643312e-08    4.898254e-11    2.360699e-08    1.824069e-01
    1.081552e+01    3.139793e+02    5.205310e-01    3.380477e+07    2.650552e-08    5.053230e-11    2.370552e-08    1.874069e-01
    1.057502e+01    3.109295e+02    5.491235e-01    3.477573e+07    2.657633e-08    5.213115e-11    2.380196e-08    1.924069e-01
    1.034020e+01    3.077209e+02    5.785985e-01    3.573561e+07    2.664558e-08    5.378080e-11    2.389635e-08    1.974069e-01
    1.011115e+01    3.043661e+02    6.089490e-01    3.668375e+07    2.671333e-08    5.548285e-11    2.398874e-08    2.024069e-01
    9.887912e+00    3.008776e+02    6.401675e-01    3.761964e+07    2.677958e-08    5.723920e-11    2.407916e-08    2.074069e-01
    9.670507e+00    2.972670e+02    6.722455e-01    3.854285e+07    2.684438e-08    5.905165e-11    2.416766e-08    2.124069e-01
    9.458935e+00    2.935460e+02    7.051740e-01    3.945309e+07    2.690777e-08    6.092210e-11    2.425428e-08    2.174069e-01
    9.253178e+00    2.897261e+02    7.389445e-01    4.035020e+07    2.696977e-08    6.285250e-11    2.433906e-08    2.224069e-01
    9.053186e+00    2.858174e+02    7.735470e-01    4.123403e+07    2.703041e-08    6.484500e-11    2.442204e-08    2.274069e-01
    8.858916e+00    2.818306e+02    8.089720e-01    4.210460e+07    2.708973e-08    6.690165e-11    2.450326e-08    2.324069e-01
    8.670288e+00    2.777751e+02    8.452095e-01    4.296196e+07    2.714776e-08    6.902470e-11    2.458277e-08    2.374069e-01
    8.487210e+00    2.736599e+02    8.822505e-01    4.380622e+07    2.720453e-08    7.121645e-11    2.466060e-08    2.424069e-01
    8.309596e+00    2.694939e+02    9.200850e-01    4.463761e+07    2.726008e-08    7.347925e-11    2.473678e-08    2.474069e-01
