# sky130 nfet_01v8 gm/ID Processed Lookup Table
# Corner: ss
# Temperature: 75C
# W = 2.0 um
# L = 0.9 um (900 nm)
# Columns: gm/id [1/V]  gm/gds [V/V]  id/W [A/m]  ft [Hz]  Cgg/W [F/m]  Cgd/W [F/m]  Cgs/W [F/m]  Vov [V]
#         gm/id          gm/gds            id/W              ft           Cgg/W           Cgd/W           Cgs/W             Vov
    2.376744e+01    1.492666e+02    5.417475e-07    1.110236e+03    1.845797e-09    4.331261e-14    9.914065e-11   -5.851863e-01
    2.376627e+01    1.492593e+02    6.101065e-07    1.252407e+03    1.842644e-09    4.471407e-14    1.028713e-10   -5.801863e-01
    2.376500e+01    1.492514e+02    6.870880e-07    1.412628e+03    1.839681e-09    4.616451e-14    1.067655e-10   -5.751863e-01
    2.376367e+01    1.492431e+02    7.737770e-07    1.593166e+03    1.836913e-09    4.766581e-14    1.108308e-10   -5.701863e-01
    2.376225e+01    1.492343e+02    8.713980e-07    1.796567e+03    1.834344e-09    4.921993e-14    1.150741e-10   -5.651863e-01
    2.376076e+01    1.492250e+02    9.813275e-07    2.025694e+03    1.831979e-09    5.082890e-14    1.195031e-10   -5.601863e-01
    2.375916e+01    1.492151e+02    1.105117e-06    2.283757e+03    1.829825e-09    5.249485e-14    1.241258e-10   -5.551863e-01
    2.375748e+01    1.492046e+02    1.244511e-06    2.574366e+03    1.827885e-09    5.421995e-14    1.289501e-10   -5.501863e-01
    2.375569e+01    1.491934e+02    1.401475e-06    2.901569e+03    1.826166e-09    5.600650e-14    1.339844e-10   -5.451863e-01
    2.375378e+01    1.491816e+02    1.578223e-06    3.269910e+03    1.824674e-09    5.785695e-14    1.392373e-10   -5.401863e-01
    2.375177e+01    1.491690e+02    1.777243e-06    3.684490e+03    1.823415e-09    5.977365e-14    1.447177e-10   -5.351863e-01
    2.374963e+01    1.491558e+02    2.001340e-06    4.151026e+03    1.822394e-09    6.175925e-14    1.504348e-10   -5.301863e-01
    2.374738e+01    1.491417e+02    2.253668e-06    4.675931e+03    1.821619e-09    6.381640e-14    1.563980e-10   -5.251863e-01
    2.374496e+01    1.491267e+02    2.537781e-06    5.266385e+03    1.821097e-09    6.594795e-14    1.626169e-10   -5.201863e-01
    2.374241e+01    1.491108e+02    2.857675e-06    5.930446e+03    1.820835e-09    6.815670e-14    1.691014e-10   -5.151863e-01
    2.373971e+01    1.490940e+02    3.217852e-06    6.677133e+03    1.820839e-09    7.044570e-14    1.758618e-10   -5.101863e-01
    2.373683e+01    1.490762e+02    3.623373e-06    7.516542e+03    1.821117e-09    7.281815e-14    1.829085e-10   -5.051863e-01
    2.373380e+01    1.490574e+02    4.079939e-06    8.459982e+03    1.821678e-09    7.527720e-14    1.902523e-10   -5.001863e-01
    2.373058e+01    1.490374e+02    4.593963e-06    9.520102e+03    1.822529e-09    7.782625e-14    1.979038e-10   -4.951863e-01
    2.372716e+01    1.490161e+02    5.172660e-06    1.071105e+04    1.823677e-09    8.046885e-14    2.058746e-10   -4.901863e-01
    2.372354e+01    1.489936e+02    5.824155e-06    1.204865e+04    1.825133e-09    8.320865e-14    2.141758e-10   -4.851863e-01
    2.371969e+01    1.489698e+02    6.557585e-06    1.355058e+04    1.826903e-09    8.604945e-14    2.228191e-10   -4.801863e-01
    2.371563e+01    1.489445e+02    7.383225e-06    1.523660e+04    1.828996e-09    8.899515e-14    2.318161e-10   -4.751863e-01
    2.371130e+01    1.489178e+02    8.312650e-06    1.712879e+04    1.831422e-09    9.204985e-14    2.411789e-10   -4.701863e-01
    2.370672e+01    1.488894e+02    9.358860e-06    1.925175e+04    1.834190e-09    9.521785e-14    2.509194e-10   -4.651863e-01
    2.370188e+01    1.488593e+02    1.053649e-05    2.163302e+04    1.837308e-09    9.850355e-14    2.610502e-10   -4.601863e-01
    2.369674e+01    1.488275e+02    1.186202e-05    2.430322e+04    1.840786e-09    1.019115e-13    2.715838e-10   -4.551863e-01
    2.369129e+01    1.487938e+02    1.335395e-05    2.729658e+04    1.844634e-09    1.054465e-13    2.825325e-10   -4.501863e-01
    2.368551e+01    1.487581e+02    1.503309e-05    3.065118e+04    1.848861e-09    1.091134e-13    2.939090e-10   -4.451863e-01
    2.367940e+01    1.487204e+02    1.692288e-05    3.440948e+04    1.853476e-09    1.129174e-13    3.057261e-10   -4.401863e-01
    2.367293e+01    1.486803e+02    1.904963e-05    3.861878e+04    1.858489e-09    1.168638e-13    3.179964e-10   -4.351863e-01
    2.366608e+01    1.486381e+02    2.144293e-05    4.333167e+04    1.863910e-09    1.209581e-13    3.307325e-10   -4.301863e-01
    2.365880e+01    1.485932e+02    2.413607e-05    4.860670e+04    1.869749e-09    1.252060e-13    3.439474e-10   -4.251863e-01
    2.365111e+01    1.485458e+02    2.716644e-05    5.450899e+04    1.876015e-09    1.296136e-13    3.576534e-10   -4.201863e-01
    2.364298e+01    1.484958e+02    3.057608e-05    6.111093e+04    1.882717e-09    1.341868e-13    3.718632e-10   -4.151863e-01
    2.363435e+01    1.484427e+02    3.441221e-05    6.849283e+04    1.889866e-09    1.389321e-13    3.865893e-10   -4.101863e-01
    2.362524e+01    1.483867e+02    3.872791e-05    7.674411e+04    1.897472e-09    1.438561e-13    4.018438e-10   -4.051863e-01
    2.361557e+01    1.483274e+02    4.358281e-05    8.596376e+04    1.905542e-09    1.489656e-13    4.176388e-10   -4.001863e-01
    2.360536e+01    1.482648e+02    4.904388e-05    9.626184e+04    1.914086e-09    1.542676e-13    4.339860e-10   -3.951863e-01
    2.359456e+01    1.481987e+02    5.518635e-05    1.077603e+05    1.923113e-09    1.597697e-13    4.508971e-10   -3.901863e-01
    2.358313e+01    1.481288e+02    6.209465e-05    1.205942e+05    1.932633e-09    1.654792e-13    4.683830e-10   -3.851863e-01
    2.357106e+01    1.480550e+02    6.986365e-05    1.349134e+05    1.942653e-09    1.714040e-13    4.864547e-10   -3.801863e-01
    2.355829e+01    1.479772e+02    7.859980e-05    1.508838e+05    1.953182e-09    1.775524e-13    5.051225e-10   -3.751863e-01
    2.354479e+01    1.478950e+02    8.842255e-05    1.686888e+05    1.964227e-09    1.839326e-13    5.243960e-10   -3.701863e-01
    2.353051e+01    1.478083e+02    9.946600e-05    1.885315e+05    1.975797e-09    1.905534e-13    5.442855e-10   -3.651863e-01
    2.351545e+01    1.477169e+02    1.118804e-04    2.106366e+05    1.987897e-09    1.974238e-13    5.647985e-10   -3.601863e-01
    2.349953e+01    1.476205e+02    1.258347e-04    2.352522e+05    2.000534e-09    2.045530e-13    5.859440e-10   -3.551863e-01
    2.348273e+01    1.475190e+02    1.415177e-04    2.626524e+05    2.013715e-09    2.119507e-13    6.077295e-10   -3.501863e-01
    2.346499e+01    1.474121e+02    1.591416e-04    2.931400e+05    2.027445e-09    2.196266e-13    6.301615e-10   -3.451863e-01
    2.344628e+01    1.472995e+02    1.789441e-04    3.270491e+05    2.041730e-09    2.275912e-13    6.532460e-10   -3.401863e-01
    2.342654e+01    1.471811e+02    2.011912e-04    3.647482e+05    2.056573e-09    2.358549e-13    6.769890e-10   -3.351863e-01
    2.340574e+01    1.470566e+02    2.261813e-04    4.066437e+05    2.071978e-09    2.444287e-13    7.013935e-10   -3.301863e-01
    2.338380e+01    1.469257e+02    2.542482e-04    4.531829e+05    2.087948e-09    2.533238e-13    7.264645e-10   -3.251863e-01
    2.336069e+01    1.467883e+02    2.857659e-04    5.048592e+05    2.104486e-09    2.625517e-13    7.522035e-10   -3.201863e-01
    2.333637e+01    1.466440e+02    3.211525e-04    5.622154e+05    2.121593e-09    2.721246e-13    7.786125e-10   -3.151863e-01
    2.331076e+01    1.464928e+02    3.608761e-04    6.258484e+05    2.139270e-09    2.820546e-13    8.056920e-10   -3.101863e-01
    2.328383e+01    1.463342e+02    4.054597e-04    6.964150e+05    2.157516e-09    2.923546e-13    8.334415e-10   -3.051863e-01
    2.325550e+01    1.461681e+02    4.554885e-04    7.746369e+05    2.176332e-09    3.030376e-13    8.618590e-10   -3.001863e-01
    2.322575e+01    1.459945e+02    5.116160e-04    8.613071e+05    2.195715e-09    3.141173e-13    8.909425e-10   -2.951863e-01
    2.319450e+01    1.458129e+02    5.745720e-04    9.572954e+05    2.215663e-09    3.256072e-13    9.206880e-10   -2.901863e-01
    2.316168e+01    1.456233e+02    6.451720e-04    1.063557e+06    2.236172e-09    3.375221e-13    9.510900e-10   -2.851863e-01
    2.312729e+01    1.454254e+02    7.243245e-04    1.181139e+06    2.257237e-09    3.498764e-13    9.821430e-10   -2.801863e-01
    2.309124e+01    1.452193e+02    8.130450e-04    1.311190e+06    2.278854e-09    3.626854e-13    1.013839e-09   -2.751863e-01
    2.305347e+01    1.450048e+02    9.124645e-04    1.454966e+06    2.301016e-09    3.759647e-13    1.046170e-09   -2.701863e-01
    2.301395e+01    1.447818e+02    1.023843e-03    1.613845e+06    2.323715e-09    3.897303e-13    1.079126e-09   -2.651863e-01
    2.297263e+01    1.445504e+02    1.148584e-03    1.789333e+06    2.346944e-09    4.039988e-13    1.112695e-09   -2.601863e-01
    2.292947e+01    1.443105e+02    1.288252e-03    1.983077e+06    2.370693e-09    4.187872e-13    1.146867e-09   -2.551863e-01
    2.288441e+01    1.440623e+02    1.444585e-03    2.196879e+06    2.394952e-09    4.341128e-13    1.181627e-09   -2.501863e-01
    2.283744e+01    1.438059e+02    1.619516e-03    2.432704e+06    2.419710e-09    4.499937e-13    1.216960e-09   -2.451863e-01
    2.278851e+01    1.435416e+02    1.815196e-03    2.692703e+06    2.444956e-09    4.664483e-13    1.252852e-09   -2.401863e-01
    2.273760e+01    1.432696e+02    2.034010e-03    2.979218e+06    2.470675e-09    4.834955e-13    1.289285e-09   -2.351863e-01
    2.268470e+01    1.429902e+02    2.278611e-03    3.294808e+06    2.496854e-09    5.011545e-13    1.326240e-09   -2.301863e-01
    2.262979e+01    1.427040e+02    2.551937e-03    3.642258e+06    2.523480e-09    5.194460e-13    1.363701e-09   -2.251863e-01
    2.257288e+01    1.424117e+02    2.857252e-03    4.024615e+06    2.550535e-09    5.383900e-13    1.401645e-09   -2.201863e-01
    2.251395e+01    1.421137e+02    3.198169e-03    4.445182e+06    2.578004e-09    5.580075e-13    1.440052e-09   -2.151863e-01
    2.245304e+01    1.418111e+02    3.578689e-03    4.907571e+06    2.605870e-09    5.783205e-13    1.478901e-09   -2.101863e-01
    2.239016e+01    1.415046e+02    4.003246e-03    5.415705e+06    2.634113e-09    5.993510e-13    1.518168e-09   -2.051863e-01
    2.232536e+01    1.411954e+02    4.476740e-03    5.973862e+06    2.662718e-09    6.211215e-13    1.557829e-09   -2.001863e-01
    2.225868e+01    1.408845e+02    5.004590e-03    6.586690e+06    2.691664e-09    6.436560e-13    1.597860e-09   -1.951863e-01
    2.219018e+01    1.405735e+02    5.592790e-03    7.259255e+06    2.720930e-09    6.669785e-13    1.638236e-09   -1.901863e-01
    2.211993e+01    1.402637e+02    6.247955e-03    7.997060e+06    2.750498e-09    6.911130e-13    1.678931e-09   -1.851863e-01
    2.204802e+01    1.399569e+02    6.977390e-03    8.806105e+06    2.780346e-09    7.160850e-13    1.719919e-09   -1.801863e-01
    2.197453e+01    1.396549e+02    7.789155e-03    9.692905e+06    2.810452e-09    7.419210e-13    1.761171e-09   -1.751863e-01
    2.189961e+01    1.393596e+02    8.692130e-03    1.066456e+07    2.840796e-09    7.686475e-13    1.802663e-09   -1.701863e-01
    2.182336e+01    1.390732e+02    9.696120e-03    1.172878e+07    2.871355e-09    7.962910e-13    1.844366e-09   -1.651863e-01
    2.174588e+01    1.387978e+02    1.081193e-02    1.289397e+07    2.902108e-09    8.248805e-13    1.886251e-09   -1.601863e-01
    2.166733e+01    1.385358e+02    1.205143e-02    1.416927e+07    2.933030e-09    8.544445e-13    1.928290e-09   -1.551863e-01
    2.158785e+01    1.382898e+02    1.342772e-02    1.556463e+07    2.964101e-09    8.850120e-13    1.970456e-09   -1.501863e-01
    2.150758e+01    1.380623e+02    1.495522e-02    1.709088e+07    2.995298e-09    9.166140e-13    2.012719e-09   -1.451863e-01
    2.142664e+01    1.378559e+02    1.664977e-02    1.875979e+07    3.026597e-09    9.492815e-13    2.055052e-09   -1.401863e-01
    2.134520e+01    1.376733e+02    1.852879e-02    2.058417e+07    3.057976e-09    9.830460e-13    2.097426e-09   -1.351863e-01
    2.126336e+01    1.375172e+02    2.061146e-02    2.257797e+07    3.089412e-09    1.017941e-12    2.139815e-09   -1.301863e-01
    2.118123e+01    1.373900e+02    2.291883e-02    2.475633e+07    3.120884e-09    1.053999e-12    2.182188e-09   -1.251863e-01
    2.109892e+01    1.372944e+02    2.547403e-02    2.713570e+07    3.152368e-09    1.091254e-12    2.224519e-09   -1.201863e-01
    2.101648e+01    1.372326e+02    2.830244e-02    2.973392e+07    3.183843e-09    1.129744e-12    2.266781e-09   -1.151863e-01
    2.093393e+01    1.372066e+02    3.143192e-02    3.257031e+07    3.215288e-09    1.169504e-12    2.308948e-09   -1.101863e-01
    2.085129e+01    1.372183e+02    3.489303e-02    3.566581e+07    3.246681e-09    1.210571e-12    2.350993e-09   -1.051863e-01
    2.076850e+01    1.372691e+02    3.871924e-02    3.904299e+07    3.278001e-09    1.252983e-12    2.392890e-09   -1.001863e-01
    2.068548e+01    1.373600e+02    4.294721e-02    4.272618e+07    3.309227e-09    1.296780e-12    2.434615e-09   -9.518630e-02
    2.060205e+01    1.374915e+02    4.761704e-02    4.674146e+07    3.340340e-09    1.342002e-12    2.476143e-09   -9.018630e-02
    2.051803e+01    1.376635e+02    5.277255e-02    5.111682e+07    3.371321e-09    1.388692e-12    2.517451e-09   -8.518630e-02
    2.043317e+01    1.378753e+02    5.846155e-02    5.588211e+07    3.402150e-09    1.436892e-12    2.558516e-09   -8.018630e-02
    2.034712e+01    1.381254e+02    6.473620e-02    6.106896e+07    3.432810e-09    1.486645e-12    2.599315e-09   -7.518630e-02
    2.025949e+01    1.384116e+02    7.165320e-02    6.671084e+07    3.463282e-09    1.537996e-12    2.639829e-09   -7.018630e-02
    2.016988e+01    1.387310e+02    7.927415e-02    7.284303e+07    3.493551e-09    1.590993e-12    2.680035e-09   -6.518630e-02
    2.007777e+01    1.390796e+02    8.766585e-02    7.950230e+07    3.523599e-09    1.645683e-12    2.719916e-09   -6.018630e-02
    1.998264e+01    1.394529e+02    9.690055e-02    8.672689e+07    3.553411e-09    1.702115e-12    2.759451e-09   -5.518630e-02
    1.988392e+01    1.398454e+02    1.070561e-01    9.455622e+07    3.582971e-09    1.760338e-12    2.798625e-09   -5.018630e-02
    1.978100e+01    1.402506e+02    1.182165e-01    1.030306e+08    3.612268e-09    1.820407e-12    2.837419e-09   -4.518630e-02
    1.967329e+01    1.406617e+02    1.304715e-01    1.121910e+08    3.641287e-09    1.882374e-12    2.875819e-09   -4.018630e-02
    1.956016e+01    1.410709e+02    1.439176e-01    1.220784e+08    3.670014e-09    1.946293e-12    2.913809e-09   -3.518630e-02
    1.944102e+01    1.414697e+02    1.586573e-01    1.327336e+08    3.698439e-09    2.012221e-12    2.951377e-09   -3.018630e-02
    1.931529e+01    1.418493e+02    1.747996e-01    1.441965e+08    3.726550e-09    2.080217e-12    2.988508e-09   -2.518630e-02
    1.918244e+01    1.422004e+02    1.924599e-01    1.565059e+08    3.754338e-09    2.150341e-12    3.025192e-09   -2.018630e-02
    1.904198e+01    1.425137e+02    2.117597e-01    1.696985e+08    3.781792e-09    2.222654e-12    3.061417e-09   -1.518630e-02
    1.889351e+01    1.427794e+02    2.328266e-01    1.838084e+08    3.808904e-09    2.297221e-12    3.097173e-09   -1.018630e-02
    1.873667e+01    1.429882e+02    2.557942e-01    1.988670e+08    3.835665e-09    2.374106e-12    3.132452e-09   -5.186300e-03
    1.857123e+01    1.431308e+02    2.808011e-01    2.149015e+08    3.862068e-09    2.453378e-12    3.167245e-09   -1.863000e-04
    1.839700e+01    1.431982e+02    3.079910e-01    2.319353e+08    3.888108e-09    2.535106e-12    3.201545e-09    4.813700e-03
    1.821390e+01    1.431822e+02    3.375122e-01    2.499865e+08    3.913777e-09    2.619361e-12    3.235346e-09    9.813700e-03
    1.802200e+01    1.430751e+02    3.695163e-01    2.690687e+08    3.939071e-09    2.706219e-12    3.268643e-09    1.481370e-02
    1.782139e+01    1.428701e+02    4.041585e-01    2.891888e+08    3.963984e-09    2.795755e-12    3.301430e-09    1.981370e-02
    1.761229e+01    1.425612e+02    4.415957e-01    3.103485e+08    3.988514e-09    2.888049e-12    3.333704e-09    2.481370e-02
    1.739501e+01    1.421437e+02    4.819866e-01    3.325429e+08    4.012657e-09    2.983181e-12    3.365462e-09    2.981370e-02
    1.716992e+01    1.416136e+02    5.254905e-01    3.557607e+08    4.036410e-09    3.081235e-12    3.396702e-09    3.481370e-02
    1.693750e+01    1.409684e+02    5.722655e-01    3.799840e+08    4.059772e-09    3.182298e-12    3.427422e-09    3.981370e-02
    1.669825e+01    1.402064e+02    6.224700e-01    4.051891e+08    4.082740e-09    3.286460e-12    3.457621e-09    4.481370e-02
    1.645275e+01    1.393272e+02    6.762585e-01    4.313453e+08    4.105314e-09    3.393812e-12    3.487299e-09    4.981370e-02
    1.620164e+01    1.383317e+02    7.337830e-01    4.584166e+08    4.127494e-09    3.504450e-12    3.516457e-09    5.481370e-02
    1.594555e+01    1.372215e+02    7.951920e-01    4.863613e+08    4.149280e-09    3.618471e-12    3.545096e-09    5.981370e-02
    1.568518e+01    1.359995e+02    8.606275e-01    5.151323e+08    4.170672e-09    3.735978e-12    3.573216e-09    6.481370e-02
    1.542120e+01    1.346692e+02    9.302275e-01    5.446785e+08    4.191670e-09    3.857076e-12    3.600822e-09    6.981370e-02
    1.515431e+01    1.332353e+02    1.004123e+00    5.749444e+08    4.212279e-09    3.981871e-12    3.627915e-09    7.481370e-02
    1.488521e+01    1.317031e+02    1.082435e+00    6.058712e+08    4.232497e-09    4.110478e-12    3.654498e-09    7.981370e-02
    1.461458e+01    1.300784e+02    1.165282e+00    6.373979e+08    4.252329e-09    4.243011e-12    3.680576e-09    8.481370e-02
    1.434307e+01    1.283676e+02    1.252771e+00    6.694608e+08    4.271776e-09    4.379590e-12    3.706151e-09    8.981370e-02
    1.407132e+01    1.265774e+02    1.344999e+00    7.019958e+08    4.290842e-09    4.520338e-12    3.731229e-09    9.481370e-02
    1.379994e+01    1.247151e+02    1.442058e+00    7.349375e+08    4.309530e-09    4.665383e-12    3.755816e-09    9.981370e-02
    1.352951e+01    1.227878e+02    1.544028e+00    7.682205e+08    4.327843e-09    4.814857e-12    3.779915e-09    1.048137e-01
    1.326057e+01    1.208029e+02    1.650980e+00    8.017809e+08    4.345786e-09    4.968897e-12    3.803532e-09    1.098137e-01
    1.299360e+01    1.187678e+02    1.762977e+00    8.355549e+08    4.363363e-09    5.127645e-12    3.826672e-09    1.148137e-01
    1.272909e+01    1.166898e+02    1.880070e+00    8.694815e+08    4.380577e-09    5.291245e-12    3.849344e-09    1.198137e-01
    1.246745e+01    1.145760e+02    2.002305e+00    9.035010e+08    4.397434e-09    5.459845e-12    3.871552e-09    1.248137e-01
    1.220905e+01    1.124335e+02    2.129717e+00    9.375568e+08    4.413939e-09    5.633610e-12    3.893303e-09    1.298137e-01
    1.195424e+01    1.102689e+02    2.262331e+00    9.715952e+08    4.430095e-09    5.812700e-12    3.914603e-09    1.348137e-01
    1.170333e+01    1.080886e+02    2.400166e+00    1.005565e+09    4.445909e-09    5.997275e-12    3.935460e-09    1.398137e-01
    1.145658e+01    1.058986e+02    2.543232e+00    1.039421e+09    4.461385e-09    6.187510e-12    3.955880e-09    1.448137e-01
    1.121420e+01    1.037047e+02    2.691534e+00    1.073117e+09    4.476529e-09    6.383590e-12    3.975871e-09    1.498137e-01
    1.097641e+01    1.015122e+02    2.845065e+00    1.106614e+09    4.491346e-09    6.585700e-12    3.995440e-09    1.548137e-01
    1.074337e+01    9.932601e+01    3.003815e+00    1.139876e+09    4.505844e-09    6.794025e-12    4.014594e-09    1.598137e-01
    1.051519e+01    9.715064e+01    3.167769e+00    1.172870e+09    4.520024e-09    7.008770e-12    4.033340e-09    1.648137e-01
    1.029199e+01    9.499021e+01    3.336904e+00    1.205567e+09    4.533896e-09    7.230140e-12    4.051686e-09    1.698137e-01
