# sky130 nfet_01v8 gm/ID Processed Lookup Table
# Corner: ss
# Temperature: 75C
# W = 2.0 um
# L = 0.72 um (720 nm)
# Columns: gm/id [1/V]  gm/gds [V/V]  id/W [A/m]  ft [Hz]  Cgg/W [F/m]  Cgd/W [F/m]  Cgs/W [F/m]  Vov [V]
#         gm/id          gm/gds            id/W              ft           Cgg/W           Cgd/W           Cgs/W             Vov
    2.341438e+01    1.576516e+02    6.330210e-07    1.556620e+03    1.515439e-09    1.812639e-14    8.263285e-11   -5.934864e-01
    2.341328e+01    1.576449e+02    7.116405e-07    1.752752e+03    1.512943e-09    1.860551e-14    8.567705e-11   -5.884864e-01
    2.341210e+01    1.576377e+02    8.000195e-07    1.973390e+03    1.510596e-09    1.909602e-14    8.885025e-11   -5.834864e-01
    2.341085e+01    1.576301e+02    8.993695e-07    2.221562e+03    1.508402e-09    1.959818e-14    9.215795e-11   -5.784864e-01
    2.340954e+01    1.576220e+02    1.011050e-06    2.500666e+03    1.506364e-09    2.011235e-14    9.560560e-11   -5.734864e-01
    2.340813e+01    1.576134e+02    1.136591e-06    2.814512e+03    1.504486e-09    2.063884e-14    9.919895e-11   -5.684864e-01
    2.340666e+01    1.576043e+02    1.277712e-06    3.167374e+03    1.502772e-09    2.117801e-14    1.029440e-10   -5.634864e-01
    2.340509e+01    1.575946e+02    1.436342e-06    3.564038e+03    1.501226e-09    2.173026e-14    1.068467e-10   -5.584864e-01
    2.340342e+01    1.575844e+02    1.614655e-06    4.009875e+03    1.499852e-09    2.229595e-14    1.109134e-10   -5.534864e-01
    2.340166e+01    1.575734e+02    1.815089e-06    4.510898e+03    1.498654e-09    2.287553e-14    1.151508e-10   -5.484864e-01
    2.339979e+01    1.575618e+02    2.040383e-06    5.073843e+03    1.497638e-09    2.346945e-14    1.195654e-10   -5.434864e-01
    2.339781e+01    1.575495e+02    2.293621e-06    5.706251e+03    1.496808e-09    2.407818e-14    1.241640e-10   -5.384864e-01
    2.339570e+01    1.575364e+02    2.578263e-06    6.416565e+03    1.496169e-09    2.470223e-14    1.289540e-10   -5.334864e-01
    2.339348e+01    1.575226e+02    2.898197e-06    7.214245e+03    1.495725e-09    2.534217e-14    1.339424e-10   -5.284864e-01
    2.339112e+01    1.575079e+02    3.257794e-06    8.109856e+03    1.495483e-09    2.599857e-14    1.391369e-10   -5.234864e-01
    2.338862e+01    1.574922e+02    3.661965e-06    9.115226e+03    1.495448e-09    2.667206e-14    1.445449e-10   -5.184864e-01
    2.338598e+01    1.574758e+02    4.116225e-06    1.024358e+04    1.495626e-09    2.736330e-14    1.501744e-10   -5.134864e-01
    2.338318e+01    1.574582e+02    4.626771e-06    1.150970e+04    1.496021e-09    2.807303e-14    1.560335e-10   -5.084864e-01
    2.338020e+01    1.574397e+02    5.200570e-06    1.293010e+04    1.496641e-09    2.880200e-14    1.621303e-10   -5.034864e-01
    2.337706e+01    1.574200e+02    5.845435e-06    1.452322e+04    1.497490e-09    2.955104e-14    1.684733e-10   -4.984864e-01
    2.337372e+01    1.573990e+02    6.570160e-06    1.630968e+04    1.498576e-09    3.032105e-14    1.750706e-10   -4.934864e-01
    2.337019e+01    1.573768e+02    7.384610e-06    1.831245e+04    1.499904e-09    3.111296e-14    1.819314e-10   -4.884864e-01
    2.336644e+01    1.573533e+02    8.299870e-06    2.055720e+04    1.501482e-09    3.192782e-14    1.890645e-10   -4.834864e-01
    2.336249e+01    1.573284e+02    9.328385e-06    2.307255e+04    1.503315e-09    3.276671e-14    1.964789e-10   -4.784864e-01
    2.335829e+01    1.573020e+02    1.048415e-05    2.589040e+04    1.505412e-09    3.363082e-14    2.041837e-10   -4.734864e-01
    2.335384e+01    1.572741e+02    1.178284e-05    2.904633e+04    1.507778e-09    3.452142e-14    2.121883e-10   -4.684864e-01
    2.334913e+01    1.572445e+02    1.324212e-05    3.257994e+04    1.510421e-09    3.543986e-14    2.205019e-10   -4.634864e-01
    2.334415e+01    1.572131e+02    1.488175e-05    3.653539e+04    1.513347e-09    3.638762e-14    2.291341e-10   -4.584864e-01
    2.333888e+01    1.571800e+02    1.672397e-05    4.096178e+04    1.516564e-09    3.736626e-14    2.380943e-10   -4.534864e-01
    2.333330e+01    1.571448e+02    1.879374e-05    4.591380e+04    1.520080e-09    3.837747e-14    2.473922e-10   -4.484864e-01
    2.332739e+01    1.571076e+02    2.111906e-05    5.145225e+04    1.523900e-09    3.942306e-14    2.570374e-10   -4.434864e-01
    2.332115e+01    1.570683e+02    2.373136e-05    5.764475e+04    1.528034e-09    4.050497e-14    2.670397e-10   -4.384864e-01
    2.331453e+01    1.570267e+02    2.666592e-05    6.456641e+04    1.532487e-09    4.162528e-14    2.774085e-10   -4.334864e-01
    2.330753e+01    1.569827e+02    2.996236e-05    7.230076e+04    1.537268e-09    4.278623e-14    2.881536e-10   -4.284864e-01
    2.330012e+01    1.569361e+02    3.366508e-05    8.094048e+04    1.542383e-09    4.399020e-14    2.992846e-10   -4.234864e-01
    2.329230e+01    1.568869e+02    3.782394e-05    9.058849e+04    1.547841e-09    4.523976e-14    3.108108e-10   -4.184864e-01
    2.328401e+01    1.568348e+02    4.249486e-05    1.013589e+05    1.553648e-09    4.653763e-14    3.227419e-10   -4.134864e-01
    2.327525e+01    1.567798e+02    4.774057e-05    1.133784e+05    1.559810e-09    4.788675e-14    3.350869e-10   -4.084864e-01
    2.326600e+01    1.567216e+02    5.363140e-05    1.267873e+05    1.566338e-09    4.929022e-14    3.478551e-10   -4.034864e-01
    2.325621e+01    1.566603e+02    6.024625e-05    1.417411e+05    1.573234e-09    5.075140e-14    3.610554e-10   -3.984864e-01
    2.324585e+01    1.565955e+02    6.767360e-05    1.584119e+05    1.580509e-09    5.227380e-14    3.746964e-10   -3.934864e-01
    2.323492e+01    1.565270e+02    7.601255e-05    1.769907e+05    1.588167e-09    5.386125e-14    3.887867e-10   -3.884864e-01
    2.322338e+01    1.564547e+02    8.537420e-05    1.976882e+05    1.596216e-09    5.551775e-14    4.033344e-10   -3.834864e-01
    2.321118e+01    1.563785e+02    9.588320e-05    2.207378e+05    1.604661e-09    5.724765e-14    4.183473e-10   -3.784864e-01
    2.319830e+01    1.562980e+02    1.076790e-04    2.463974e+05    1.613508e-09    5.905540e-14    4.338330e-10   -3.734864e-01
    2.318469e+01    1.562132e+02    1.209180e-04    2.749523e+05    1.622763e-09    6.094595e-14    4.497986e-10   -3.684864e-01
    2.317034e+01    1.561238e+02    1.357752e-04    3.067170e+05    1.632432e-09    6.292435e-14    4.662507e-10   -3.634864e-01
    2.315519e+01    1.560297e+02    1.524466e-04    3.420392e+05    1.642520e-09    6.499610e-14    4.831955e-10   -3.584864e-01
    2.313922e+01    1.559305e+02    1.711518e-04    3.813026e+05    1.653030e-09    6.716690e-14    5.006390e-10   -3.534864e-01
    2.312237e+01    1.558261e+02    1.921364e-04    4.249300e+05    1.663967e-09    6.944285e-14    5.185860e-10   -3.484864e-01
    2.310461e+01    1.557162e+02    2.156752e-04    4.733878e+05    1.675335e-09    7.183040e-14    5.370410e-10   -3.434864e-01
    2.308589e+01    1.556006e+02    2.420755e-04    5.271896e+05    1.687139e-09    7.433635e-14    5.560085e-10   -3.384864e-01
    2.306618e+01    1.554792e+02    2.716815e-04    5.869019e+05    1.699380e-09    7.696780e-14    5.754920e-10   -3.334864e-01
    2.304541e+01    1.553515e+02    3.048774e-04    6.531470e+05    1.712060e-09    7.973235e-14    5.954935e-10   -3.284864e-01
    2.302356e+01    1.552176e+02    3.420931e-04    7.266114e+05    1.725181e-09    8.263795e-14    6.160150e-10   -3.234864e-01
    2.300056e+01    1.550770e+02    3.838085e-04    8.080479e+05    1.738746e-09    8.569285e-14    6.370585e-10   -3.184864e-01
    2.297638e+01    1.549296e+02    4.305599e-04    8.982859e+05    1.752754e-09    8.890590e-14    6.586245e-10   -3.134864e-01
    2.295097e+01    1.547752e+02    4.829463e-04    9.982356e+05    1.767205e-09    9.228620e-14    6.807115e-10   -3.084864e-01
    2.292427e+01    1.546135e+02    5.416360e-04    1.108897e+06    1.782100e-09    9.584345e-14    7.033200e-10   -3.034864e-01
    2.289624e+01    1.544442e+02    6.073745e-04    1.231367e+06    1.797436e-09    9.958770e-14    7.264470e-10   -2.984864e-01
    2.286681e+01    1.542674e+02    6.809945e-04    1.366849e+06    1.813213e-09    1.035294e-13    7.500900e-10   -2.934864e-01
    2.283596e+01    1.540828e+02    7.634225e-04    1.516664e+06    1.829427e-09    1.076798e-13    7.742455e-10   -2.884864e-01
    2.280362e+01    1.538902e+02    8.556925e-04    1.682258e+06    1.846075e-09    1.120500e-13    7.989085e-10   -2.834864e-01
    2.276976e+01    1.536894e+02    9.589560e-04    1.865214e+06    1.863153e-09    1.166522e-13    8.240740e-10   -2.784864e-01
    2.273431e+01    1.534804e+02    1.074495e-03    2.067268e+06    1.880657e-09    1.214990e-13    8.497360e-10   -2.734864e-01
    2.269725e+01    1.532631e+02    1.203736e-03    2.290317e+06    1.898581e-09    1.266031e-13    8.758860e-10   -2.684864e-01
    2.265853e+01    1.530375e+02    1.348267e-03    2.536435e+06    1.916921e-09    1.319779e-13    9.025170e-10   -2.634864e-01
    2.261809e+01    1.528036e+02    1.509854e-03    2.807893e+06    1.935666e-09    1.376378e-13    9.296195e-10   -2.584864e-01
    2.257593e+01    1.525613e+02    1.690457e-03    3.107167e+06    1.954812e-09    1.435969e-13    9.571835e-10   -2.534864e-01
    2.253198e+01    1.523109e+02    1.892255e-03    3.436964e+06    1.974350e-09    1.498704e-13    9.851980e-10   -2.484864e-01
    2.248625e+01    1.520525e+02    2.117668e-03    3.800239e+06    1.994271e-09    1.564739e-13    1.013651e-09   -2.434864e-01
    2.243869e+01    1.517864e+02    2.369381e-03    4.200214e+06    2.014564e-09    1.634233e-13    1.042531e-09   -2.384864e-01
    2.238929e+01    1.515127e+02    2.650370e-03    4.640401e+06    2.035221e-09    1.707354e-13    1.071824e-09   -2.334864e-01
    2.233804e+01    1.512320e+02    2.963937e-03    5.124634e+06    2.056229e-09    1.784273e-13    1.101514e-09   -2.284864e-01
    2.228494e+01    1.509447e+02    3.313737e-03    5.657085e+06    2.077576e-09    1.865167e-13    1.131588e-09   -2.234864e-01
    2.223002e+01    1.506515e+02    3.703821e-03    6.242307e+06    2.099253e-09    1.950218e-13    1.162030e-09   -2.184864e-01
    2.217325e+01    1.503530e+02    4.138667e-03    6.885244e+06    2.121244e-09    2.039614e-13    1.192822e-09   -2.134864e-01
    2.211468e+01    1.500498e+02    4.623233e-03    7.591289e+06    2.143537e-09    2.133548e-13    1.223947e-09   -2.084864e-01
    2.205433e+01    1.497432e+02    5.163000e-03    8.366315e+06    2.166117e-09    2.232219e-13    1.255389e-09   -2.034864e-01
    2.199226e+01    1.494339e+02    5.764020e-03    9.216698e+06    2.188971e-09    2.335830e-13    1.287127e-09   -1.984864e-01
    2.192854e+01    1.491233e+02    6.432975e-03    1.014940e+07    2.212083e-09    2.444592e-13    1.319144e-09   -1.934864e-01
    2.186319e+01    1.488126e+02    7.177260e-03    1.117197e+07    2.235437e-09    2.558717e-13    1.351419e-09   -1.884864e-01
    2.179634e+01    1.485034e+02    8.005005e-03    1.229264e+07    2.259020e-09    2.678428e-13    1.383932e-09   -1.834864e-01
    2.172806e+01    1.481972e+02    8.925195e-03    1.352037e+07    2.282813e-09    2.803949e-13    1.416663e-09   -1.784864e-01
    2.165843e+01    1.478957e+02    9.947740e-03    1.486489e+07    2.306800e-09    2.935509e-13    1.449591e-09   -1.734864e-01
    2.158760e+01    1.476009e+02    1.108354e-02    1.633680e+07    2.330966e-09    3.073348e-13    1.482695e-09   -1.684864e-01
    2.151567e+01    1.473147e+02    1.234461e-02    1.794765e+07    2.355292e-09    3.217705e-13    1.515953e-09   -1.634864e-01
    2.144277e+01    1.470392e+02    1.374419e-02    1.971001e+07    2.379761e-09    3.368827e-13    1.549344e-09   -1.584864e-01
    2.136904e+01    1.467768e+02    1.529683e-02    2.163752e+07    2.404358e-09    3.526966e-13    1.582845e-09   -1.534864e-01
    2.129461e+01    1.465295e+02    1.701857e-02    2.374510e+07    2.429063e-09    3.692380e-13    1.616436e-09   -1.484864e-01
    2.121961e+01    1.462999e+02    1.892703e-02    2.604895e+07    2.453860e-09    3.865332e-13    1.650095e-09   -1.434864e-01
    2.114419e+01    1.460904e+02    2.104158e-02    2.856671e+07    2.478731e-09    4.046089e-13    1.683799e-09   -1.384864e-01
    2.106847e+01    1.459034e+02    2.338354e-02    3.131759e+07    2.503658e-09    4.234926e-13    1.717527e-09   -1.334864e-01
    2.099257e+01    1.457411e+02    2.597631e-02    3.432247e+07    2.528626e-09    4.432121e-13    1.751257e-09   -1.284864e-01
    2.091658e+01    1.456058e+02    2.884561e-02    3.760408e+07    2.553615e-09    4.637959e-13    1.784968e-09   -1.234864e-01
    2.084056e+01    1.454996e+02    3.201967e-02    4.118705e+07    2.578610e-09    4.852729e-13    1.818640e-09   -1.184864e-01
    2.076460e+01    1.454247e+02    3.552951e-02    4.509825e+07    2.603593e-09    5.076730e-13    1.852250e-09   -1.134864e-01
    2.068869e+01    1.453822e+02    3.940910e-02    4.936664e+07    2.628548e-09    5.310260e-13    1.885779e-09   -1.084864e-01
    2.061280e+01    1.453739e+02    4.369573e-02    5.402364e+07    2.653459e-09    5.553625e-13    1.919207e-09   -1.034864e-01
    2.053688e+01    1.454004e+02    4.843026e-02    5.910317e+07    2.678309e-09    5.807140e-13    1.952514e-09   -9.848640e-02
    2.046081e+01    1.454624e+02    5.365740e-02    6.464178e+07    2.703083e-09    6.071130e-13    1.985680e-09   -9.348640e-02
    2.038444e+01    1.455598e+02    5.942605e-02    7.067873e+07    2.727765e-09    6.345910e-13    2.018689e-09   -8.848640e-02
    2.030752e+01    1.456917e+02    6.578965e-02    7.725603e+07    2.752341e-09    6.631815e-13    2.051520e-09   -8.348640e-02
    2.022977e+01    1.458570e+02    7.280655e-02    8.441850e+07    2.776796e-09    6.929185e-13    2.084156e-09   -7.848640e-02
    2.015086e+01    1.460536e+02    8.054035e-02    9.221384e+07    2.801117e-09    7.238365e-13    2.116581e-09   -7.348640e-02
    2.007040e+01    1.462788e+02    8.906015e-02    1.006924e+08    2.825289e-09    7.559700e-13    2.148780e-09   -6.848640e-02
    1.998792e+01    1.465289e+02    9.844115e-02    1.099072e+08    2.849300e-09    7.893560e-13    2.180734e-09   -6.348640e-02
    1.990292e+01    1.467995e+02    1.087648e-01    1.199137e+08    2.873137e-09    8.240300e-13    2.212432e-09   -5.848640e-02
    1.981488e+01    1.470856e+02    1.201190e-01    1.307695e+08    2.896789e-09    8.600295e-13    2.243857e-09   -5.348640e-02
    1.972319e+01    1.473813e+02    1.325991e-01    1.425341e+08    2.920244e-09    8.973930e-13    2.274995e-09   -4.848640e-02
    1.962727e+01    1.476798e+02    1.463071e-01    1.552684e+08    2.943490e-09    9.361590e-13    2.305836e-09   -4.348640e-02
    1.952649e+01    1.479739e+02    1.613530e-01    1.690341e+08    2.966519e-09    9.763680e-13    2.336366e-09   -3.848640e-02
    1.942025e+01    1.482557e+02    1.778541e-01    1.838936e+08    2.989320e-09    1.018060e-12    2.366573e-09   -3.348640e-02
    1.930793e+01    1.485166e+02    1.959358e-01    1.999086e+08    3.011884e-09    1.061277e-12    2.396449e-09   -2.848640e-02
    1.918896e+01    1.487480e+02    2.157310e-01    2.171399e+08    3.034202e-09    1.106060e-12    2.425981e-09   -2.348640e-02
    1.906281e+01    1.489408e+02    2.373806e-01    2.356465e+08    3.056267e-09    1.152454e-12    2.455162e-09   -1.848640e-02
    1.892900e+01    1.490858e+02    2.610331e-01    2.554846e+08    3.078071e-09    1.200503e-12    2.483984e-09   -1.348640e-02
    1.878710e+01    1.491740e+02    2.868448e-01    2.767069e+08    3.099608e-09    1.250254e-12    2.512437e-09   -8.486400e-03
    1.863678e+01    1.491966e+02    3.149785e-01    2.993618e+08    3.120870e-09    1.301751e-12    2.540516e-09   -3.486400e-03
    1.847777e+01    1.491448e+02    3.456043e-01    3.234915e+08    3.141853e-09    1.355043e-12    2.568214e-09    1.513600e-03
    1.830990e+01    1.490106e+02    3.788981e-01    3.491331e+08    3.162550e-09    1.410179e-12    2.595524e-09    6.513600e-03
    1.813309e+01    1.487868e+02    4.150415e-01    3.763158e+08    3.182958e-09    1.467210e-12    2.622444e-09    1.151360e-02
    1.794737e+01    1.484666e+02    4.542208e-01    4.050617e+08    3.203073e-09    1.526186e-12    2.648968e-09    1.651360e-02
    1.775286e+01    1.480443e+02    4.966262e-01    4.353841e+08    3.222891e-09    1.587162e-12    2.675093e-09    2.151360e-02
    1.754973e+01    1.475151e+02    5.424510e-01    4.672868e+08    3.242408e-09    1.650190e-12    2.700815e-09    2.651360e-02
    1.733831e+01    1.468752e+02    5.918900e-01    5.007655e+08    3.261622e-09    1.715328e-12    2.726132e-09    3.151360e-02
    1.711894e+01    1.461219e+02    6.451400e-01    5.358051e+08    3.280532e-09    1.782632e-12    2.751043e-09    3.651360e-02
    1.689208e+01    1.452537e+02    7.023965e-01    5.723813e+08    3.299135e-09    1.852161e-12    2.775546e-09    4.151360e-02
    1.665823e+01    1.442702e+02    7.638540e-01    6.104607e+08    3.317429e-09    1.923977e-12    2.799639e-09    4.651360e-02
    1.641796e+01    1.431719e+02    8.297045e-01    6.499992e+08    3.335416e-09    1.998140e-12    2.823325e-09    5.151360e-02
    1.617188e+01    1.419605e+02    9.001365e-01    6.909450e+08    3.353093e-09    2.074716e-12    2.846602e-09    5.651360e-02
    1.592063e+01    1.406387e+02    9.753335e-01    7.332368e+08    3.370460e-09    2.153772e-12    2.869470e-09    6.151360e-02
    1.566486e+01    1.392100e+02    1.055474e+00    7.768057e+08    3.387519e-09    2.235373e-12    2.891932e-09    6.651360e-02
    1.540527e+01    1.376788e+02    1.140728e+00    8.215755e+08    3.404270e-09    2.319591e-12    2.913989e-09    7.151360e-02
    1.514254e+01    1.360501e+02    1.231259e+00    8.674642e+08    3.420714e-09    2.406498e-12    2.935642e-09    7.651360e-02
    1.487736e+01    1.343298e+02    1.327222e+00    9.143839e+08    3.436853e-09    2.496169e-12    2.956895e-09    8.151360e-02
    1.461040e+01    1.325241e+02    1.428762e+00    9.622431e+08    3.452687e-09    2.588679e-12    2.977750e-09    8.651360e-02
    1.434232e+01    1.306397e+02    1.536013e+00    1.010946e+09    3.468219e-09    2.684108e-12    2.998210e-09    9.151360e-02
    1.407375e+01    1.286836e+02    1.649101e+00    1.060395e+09    3.483451e-09    2.782539e-12    3.018279e-09    9.651360e-02
    1.380530e+01    1.266629e+02    1.768139e+00    1.110491e+09    3.498386e-09    2.884053e-12    3.037959e-09    1.015136e-01
    1.353756e+01    1.245851e+02    1.893231e+00    1.161135e+09    3.513026e-09    2.988739e-12    3.057256e-09    1.065136e-01
    1.327106e+01    1.224574e+02    2.024465e+00    1.212229e+09    3.527374e-09    3.096686e-12    3.076173e-09    1.115136e-01
    1.300631e+01    1.202871e+02    2.161923e+00    1.263675e+09    3.541433e-09    3.207986e-12    3.094714e-09    1.165136e-01
    1.274377e+01    1.180815e+02    2.305672e+00    1.315379e+09    3.555207e-09    3.322735e-12    3.112885e-09    1.215136e-01
    1.248388e+01    1.158474e+02    2.455770e+00    1.367249e+09    3.568699e-09    3.441031e-12    3.130690e-09    1.265136e-01
    1.222703e+01    1.135917e+02    2.612261e+00    1.419197e+09    3.581912e-09    3.562976e-12    3.148133e-09    1.315136e-01
    1.197356e+01    1.113208e+02    2.775181e+00    1.471140e+09    3.594850e-09    3.688676e-12    3.165221e-09    1.365136e-01
    1.172378e+01    1.090409e+02    2.944556e+00    1.522998e+09    3.607518e-09    3.818237e-12    3.181958e-09    1.415136e-01
    1.147798e+01    1.067577e+02    3.120398e+00    1.574697e+09    3.619919e-09    3.951774e-12    3.198350e-09    1.465136e-01
    1.123640e+01    1.044767e+02    3.302714e+00    1.626169e+09    3.632056e-09    4.089401e-12    3.214402e-09    1.515136e-01
    1.099922e+01    1.022029e+02    3.491502e+00    1.677350e+09    3.643935e-09    4.231238e-12    3.230120e-09    1.565136e-01
    1.076664e+01    9.994089e+01    3.686748e+00    1.728183e+09    3.655560e-09    4.377410e-12    3.245510e-09    1.615136e-01
