# sky130 nfet_01v8 gm/ID Processed Lookup Table
# Corner: ss
# Temperature: 75C
# W = 2.0 um
# L = 4.86 um (4860 nm)
# Columns: gm/id [1/V]  gm/gds [V/V]  id/W [A/m]  ft [Hz]  Cgg/W [F/m]  Cgd/W [F/m]  Cgs/W [F/m]  Vov [V]
#         gm/id          gm/gds            id/W              ft           Cgg/W           Cgd/W           Cgs/W             Vov
    2.366399e+01    2.257316e+02    2.936512e-07    1.077302e+02    1.026603e-08    4.348715e-13    1.011549e-09   -5.092411e-01
    2.366199e+01    2.257127e+02    3.305335e-07    1.212208e+02    1.026856e-08    4.496922e-13    1.051083e-09   -5.042411e-01
    2.365987e+01    2.256925e+02    3.720442e-07    1.363790e+02    1.027258e-08    4.650537e-13    1.092220e-09   -4.992411e-01
    2.365760e+01    2.256711e+02    4.187635e-07    1.534073e+02    1.027812e-08    4.809766e-13    1.135016e-09   -4.942411e-01
    2.365521e+01    2.256485e+02    4.713441e-07    1.725326e+02    1.028523e-08    4.974825e-13    1.179528e-09   -4.892411e-01
    2.365267e+01    2.256246e+02    5.305205e-07    1.940084e+02    1.029395e-08    5.145935e-13    1.225816e-09   -4.842411e-01
    2.364999e+01    2.255990e+02    5.971180e-07    2.181184e+02    1.030431e-08    5.323325e-13    1.273940e-09   -4.792411e-01
    2.364713e+01    2.255722e+02    6.720670e-07    2.451795e+02    1.031637e-08    5.507235e-13    1.323958e-09   -4.742411e-01
    2.364411e+01    2.255436e+02    7.564120e-07    2.755458e+02    1.033018e-08    5.697910e-13    1.375935e-09   -4.692411e-01
    2.364091e+01    2.255134e+02    8.513290e-07    3.096131e+02    1.034576e-08    5.895605e-13    1.429932e-09   -4.642411e-01
    2.363750e+01    2.254814e+02    9.581410e-07    3.478227e+02    1.036319e-08    6.100595e-13    1.486013e-09   -4.592411e-01
    2.363391e+01    2.254475e+02    1.078335e-06    3.906680e+02    1.038249e-08    6.313145e-13    1.544243e-09   -4.542411e-01
    2.363009e+01    2.254116e+02    1.213585e-06    4.386990e+02    1.040373e-08    6.533540e-13    1.604686e-09   -4.492411e-01
    2.362605e+01    2.253736e+02    1.365771e-06    4.925296e+02    1.042694e-08    6.762085e-13    1.667405e-09   -4.442411e-01
    2.362177e+01    2.253334e+02    1.537009e-06    5.528439e+02    1.045217e-08    6.999075e-13    1.732468e-09   -4.392411e-01
    2.361724e+01    2.252908e+02    1.729679e-06    6.204043e+02    1.047948e-08    7.244830e-13    1.799937e-09   -4.342411e-01
    2.361243e+01    2.252457e+02    1.946456e-06    6.960609e+02    1.050892e-08    7.499685e-13    1.869881e-09   -4.292411e-01
    2.360734e+01    2.251981e+02    2.190347e-06    7.807599e+02    1.054053e-08    7.763965e-13    1.942363e-09   -4.242411e-01
    2.360194e+01    2.251475e+02    2.464732e-06    8.755549e+02    1.057436e-08    8.038035e-13    2.017448e-09   -4.192411e-01
    2.359623e+01    2.250942e+02    2.773413e-06    9.816190e+02    1.061046e-08    8.322245e-13    2.095201e-09   -4.142411e-01
    2.359019e+01    2.250379e+02    3.120661e-06    1.100257e+03    1.064888e-08    8.616980e-13    2.175684e-09   -4.092411e-01
    2.358379e+01    2.249783e+02    3.511278e-06    1.232919e+03    1.068968e-08    8.922625e-13    2.258962e-09   -4.042411e-01
    2.357702e+01    2.249153e+02    3.950658e-06    1.381218e+03    1.073288e-08    9.239580e-13    2.345095e-09   -3.992411e-01
    2.356984e+01    2.248485e+02    4.444865e-06    1.546947e+03    1.077854e-08    9.568260e-13    2.434144e-09   -3.942411e-01
    2.356225e+01    2.247781e+02    5.000710e-06    1.732097e+03    1.082671e-08    9.909095e-13    2.526167e-09   -3.892411e-01
    2.355422e+01    2.247037e+02    5.625845e-06    1.938877e+03    1.087743e-08    1.026253e-12    2.621223e-09   -3.842411e-01
    2.354571e+01    2.246253e+02    6.328870e-06    2.169744e+03    1.093074e-08    1.062901e-12    2.719365e-09   -3.792411e-01
    2.353674e+01    2.245424e+02    7.119430e-06    2.427420e+03    1.098668e-08    1.100902e-12    2.820647e-09   -3.742411e-01
    2.352723e+01    2.244549e+02    8.008375e-06    2.714923e+03    1.104531e-08    1.140305e-12    2.925120e-09   -3.692411e-01
    2.351717e+01    2.243626e+02    9.007875e-06    3.035603e+03    1.110663e-08    1.181158e-12    3.032830e-09   -3.642411e-01
    2.350654e+01    2.242653e+02    1.013159e-05    3.393174e+03    1.117071e-08    1.223515e-12    3.143824e-09   -3.592411e-01
    2.349530e+01    2.241626e+02    1.139488e-05    3.791742e+03    1.123756e-08    1.267429e-12    3.258141e-09   -3.542411e-01
    2.348344e+01    2.240546e+02    1.281492e-05    4.235865e+03    1.130722e-08    1.312956e-12    3.375821e-09   -3.492411e-01
    2.347090e+01    2.239406e+02    1.441107e-05    4.730582e+03    1.137972e-08    1.360151e-12    3.496899e-09   -3.442411e-01
    2.345765e+01    2.238207e+02    1.620497e-05    5.281472e+03    1.145508e-08    1.409073e-12    3.621403e-09   -3.392411e-01
    2.344367e+01    2.236945e+02    1.822095e-05    5.894708e+03    1.153332e-08    1.459784e-12    3.749362e-09   -3.342411e-01
    2.342890e+01    2.235618e+02    2.048625e-05    6.577112e+03    1.161446e-08    1.512345e-12    3.880796e-09   -3.292411e-01
    2.341331e+01    2.234222e+02    2.303142e-05    7.336227e+03    1.169853e-08    1.566821e-12    4.015723e-09   -3.242411e-01
    2.339689e+01    2.232758e+02    2.589075e-05    8.180396e+03    1.178552e-08    1.623277e-12    4.154154e-09   -3.192411e-01
    2.337956e+01    2.231219e+02    2.910259e-05    9.118811e+03    1.187544e-08    1.681782e-12    4.296100e-09   -3.142411e-01
    2.336128e+01    2.229604e+02    3.270996e-05    1.016165e+04    1.196830e-08    1.742406e-12    4.441559e-09   -3.092411e-01
    2.334203e+01    2.227912e+02    3.676103e-05    1.132013e+04    1.206410e-08    1.805220e-12    4.590529e-09   -3.042411e-01
    2.332175e+01    2.226140e+02    4.130974e-05    1.260663e+04    1.216283e-08    1.870300e-12    4.743001e-09   -2.992411e-01
    2.330040e+01    2.224285e+02    4.641646e-05    1.403479e+04    1.226449e-08    1.937721e-12    4.898961e-09   -2.942411e-01
    2.327794e+01    2.222344e+02    5.214875e-05    1.561968e+04    1.236905e-08    2.007562e-12    5.058385e-09   -2.892411e-01
    2.325430e+01    2.220320e+02    5.858225e-05    1.737787e+04    1.247651e-08    2.079904e-12    5.221250e-09   -2.842411e-01
    2.322948e+01    2.218204e+02    6.580140e-05    1.932762e+04    1.258683e-08    2.154830e-12    5.387520e-09   -2.792411e-01
    2.320337e+01    2.216001e+02    7.390085e-05    2.148905e+04    1.269999e-08    2.232426e-12    5.557160e-09   -2.742411e-01
    2.317598e+01    2.213707e+02    8.298610e-05    2.388430e+04    1.281596e-08    2.312778e-12    5.730120e-09   -2.692411e-01
    2.314723e+01    2.211323e+02    9.317520e-05    2.653771e+04    1.293469e-08    2.395978e-12    5.906350e-09   -2.642411e-01
    2.311708e+01    2.208848e+02    1.046000e-04    2.947606e+04    1.305615e-08    2.482119e-12    6.085795e-09   -2.592411e-01
    2.308550e+01    2.206282e+02    1.174074e-04    3.272878e+04    1.318029e-08    2.571295e-12    6.268385e-09   -2.542411e-01
    2.305241e+01    2.203627e+02    1.317618e-04    3.632822e+04    1.330705e-08    2.663606e-12    6.454050e-09   -2.492411e-01
    2.301781e+01    2.200886e+02    1.478460e-04    4.030989e+04    1.343638e-08    2.759150e-12    6.642715e-09   -2.442411e-01
    2.298164e+01    2.198060e+02    1.658645e-04    4.471278e+04    1.356822e-08    2.858034e-12    6.834300e-09   -2.392411e-01
    2.294385e+01    2.195154e+02    1.860444e-04    4.957967e+04    1.370249e-08    2.960361e-12    7.028715e-09   -2.342411e-01
    2.290444e+01    2.192173e+02    2.086393e-04    5.495751e+04    1.383913e-08    3.066243e-12    7.225860e-09   -2.292411e-01
    2.286335e+01    2.189123e+02    2.339311e-04    6.089772e+04    1.397807e-08    3.175790e-12    7.425645e-09   -2.242411e-01
    2.282059e+01    2.186013e+02    2.622340e-04    6.745681e+04    1.411921e-08    3.289119e-12    7.627955e-09   -2.192411e-01
    2.277610e+01    2.182849e+02    2.938972e-04    7.469644e+04    1.426247e-08    3.406348e-12    7.832685e-09   -2.142411e-01
    2.272988e+01    2.179643e+02    3.293087e-04    8.268431e+04    1.440778e-08    3.527598e-12    8.039720e-09   -2.092411e-01
    2.268194e+01    2.176410e+02    3.689001e-04    9.149465e+04    1.455504e-08    3.652994e-12    8.248940e-09   -2.042411e-01
    2.263228e+01    2.173163e+02    4.131506e-04    1.012085e+05    1.470415e-08    3.782665e-12    8.460215e-09   -1.992411e-01
    2.258090e+01    2.169918e+02    4.625921e-04    1.119146e+05    1.485500e-08    3.916742e-12    8.673420e-09   -1.942411e-01
    2.252782e+01    2.166697e+02    5.178150e-04    1.237102e+05    1.500751e-08    4.055361e-12    8.888425e-09   -1.892411e-01
    2.247309e+01    2.163521e+02    5.794740e-04    1.367014e+05    1.516156e-08    4.198662e-12    9.105095e-09   -1.842411e-01
    2.241671e+01    2.160415e+02    6.482955e-04    1.510045e+05    1.531705e-08    4.346786e-12    9.323285e-09   -1.792411e-01
    2.235879e+01    2.157406e+02    7.250825e-04    1.667466e+05    1.547387e-08    4.499880e-12    9.542860e-09   -1.742411e-01
    2.229935e+01    2.154528e+02    8.107275e-04    1.840667e+05    1.563191e-08    4.658096e-12    9.763675e-09   -1.692411e-01
    2.223849e+01    2.151813e+02    9.062155e-04    2.031168e+05    1.579105e-08    4.821588e-12    9.985585e-09   -1.642411e-01
    2.217629e+01    2.149300e+02    1.012639e-03    2.240634e+05    1.595117e-08    4.990515e-12    1.020844e-08   -1.592411e-01
    2.211286e+01    2.147032e+02    1.131204e-03    2.470881e+05    1.611218e-08    5.165040e-12    1.043210e-08   -1.542411e-01
    2.204831e+01    2.145052e+02    1.263248e-03    2.723902e+05    1.627393e-08    5.345335e-12    1.065640e-08   -1.492411e-01
    2.198277e+01    2.143413e+02    1.410246e-03    3.001874e+05    1.643633e-08    5.531570e-12    1.088122e-08   -1.442411e-01
    2.191637e+01    2.142167e+02    1.573830e-03    3.307183e+05    1.659925e-08    5.723915e-12    1.110639e-08   -1.392411e-01
    2.184926e+01    2.141372e+02    1.755803e-03    3.642436e+05    1.676258e-08    5.922565e-12    1.133176e-08   -1.342411e-01
    2.178160e+01    2.141089e+02    1.958157e-03    4.010496e+05    1.692620e-08    6.127700e-12    1.155720e-08   -1.292411e-01
    2.171353e+01    2.141383e+02    2.183091e-03    4.414490e+05    1.708999e-08    6.339520e-12    1.178254e-08   -1.242411e-01
    2.164521e+01    2.142322e+02    2.433033e-03    4.857850e+05    1.725384e-08    6.558210e-12    1.200765e-08   -1.192411e-01
    2.157681e+01    2.143982e+02    2.710664e-03    5.344338e+05    1.741764e-08    6.783985e-12    1.223240e-08   -1.142411e-01
    2.150846e+01    2.146432e+02    3.018943e-03    5.878060e+05    1.758127e-08    7.017055e-12    1.245663e-08   -1.092411e-01
    2.144028e+01    2.149753e+02    3.361135e-03    6.463525e+05    1.774463e-08    7.257625e-12    1.268021e-08   -1.042411e-01
    2.137241e+01    2.154023e+02    3.740840e-03    7.105670e+05    1.790761e-08    7.505930e-12    1.290301e-08   -9.924110e-02
    2.130492e+01    2.159321e+02    4.162031e-03    7.809889e+05    1.807010e-08    7.762190e-12    1.312489e-08   -9.424110e-02
    2.123789e+01    2.165729e+02    4.629089e-03    8.582087e+05    1.823199e-08    8.026640e-12    1.334573e-08   -8.924110e-02
    2.117132e+01    2.173323e+02    5.146840e-03    9.428690e+05    1.839321e-08    8.299525e-12    1.356540e-08   -8.424110e-02
    2.110521e+01    2.182184e+02    5.720600e-03    1.035673e+06    1.855363e-08    8.581090e-12    1.378379e-08   -7.924110e-02
    2.103944e+01    2.192385e+02    6.356230e-03    1.137383e+06    1.871317e-08    8.871600e-12    1.400077e-08   -7.424110e-02
    2.097391e+01    2.203995e+02    7.060170e-03    1.248829e+06    1.887173e-08    9.171305e-12    1.421623e-08   -6.924110e-02
    2.090842e+01    2.217079e+02    7.839500e-03    1.370908e+06    1.902924e-08    9.480490e-12    1.443008e-08   -6.424110e-02
    2.084270e+01    2.231694e+02    8.702000e-03    1.504588e+06    1.918561e-08    9.799425e-12    1.464220e-08   -5.924110e-02
    2.077641e+01    2.247887e+02    9.656205e-03    1.650913e+06    1.934074e-08    1.012840e-11    1.485251e-08   -5.424110e-02
    2.070915e+01    2.265697e+02    1.071147e-02    1.810997e+06    1.949458e-08    1.046772e-11    1.506090e-08   -4.924110e-02
    2.064043e+01    2.285149e+02    1.187803e-02    1.986030e+06    1.964704e-08    1.081769e-11    1.526728e-08   -4.424110e-02
    2.056972e+01    2.306257e+02    1.316704e-02    2.177277e+06    1.979807e-08    1.117861e-11    1.547159e-08   -3.924110e-02
    2.049640e+01    2.329017e+02    1.459068e-02    2.386067e+06    1.994759e-08    1.155081e-11    1.567373e-08   -3.424110e-02
    2.041979e+01    2.353411e+02    1.616220e-02    2.613799e+06    2.009554e-08    1.193464e-11    1.587364e-08   -2.924110e-02
    2.033920e+01    2.379405e+02    1.789594e-02    2.861925e+06    2.024186e-08    1.233043e-11    1.607126e-08   -2.424110e-02
    2.025388e+01    2.406944e+02    1.980746e-02    3.131949e+06    2.038650e-08    1.273855e-11    1.626650e-08   -1.924110e-02
    2.016306e+01    2.435957e+02    2.191352e-02    3.425407e+06    2.052942e-08    1.315935e-11    1.645932e-08   -1.424110e-02
    2.006597e+01    2.466351e+02    2.423212e-02    3.743861e+06    2.067056e-08    1.359321e-11    1.664968e-08   -9.241100e-03
    1.996187e+01    2.498016e+02    2.678258e-02    4.088879e+06    2.080988e-08    1.404055e-11    1.683751e-08   -4.241100e-03
    1.985002e+01    2.530821e+02    2.958551e-02    4.462014e+06    2.094736e-08    1.450174e-11    1.702278e-08    7.589000e-04
    1.972973e+01    2.564616e+02    3.266284e-02    4.864790e+06    2.108294e-08    1.497721e-11    1.720545e-08    5.758900e-03
    1.960041e+01    2.599238e+02    3.603775e-02    5.298672e+06    2.121660e-08    1.546739e-11    1.738547e-08    1.075890e-02
    1.946151e+01    2.634503e+02    3.973475e-02    5.765053e+06    2.134832e-08    1.597272e-11    1.756285e-08    1.575890e-02
    1.931258e+01    2.670214e+02    4.377949e-02    6.265214e+06    2.147807e-08    1.649367e-11    1.773753e-08    2.075890e-02
    1.915329e+01    2.706163e+02    4.819882e-02    6.800314e+06    2.160583e-08    1.703069e-11    1.790950e-08    2.575890e-02
    1.898340e+01    2.742127e+02    5.302060e-02    7.371354e+06    2.173159e-08    1.758429e-11    1.807875e-08    3.075890e-02
    1.880278e+01    2.777881e+02    5.827370e-02    7.979168e+06    2.185532e-08    1.815497e-11    1.824526e-08    3.575890e-02
    1.861144e+01    2.813190e+02    6.398770e-02    8.624375e+06    2.197703e-08    1.874324e-11    1.840902e-08    4.075890e-02
    1.840951e+01    2.847821e+02    7.019290e-02    9.307400e+06    2.209669e-08    1.934964e-11    1.857004e-08    4.575890e-02
    1.819720e+01    2.881537e+02    7.692020e-02    1.002841e+07    2.221432e-08    1.997475e-11    1.872830e-08    5.075890e-02
    1.797486e+01    2.914109e+02    8.420065e-02    1.078734e+07    2.232990e-08    2.061912e-11    1.888381e-08    5.575890e-02
    1.774295e+01    2.945312e+02    9.206555e-02    1.158387e+07    2.244343e-08    2.128336e-11    1.903659e-08    6.075890e-02
    1.750197e+01    2.974929e+02    1.005462e-01    1.241741e+07    2.255492e-08    2.196807e-11    1.918663e-08    6.575890e-02
    1.725255e+01    3.002759e+02    1.096734e-01    1.328712e+07    2.266438e-08    2.267390e-11    1.933394e-08    7.075890e-02
    1.699537e+01    3.028611e+02    1.194777e-01    1.419188e+07    2.277181e-08    2.340150e-11    1.947855e-08    7.575890e-02
    1.673116e+01    3.052311e+02    1.299889e-01    1.513036e+07    2.287721e-08    2.415155e-11    1.962047e-08    8.075890e-02
    1.646072e+01    3.073704e+02    1.412358e-01    1.610097e+07    2.298062e-08    2.492475e-11    1.975970e-08    8.575890e-02
    1.618484e+01    3.092656e+02    1.532464e-01    1.710192e+07    2.308202e-08    2.572184e-11    1.989629e-08    9.075890e-02
    1.590434e+01    3.109047e+02    1.660471e-01    1.813120e+07    2.318145e-08    2.654355e-11    2.003025e-08    9.575890e-02
    1.562008e+01    3.122785e+02    1.796632e-01    1.918667e+07    2.327892e-08    2.739068e-11    2.016161e-08    1.007589e-01
    1.533287e+01    3.133795e+02    1.941182e-01    2.026602e+07    2.337445e-08    2.826403e-11    2.029039e-08    1.057589e-01
    1.504353e+01    3.142024e+02    2.094341e-01    2.136683e+07    2.346805e-08    2.916444e-11    2.041663e-08    1.107589e-01
    1.475286e+01    3.147442e+02    2.256309e-01    2.248661e+07    2.355976e-08    3.009275e-11    2.054035e-08    1.157589e-01
    1.446162e+01    3.150037e+02    2.427269e-01    2.362281e+07    2.364958e-08    3.104987e-11    2.066158e-08    1.207589e-01
    1.417055e+01    3.149818e+02    2.607382e-01    2.477282e+07    2.373756e-08    3.203674e-11    2.078036e-08    1.257589e-01
    1.388033e+01    3.146812e+02    2.796793e-01    2.593409e+07    2.382370e-08    3.305429e-11    2.089672e-08    1.307589e-01
    1.359161e+01    3.141060e+02    2.995624e-01    2.710408e+07    2.390803e-08    3.410352e-11    2.101070e-08    1.357589e-01
    1.330501e+01    3.132622e+02    3.203977e-01    2.828030e+07    2.399058e-08    3.518547e-11    2.112233e-08    1.407589e-01
    1.302107e+01    3.121572e+02    3.421938e-01    2.946033e+07    2.407140e-08    3.630120e-11    2.123166e-08    1.457589e-01
    1.274030e+01    3.107993e+02    3.649569e-01    3.064188e+07    2.415048e-08    3.745179e-11    2.133871e-08    1.507589e-01
    1.246315e+01    3.091981e+02    3.886916e-01    3.182276e+07    2.422787e-08    3.863842e-11    2.144352e-08    1.557589e-01
    1.219004e+01    3.073640e+02    4.134007e-01    3.300091e+07    2.430359e-08    3.986225e-11    2.154614e-08    1.607589e-01
    1.192133e+01    3.053084e+02    4.390854e-01    3.417443e+07    2.437768e-08    4.112451e-11    2.164660e-08    1.657589e-01
    1.165732e+01    3.030425e+02    4.657451e-01    3.534154e+07    2.445016e-08    4.242648e-11    2.174494e-08    1.707589e-01
    1.139830e+01    3.005789e+02    4.933779e-01    3.650065e+07    2.452107e-08    4.376946e-11    2.184122e-08    1.757589e-01
    1.114450e+01    2.979298e+02    5.219805e-01    3.765034e+07    2.459042e-08    4.515483e-11    2.193544e-08    1.807589e-01
    1.089610e+01    2.951078e+02    5.515485e-01    3.878932e+07    2.465826e-08    4.658400e-11    2.202767e-08    1.857589e-01
    1.065327e+01    2.921256e+02    5.820755e-01    3.991651e+07    2.472462e-08    4.805844e-11    2.211794e-08    1.907589e-01
    1.041609e+01    2.889954e+02    6.135560e-01    4.103089e+07    2.478953e-08    4.957968e-11    2.220629e-08    1.957589e-01
    1.018470e+01    2.857298e+02    6.459815e-01    4.213174e+07    2.485301e-08    5.114925e-11    2.229276e-08    2.007589e-01
    9.959108e+00    2.823406e+02    6.793445e-01    4.321835e+07    2.491509e-08    5.276890e-11    2.237738e-08    2.057589e-01
    9.739377e+00    2.788395e+02    7.136350e-01    4.429021e+07    2.497582e-08    5.444020e-11    2.246021e-08    2.107589e-01
    9.525502e+00    2.752381e+02    7.488445e-01    4.534699e+07    2.503520e-08    5.616500e-11    2.254127e-08    2.157589e-01
    9.317465e+00    2.715470e+02    7.849630e-01    4.638839e+07    2.509330e-08    5.794505e-11    2.262061e-08    2.207589e-01
    9.115234e+00    2.677767e+02    8.219800e-01    4.741429e+07    2.515012e-08    5.978230e-11    2.269826e-08    2.257589e-01
    8.918751e+00    2.639370e+02    8.598850e-01    4.842458e+07    2.520569e-08    6.167870e-11    2.277426e-08    2.307589e-01
    8.727956e+00    2.600373e+02    8.986675e-01    4.941937e+07    2.526007e-08    6.363630e-11    2.284865e-08    2.357589e-01
    8.542768e+00    2.560865e+02    9.383165e-01    5.039880e+07    2.531325e-08    6.565725e-11    2.292147e-08    2.407589e-01
    8.363088e+00    2.520930e+02    9.788220e-01    5.136305e+07    2.536529e-08    6.774365e-11    2.299275e-08    2.457589e-01
