# sky130 nfet_01v8 gm/ID Processed Lookup Table
# Corner: ss
# Temperature: 75C
# W = 2.0 um
# L = 2.7 um (2700 nm)
# Columns: gm/id [1/V]  gm/gds [V/V]  id/W [A/m]  ft [Hz]  Cgg/W [F/m]  Cgd/W [F/m]  Cgs/W [F/m]  Vov [V]
#         gm/id          gm/gds            id/W              ft           Cgg/W           Cgd/W           Cgs/W             Vov
    2.329664e+01    1.634672e+02    4.824916e-07    3.097584e+02    5.775375e-09    2.333095e-13    5.689700e-10   -5.171700e-01
    2.329483e+01    1.634545e+02    5.420955e-07    3.479299e+02    5.776485e-09    2.411343e-13    5.907600e-10   -5.121700e-01
    2.329289e+01    1.634412e+02    6.090570e-07    3.907458e+02    5.778395e-09    2.492396e-13    6.134140e-10   -5.071700e-01
    2.329086e+01    1.634269e+02    6.842825e-07    4.387614e+02    5.781130e-09    2.576357e-13    6.369620e-10   -5.021700e-01
    2.328870e+01    1.634119e+02    7.687915e-07    4.925973e+02    5.784715e-09    2.663335e-13    6.614340e-10   -4.971700e-01
    2.328640e+01    1.633959e+02    8.637280e-07    5.529467e+02    5.789170e-09    2.753441e-13    6.868615e-10   -4.921700e-01
    2.328398e+01    1.633790e+02    9.703760e-07    6.205843e+02    5.794510e-09    2.846795e-13    7.132750e-10   -4.871700e-01
    2.328142e+01    1.633611e+02    1.090179e-06    6.963726e+02    5.800770e-09    2.943515e-13    7.407080e-10   -4.821700e-01
    2.327868e+01    1.633422e+02    1.224757e-06    7.812753e+02    5.807970e-09    3.043727e-13    7.691930e-10   -4.771700e-01
    2.327580e+01    1.633222e+02    1.375929e-06    8.763672e+02    5.816135e-09    3.147561e-13    7.987630e-10   -4.721700e-01
    2.327275e+01    1.633010e+02    1.545736e-06    9.828462e+02    5.825290e-09    3.255150e-13    8.294515e-10   -4.671700e-01
    2.326952e+01    1.632786e+02    1.736473e-06    1.102049e+03    5.835455e-09    3.366633e-13    8.612925e-10   -4.621700e-01
    2.326609e+01    1.632548e+02    1.950713e-06    1.235461e+03    5.846660e-09    3.482155e-13    8.943205e-10   -4.571700e-01
    2.326247e+01    1.632297e+02    2.191347e-06    1.384742e+03    5.858930e-09    3.601864e-13    9.285695e-10   -4.521700e-01
    2.325864e+01    1.632032e+02    2.461619e-06    1.551736e+03    5.872290e-09    3.725915e-13    9.640745e-10   -4.471700e-01
    2.325457e+01    1.631750e+02    2.765171e-06    1.738496e+03    5.886765e-09    3.854466e-13    1.000869e-09   -4.421700e-01
    2.325028e+01    1.631454e+02    3.106089e-06    1.947308e+03    5.902385e-09    3.987682e-13    1.038990e-09   -4.371700e-01
    2.324573e+01    1.631140e+02    3.488964e-06    2.180713e+03    5.919175e-09    4.125735e-13    1.078471e-09   -4.321700e-01
    2.324091e+01    1.630808e+02    3.918941e-06    2.441538e+03    5.937155e-09    4.268799e-13    1.119346e-09   -4.271700e-01
    2.323582e+01    1.630457e+02    4.401799e-06    2.732923e+03    5.956360e-09    4.417058e-13    1.161650e-09   -4.221700e-01
    2.323042e+01    1.630086e+02    4.944022e-06    3.058357e+03    5.976810e-09    4.570699e-13    1.205418e-09   -4.171700e-01
    2.322472e+01    1.629694e+02    5.552880e-06    3.421717e+03    5.998530e-09    4.729918e-13    1.250682e-09   -4.121700e-01
    2.321869e+01    1.629280e+02    6.236540e-06    3.827307e+03    6.021550e-09    4.894915e-13    1.297477e-09   -4.071700e-01
    2.321230e+01    1.628842e+02    7.004155e-06    4.279902e+03    6.045890e-09    5.065900e-13    1.345833e-09   -4.021700e-01
    2.320555e+01    1.628380e+02    7.865990e-06    4.784798e+03    6.071580e-09    5.243080e-13    1.395785e-09   -3.971700e-01
    2.319842e+01    1.627893e+02    8.833560e-06    5.347876e+03    6.098640e-09    5.426685e-13    1.447362e-09   -3.921700e-01
    2.319087e+01    1.627377e+02    9.919790e-06    5.975649e+03    6.127095e-09    5.616940e-13    1.500595e-09   -3.871700e-01
    2.318289e+01    1.626834e+02    1.113916e-05    6.675339e+03    6.156965e-09    5.814080e-13    1.555513e-09   -3.821700e-01
    2.317446e+01    1.626261e+02    1.250790e-05    7.454945e+03    6.188275e-09    6.018350e-13    1.612143e-09   -3.771700e-01
    2.316556e+01    1.625656e+02    1.404421e-05    8.323325e+03    6.221045e-09    6.230000e-13    1.670513e-09   -3.721700e-01
    2.315615e+01    1.625019e+02    1.576851e-05    9.290294e+03    6.255290e-09    6.449285e-13    1.730646e-09   -3.671700e-01
    2.314620e+01    1.624347e+02    1.770365e-05    1.036670e+04    6.291035e-09    6.676475e-13    1.792567e-09   -3.621700e-01
    2.313570e+01    1.623639e+02    1.987526e-05    1.156454e+04    6.328300e-09    6.911845e-13    1.856299e-09   -3.571700e-01
    2.312462e+01    1.622894e+02    2.231204e-05    1.289713e+04    6.367090e-09    7.155680e-13    1.921860e-09   -3.521700e-01
    2.311290e+01    1.622109e+02    2.504617e-05    1.437912e+04    6.407425e-09    7.408265e-13    1.989268e-09   -3.471700e-01
    2.310055e+01    1.621283e+02    2.811364e-05    1.602674e+04    6.449325e-09    7.669910e-13    2.058540e-09   -3.421700e-01
    2.308752e+01    1.620414e+02    3.155478e-05    1.785793e+04    6.492790e-09    7.940915e-13    2.129690e-09   -3.371700e-01
    2.307376e+01    1.619501e+02    3.541476e-05    1.989247e+04    6.537835e-09    8.221600e-13    2.202727e-09   -3.321700e-01
    2.305926e+01    1.618541e+02    3.974410e-05    2.215222e+04    6.584470e-09    8.512295e-13    2.277663e-09   -3.271700e-01
    2.304397e+01    1.617532e+02    4.459938e-05    2.466129e+04    6.632700e-09    8.813340e-13    2.354503e-09   -3.221700e-01
    2.302786e+01    1.616474e+02    5.004385e-05    2.744631e+04    6.682525e-09    9.125075e-13    2.433251e-09   -3.171700e-01
    2.301088e+01    1.615364e+02    5.614835e-05    3.053659e+04    6.733950e-09    9.447865e-13    2.513907e-09   -3.121700e-01
    2.299302e+01    1.614200e+02    6.299195e-05    3.396450e+04    6.786970e-09    9.782070e-13    2.596471e-09   -3.071700e-01
    2.297420e+01    1.612982e+02    7.066325e-05    3.776566e+04    6.841590e-09    1.012807e-12    2.680936e-09   -3.021700e-01
    2.295440e+01    1.611707e+02    7.926110e-05    4.197931e+04    6.897805e-09    1.048625e-12    2.767295e-09   -2.971700e-01
    2.293358e+01    1.610372e+02    8.889605e-05    4.664874e+04    6.955600e-09    1.085701e-12    2.855537e-09   -2.921700e-01
    2.291169e+01    1.608979e+02    9.969160e-05    5.182150e+04    7.014970e-09    1.124076e-12    2.945648e-09   -2.871700e-01
    2.288869e+01    1.607523e+02    1.117856e-04    5.754999e+04    7.075900e-09    1.163793e-12    3.037610e-09   -2.821700e-01
    2.286453e+01    1.606006e+02    1.253321e-04    6.389176e+04    7.138380e-09    1.204894e-12    3.131404e-09   -2.771700e-01
    2.283917e+01    1.604426e+02    1.405027e-04    7.091015e+04    7.202390e-09    1.247424e-12    3.227003e-09   -2.721700e-01
    2.281258e+01    1.602782e+02    1.574891e-04    7.867482e+04    7.267905e-09    1.291428e-12    3.324383e-09   -2.671700e-01
    2.278470e+01    1.601074e+02    1.765051e-04    8.726211e+04    7.334915e-09    1.336953e-12    3.423511e-09   -2.621700e-01
    2.275550e+01    1.599301e+02    1.977890e-04    9.675608e+04    7.403385e-09    1.384048e-12    3.524354e-09   -2.571700e-01
    2.272491e+01    1.597465e+02    2.216064e-04    1.072489e+05    7.473285e-09    1.432761e-12    3.626874e-09   -2.521700e-01
    2.269293e+01    1.595566e+02    2.482529e-04    1.188418e+05    7.544595e-09    1.483144e-12    3.731032e-09   -2.471700e-01
    2.265951e+01    1.593606e+02    2.780579e-04    1.316455e+05    7.617280e-09    1.535247e-12    3.836784e-09   -2.421700e-01
    2.262459e+01    1.591585e+02    3.113882e-04    1.457819e+05    7.691295e-09    1.589125e-12    3.944083e-09   -2.371700e-01
    2.258816e+01    1.589508e+02    3.486514e-04    1.613841e+05    7.766615e-09    1.644833e-12    4.052879e-09   -2.321700e-01
    2.255018e+01    1.587376e+02    3.903014e-04    1.785983e+05    7.843190e-09    1.702427e-12    4.163120e-09   -2.271700e-01
    2.251063e+01    1.585195e+02    4.368421e-04    1.975846e+05    7.920985e-09    1.761964e-12    4.274750e-09   -2.221700e-01
    2.246948e+01    1.582969e+02    4.888340e-04    2.185179e+05    7.999955e-09    1.823503e-12    4.387710e-09   -2.171700e-01
    2.242673e+01    1.580705e+02    5.468990e-04    2.415901e+05    8.080050e-09    1.887106e-12    4.501939e-09   -2.121700e-01
    2.238235e+01    1.578409e+02    6.117280e-04    2.670110e+05    8.161220e-09    1.952833e-12    4.617375e-09   -2.071700e-01
    2.233635e+01    1.576091e+02    6.840870e-04    2.950097e+05    8.243420e-09    2.020751e-12    4.733951e-09   -2.021700e-01
    2.228874e+01    1.573761e+02    7.648260e-04    3.258376e+05    8.326590e-09    2.090923e-12    4.851599e-09   -1.971700e-01
    2.223951e+01    1.571428e+02    8.548875e-04    3.597684e+05    8.410685e-09    2.163417e-12    4.970249e-09   -1.921700e-01
    2.218871e+01    1.569107e+02    9.553145e-04    3.971021e+05    8.495645e-09    2.238303e-12    5.089830e-09   -1.871700e-01
    2.213633e+01    1.566812e+02    1.067265e-03    4.381663e+05    8.581415e-09    2.315649e-12    5.210265e-09   -1.821700e-01
    2.208245e+01    1.564561e+02    1.192016e-03    4.833191e+05    8.667935e-09    2.395532e-12    5.331485e-09   -1.771700e-01
    2.202709e+01    1.562370e+02    1.330987e-03    5.329516e+05    8.755145e-09    2.478022e-12    5.453410e-09   -1.721700e-01
    2.197033e+01    1.560262e+02    1.485743e-03    5.874915e+05    8.842985e-09    2.563199e-12    5.575965e-09   -1.671700e-01
    2.191225e+01    1.558259e+02    1.658016e-03    6.474059e+05    8.931395e-09    2.651139e-12    5.699070e-09   -1.621700e-01
    2.185292e+01    1.556386e+02    1.849722e-03    7.132049e+05    9.020315e-09    2.741924e-12    5.822640e-09   -1.571700e-01
    2.179245e+01    1.554671e+02    2.062975e-03    7.854471e+05    9.109680e-09    2.835636e-12    5.946610e-09   -1.521700e-01
    2.173093e+01    1.553145e+02    2.300112e-03    8.647427e+05    9.199425e-09    2.932360e-12    6.070885e-09   -1.471700e-01
    2.166851e+01    1.551840e+02    2.563714e-03    9.517580e+05    9.289495e-09    3.032182e-12    6.195395e-09   -1.421700e-01
    2.160528e+01    1.550791e+02    2.856628e-03    1.047223e+06    9.379820e-09    3.135193e-12    6.320060e-09   -1.371700e-01
    2.154143e+01    1.550038e+02    3.181997e-03    1.151937e+06    9.470340e-09    3.241484e-12    6.444800e-09   -1.321700e-01
    2.147705e+01    1.549619e+02    3.543289e-03    1.266771e+06    9.560995e-09    3.351149e-12    6.569535e-09   -1.271700e-01
    2.141234e+01    1.549579e+02    3.944329e-03    1.392684e+06    9.651720e-09    3.464285e-12    6.694185e-09   -1.221700e-01
    2.134742e+01    1.549962e+02    4.389337e-03    1.530720e+06    9.742460e-09    3.580992e-12    6.818675e-09   -1.171700e-01
    2.128243e+01    1.550815e+02    4.882966e-03    1.682026e+06    9.833145e-09    3.701370e-12    6.942935e-09   -1.121700e-01
    2.121756e+01    1.552190e+02    5.430345e-03    1.847857e+06    9.923720e-09    3.825525e-12    7.066880e-09   -1.071700e-01
    2.115289e+01    1.554134e+02    6.037130e-03    2.029586e+06    1.001413e-08    3.953566e-12    7.190445e-09   -1.021700e-01
    2.108858e+01    1.556702e+02    6.709550e-03    2.228714e+06    1.010431e-08    4.085600e-12    7.313555e-09   -9.717000e-02
    2.102470e+01    1.559945e+02    7.454480e-03    2.446887e+06    1.019421e-08    4.221745e-12    7.436145e-09   -9.217000e-02
    2.096133e+01    1.563916e+02    8.279480e-03    2.685899e+06    1.028377e-08    4.362113e-12    7.558140e-09   -8.717000e-02
    2.089851e+01    1.568667e+02    9.192880e-03    2.947713e+06    1.037294e-08    4.506828e-12    7.679480e-09   -8.217000e-02
    2.083623e+01    1.574250e+02    1.020386e-02    3.234466e+06    1.046168e-08    4.656013e-12    7.800095e-09   -7.717000e-02
    2.077444e+01    1.580711e+02    1.132251e-02    3.548489e+06    1.054991e-08    4.809793e-12    7.919930e-09   -7.217000e-02
    2.071306e+01    1.588098e+02    1.255993e-02    3.892309e+06    1.063761e-08    4.968299e-12    8.038920e-09   -6.717000e-02
    2.065190e+01    1.596451e+02    1.392831e-02    4.268671e+06    1.072472e-08    5.131665e-12    8.157015e-09   -6.217000e-02
    2.059076e+01    1.605809e+02    1.544106e-02    4.680538e+06    1.081120e-08    5.300030e-12    8.274160e-09   -5.717000e-02
    2.052935e+01    1.616202e+02    1.711287e-02    5.131107e+06    1.089700e-08    5.473535e-12    8.390295e-09   -5.217000e-02
    2.046731e+01    1.627654e+02    1.895984e-02    5.623806e+06    1.098209e-08    5.652325e-12    8.505380e-09   -4.717000e-02
    2.040423e+01    1.640180e+02    2.099957e-02    6.162307e+06    1.106643e-08    5.836555e-12    8.619365e-09   -4.217000e-02
    2.033961e+01    1.653789e+02    2.325133e-02    6.750514e+06    1.114998e-08    6.026375e-12    8.732200e-09   -3.717000e-02
    2.027290e+01    1.668475e+02    2.573611e-02    7.392564e+06    1.123269e-08    6.221950e-12    8.843855e-09   -3.217000e-02
    2.020350e+01    1.684227e+02    2.847673e-02    8.092813e+06    1.131455e-08    6.423435e-12    8.954285e-09   -2.717000e-02
    2.013074e+01    1.701017e+02    3.149801e-02    8.855814e+06    1.139553e-08    6.631005e-12    9.063455e-09   -2.217000e-02
    2.005390e+01    1.718806e+02    3.482682e-02    9.686309e+06    1.147558e-08    6.844830e-12    9.171330e-09   -1.717000e-02
    1.997229e+01    1.737543e+02    3.849219e-02    1.058918e+07    1.155469e-08    7.065095e-12    9.277885e-09   -1.217000e-02
    1.988512e+01    1.757163e+02    4.252538e-02    1.156942e+07    1.163282e-08    7.291980e-12    9.383085e-09   -7.170000e-03
    1.979169e+01    1.777587e+02    4.696000e-02    1.263208e+07    1.170998e-08    7.525675e-12    9.486910e-09   -2.170000e-03
    1.969124e+01    1.798725e+02    5.183195e-02    1.378226e+07    1.178611e-08    7.766375e-12    9.589335e-09    2.830000e-03
    1.958311e+01    1.820469e+02    5.717950e-02    1.502494e+07    1.186122e-08    8.014290e-12    9.690335e-09    7.830000e-03
    1.946662e+01    1.842706e+02    6.304340e-02    1.636506e+07    1.193528e-08    8.269615e-12    9.789900e-09    1.283000e-02
    1.934119e+01    1.865304e+02    6.946665e-02    1.780733e+07    1.200828e-08    8.532575e-12    9.888015e-09    1.783000e-02
    1.920632e+01    1.888124e+02    7.649455e-02    1.935621e+07    1.208021e-08    8.803390e-12    9.984655e-09    2.283000e-02
    1.906156e+01    1.911019e+02    8.417465e-02    2.101582e+07    1.215105e-08    9.082280e-12    1.007983e-08    2.783000e-02
    1.890664e+01    1.933833e+02    9.255640e-02    2.278986e+07    1.222079e-08    9.369490e-12    1.017351e-08    3.283000e-02
    1.874129e+01    1.956404e+02    1.016914e-01    2.468153e+07    1.228943e-08    9.665260e-12    1.026569e-08    3.783000e-02
    1.856543e+01    1.978568e+02    1.116327e-01    2.669345e+07    1.235696e-08    9.969835e-12    1.035638e-08    4.283000e-02
    1.837906e+01    2.000157e+02    1.224349e-01    2.882761e+07    1.242339e-08    1.028348e-11    1.044557e-08    4.783000e-02
    1.818229e+01    2.021006e+02    1.341539e-01    3.108528e+07    1.248870e-08    1.060645e-11    1.053325e-08    5.283000e-02
    1.797535e+01    2.040951e+02    1.468462e-01    3.346697e+07    1.255289e-08    1.093904e-11    1.061944e-08    5.783000e-02
    1.775856e+01    2.059834e+02    1.605691e-01    3.597242e+07    1.261596e-08    1.128152e-11    1.070412e-08    6.283000e-02
    1.753234e+01    2.077501e+02    1.753801e-01    3.860046e+07    1.267792e-08    1.163418e-11    1.078732e-08    6.783000e-02
    1.729722e+01    2.093811e+02    1.913364e-01    4.134916e+07    1.273876e-08    1.199733e-11    1.086902e-08    7.283000e-02
    1.705375e+01    2.108631e+02    2.084947e-01    4.421569e+07    1.279849e-08    1.237128e-11    1.094925e-08    7.783000e-02
    1.680262e+01    2.121840e+02    2.269110e-01    4.719639e+07    1.285712e-08    1.275636e-11    1.102799e-08    8.283000e-02
    1.654450e+01    2.133329e+02    2.466396e-01    5.028678e+07    1.291466e-08    1.315289e-11    1.110529e-08    8.783000e-02
    1.628016e+01    2.143009e+02    2.677335e-01    5.348166e+07    1.297110e-08    1.356122e-11    1.118113e-08    9.283000e-02
    1.601036e+01    2.150801e+02    2.902436e-01    5.677509e+07    1.302645e-08    1.398171e-11    1.125553e-08    9.783000e-02
    1.573590e+01    2.156643e+02    3.142183e-01    6.016048e+07    1.308073e-08    1.441472e-11    1.132851e-08    1.028300e-01
    1.545758e+01    2.160490e+02    3.397035e-01    6.363065e+07    1.313395e-08    1.486063e-11    1.140008e-08    1.078300e-01
    1.517621e+01    2.162314e+02    3.667420e-01    6.717807e+07    1.318611e-08    1.531984e-11    1.147025e-08    1.128300e-01
    1.489257e+01    2.162101e+02    3.953738e-01    7.079464e+07    1.323723e-08    1.579275e-11    1.153904e-08    1.178300e-01
    1.460744e+01    2.159855e+02    4.256350e-01    7.447219e+07    1.328732e-08    1.627978e-11    1.160647e-08    1.228300e-01
    1.432155e+01    2.155590e+02    4.575585e-01    7.820215e+07    1.333638e-08    1.678136e-11    1.167255e-08    1.278300e-01
    1.403561e+01    2.149337e+02    4.911735e-01    8.197589e+07    1.338444e-08    1.729795e-11    1.173731e-08    1.328300e-01
    1.375032e+01    2.141141e+02    5.265055e-01    8.578494e+07    1.343151e-08    1.782999e-11    1.180076e-08    1.378300e-01
    1.346629e+01    2.131055e+02    5.635765e-01    8.962072e+07    1.347760e-08    1.837799e-11    1.186292e-08    1.428300e-01
    1.318414e+01    2.119146e+02    6.024040e-01    9.347504e+07    1.352273e-08    1.894243e-11    1.192381e-08    1.478300e-01
    1.290441e+01    2.105488e+02    6.430025e-01    9.733980e+07    1.356690e-08    1.952381e-11    1.198345e-08    1.528300e-01
    1.262760e+01    2.090160e+02    6.853825e-01    1.012072e+08    1.361014e-08    2.012268e-11    1.204187e-08    1.578300e-01
    1.235417e+01    2.073253e+02    7.295515e-01    1.050700e+08    1.365246e-08    2.073957e-11    1.209907e-08    1.628300e-01
    1.208452e+01    2.054858e+02    7.755130e-01    1.089212e+08    1.369388e-08    2.137507e-11    1.215509e-08    1.678300e-01
    1.181903e+01    2.035074e+02    8.232680e-01    1.127543e+08    1.373441e-08    2.202975e-11    1.220994e-08    1.728300e-01
    1.155802e+01    2.013999e+02    8.728140e-01    1.165636e+08    1.377407e-08    2.270422e-11    1.226364e-08    1.778300e-01
    1.130175e+01    1.991731e+02    9.241460e-01    1.203435e+08    1.381287e-08    2.339912e-11    1.231622e-08    1.828300e-01
    1.105049e+01    1.968375e+02    9.772560e-01    1.240892e+08    1.385083e-08    2.411508e-11    1.236770e-08    1.878300e-01
    1.080441e+01    1.944030e+02    1.032134e+00    1.277964e+08    1.388797e-08    2.485280e-11    1.241809e-08    1.928300e-01
    1.056370e+01    1.918795e+02    1.088767e+00    1.314613e+08    1.392430e-08    2.561296e-11    1.246743e-08    1.978300e-01
    1.032847e+01    1.892766e+02    1.147143e+00    1.350807e+08    1.395984e-08    2.639629e-11    1.251573e-08    2.028300e-01
    1.009882e+01    1.866037e+02    1.207245e+00    1.386517e+08    1.399461e-08    2.720353e-11    1.256301e-08    2.078300e-01
    9.874824e+00    1.838700e+02    1.269054e+00    1.421722e+08    1.402862e-08    2.803546e-11    1.260929e-08    2.128300e-01
    9.656524e+00    1.810842e+02    1.332555e+00    1.456406e+08    1.406189e-08    2.889288e-11    1.265459e-08    2.178300e-01
    9.443933e+00    1.782544e+02    1.397727e+00    1.490554e+08    1.409443e-08    2.977662e-11    1.269895e-08    2.228300e-01
    9.237052e+00    1.753886e+02    1.464549e+00    1.524158e+08    1.412627e-08    3.068754e-11    1.274236e-08    2.278300e-01
    9.035852e+00    1.724942e+02    1.533001e+00    1.557212e+08    1.415741e-08    3.162655e-11    1.278487e-08    2.328300e-01
    8.840294e+00    1.695782e+02    1.603061e+00    1.589716e+08    1.418788e-08    3.259454e-11    1.282648e-08    2.378300e-01
