# sky130 nfet_01v8 gm/ID Processed Lookup Table
# Corner: ss
# Temperature: 25C
# W = 2.0 um
# L = 3.5 um (3500 nm)
# Columns: gm/id [1/V]  gm/gds [V/V]  id/W [A/m]  ft [Hz]  Cgg/W [F/m]  Cgd/W [F/m]  Cgs/W [F/m]  Cdb/W [F/m]  vgs [V]  vth [V]  vdsat [V]
# vdsat = BSIM4 saturation voltage (|VDS|_sat, positive); use for headroom / saturation / cascode-bias calculations
#           gm/id          gm/gds            id/W              ft           Cgg/W           Cgd/W           Cgs/W           Cdb/W             vgs             vth           vdsat
    2.701239e+01    1.892290e+02    4.659928e-05    2.274461e+04    8.808135e-09    1.167531e-12    3.527275e-09    4.867466e-10    2.900000e-01    5.678271e-01    3.763150e-02
    2.699779e+01    1.888626e+02    6.104745e-05    2.917022e+04    8.992410e-09    1.266113e-12    3.797116e-09    5.177040e-10    3.000000e-01    5.678271e-01    3.763867e-02
    2.696582e+01    1.884548e+02    7.995650e-05    3.734915e+04    9.187700e-09    1.372831e-12    4.080175e-09    5.498095e-10    3.100000e-01    5.678271e-01    3.764806e-02
    2.691813e+01    1.880032e+02    1.046808e-04    4.774137e+04    9.393705e-09    1.488281e-12    4.376043e-09    5.829970e-10    3.200000e-01    5.678271e-01    3.766033e-02
    2.685581e+01    1.875060e+02    1.369748e-04    6.092206e+04    9.610025e-09    1.613092e-12    4.684178e-09    6.171880e-10    3.300000e-01    5.678271e-01    3.767634e-02
    2.677953e+01    1.869626e+02    1.791073e-04    7.760880e+04    9.836155e-09    1.747928e-12    5.003910e-09    6.522935e-10    3.400000e-01    5.678271e-01    3.769722e-02
    2.668963e+01    1.863736e+02    2.340049e-04    9.869473e+04    1.007149e-08    1.893491e-12    5.334430e-09    6.882125e-10    3.500000e-01    5.678271e-01    3.772438e-02
    2.658626e+01    1.857414e+02    3.054337e-04    1.252885e+05    1.031533e-08    2.050514e-12    5.674830e-09    7.248345e-10    3.600000e-01    5.678271e-01    3.775967e-02
    2.646953e+01    1.850717e+02    3.982272e-04    1.587635e+05    1.056688e-08    2.219775e-12    6.024070e-09    7.620405e-10    3.700000e-01    5.678271e-01    3.780543e-02
    2.633954e+01    1.843730e+02    5.185720e-04    2.008161e+05    1.082528e-08    2.402087e-12    6.381025e-09    7.997050e-10    3.800000e-01    5.678271e-01    3.786462e-02
    2.619647e+01    1.836583e+02    6.743640e-04    2.535375e+05    1.108958e-08    2.598307e-12    6.744495e-09    8.376975e-10    3.900000e-01    5.678271e-01    3.794100e-02
    2.604074e+01    1.829459e+02    8.756500e-04    3.195004e+05    1.135881e-08    2.809334e-12    7.113205e-09    8.758830e-10    4.000000e-01    5.678271e-01    3.803926e-02
    2.587303e+01    1.822606e+02    1.135178e-03    4.018651e+05    1.163192e-08    3.036114e-12    7.485830e-09    9.141260e-10    4.100000e-01    5.678271e-01    3.816528e-02
    2.569435e+01    1.816341e+02    1.469078e-03    5.045091e+05    1.190786e-08    3.279642e-12    7.861035e-09    9.522925e-10    4.200000e-01    5.678271e-01    3.832630e-02
    2.550609e+01    1.811068e+02    1.897704e-03    6.321885e+05    1.218557e-08    3.540961e-12    8.237460e-09    9.902485e-10    4.300000e-01    5.678271e-01    3.853121e-02
    2.530998e+01    1.807275e+02    2.446677e-03    7.907363e+05    1.246399e-08    3.821171e-12    8.613775e-09    1.027867e-09    4.400000e-01    5.678271e-01    3.879082e-02
    2.510805e+01    1.805540e+02    3.148181e-03    9.873086e+05    1.274207e-08    4.121428e-12    8.988670e-09    1.065024e-09    4.500000e-01    5.678271e-01    3.911807e-02
    2.490242e+01    1.806519e+02    4.042565e-03    1.230687e+06    1.301881e-08    4.442948e-12    9.360875e-09    1.101606e-09    4.600000e-01    5.678271e-01    3.952834e-02
    2.469501e+01    1.810934e+02    5.180325e-03    1.531636e+06    1.329324e-08    4.787014e-12    9.729205e-09    1.137506e-09    4.700000e-01    5.678271e-01    4.003959e-02
    2.448733e+01    1.819539e+02    6.624525e-03    1.903329e+06    1.356446e-08    5.154980e-12    1.009254e-08    1.172627e-09    4.800000e-01    5.678271e-01    4.067248e-02
    2.427978e+01    1.833081e+02    8.453785e-03    2.361797e+06    1.383163e-08    5.548270e-12    1.044983e-08    1.206883e-09    4.900000e-01    5.678271e-01    4.145037e-02
    2.407138e+01    1.852237e+02    1.076577e-02    2.926391e+06    1.409399e-08    5.968390e-12    1.080016e-08    1.240198e-09    5.000000e-01    5.678271e-01    4.239915e-02
    2.385930e+01    1.877551e+02    1.368130e-02    3.620163e+06    1.435084e-08    6.416935e-12    1.114267e-08    1.272509e-09    5.100000e-01    5.678271e-01    4.354686e-02
    2.363862e+01    1.909354e+02    1.734891e-02    4.470075e+06    1.460157e-08    6.895590e-12    1.147666e-08    1.303763e-09    5.200000e-01    5.678271e-01    4.492311e-02
    2.340237e+01    1.947692e+02    2.194964e-02    5.506906e+06    1.484567e-08    7.406140e-12    1.180148e-08    1.333918e-09    5.300000e-01    5.678271e-01    4.655825e-02
    2.314189e+01    1.992260e+02    2.770176e-02    6.764688e+06    1.508268e-08    7.950475e-12    1.211663e-08    1.362944e-09    5.400000e-01    5.678271e-01    4.848236e-02
    2.284768e+01    2.042360e+02    3.486474e-02    8.279604e+06    1.531226e-08    8.530610e-12    1.242171e-08    1.390819e-09    5.500000e-01    5.678271e-01    5.072404e-02
    2.251040e+01    2.096890e+02    4.374187e-02    1.008821e+07    1.553411e-08    9.148670e-12    1.271637e-08    1.417534e-09    5.600000e-01    5.678271e-01    5.330914e-02
    2.212201e+01    2.154371e+02    5.468085e-02    1.222513e+07    1.574804e-08    9.806920e-12    1.300044e-08    1.443084e-09    5.700000e-01    5.678271e-01    5.625949e-02
    2.167688e+01    2.213014e+02    6.807135e-02    1.472021e+07    1.595391e-08    1.050778e-11    1.327376e-08    1.467478e-09    5.800000e-01    5.678271e-01    5.959173e-02
    2.117246e+01    2.270823e+02    8.433970e-02    1.759571e+07    1.615164e-08    1.125381e-11    1.353628e-08    1.490727e-09    5.900000e-01    5.678271e-01    6.331641e-02
    2.060974e+01    2.325732e+02    1.039397e-01    2.086361e+07    1.634123e-08    1.204774e-11    1.378805e-08    1.512852e-09    6.000000e-01    5.678271e-01    6.743739e-02
    1.999303e+01    2.375729e+02    1.273409e-01    2.452364e+07    1.652272e-08    1.289250e-11    1.402913e-08    1.533877e-09    6.100000e-01    5.678271e-01    7.195160e-02
    1.932949e+01    2.419003e+02    1.550140e-01    2.856236e+07    1.669619e-08    1.379119e-11    1.425969e-08    1.553832e-09    6.200000e-01    5.678271e-01    7.684926e-02
    1.862838e+01    2.454046e+02    1.874162e-01    3.295331e+07    1.686178e-08    1.474713e-11    1.447993e-08    1.572750e-09    6.300000e-01    5.678271e-01    8.211440e-02
    1.790016e+01    2.479736e+02    2.249758e-01    3.765843e+07    1.701965e-08    1.576388e-11    1.469007e-08    1.590668e-09    6.400000e-01    5.678271e-01    8.772573e-02
    1.715567e+01    2.495372e+02    2.680788e-01    4.263046e+07    1.717000e-08    1.684522e-11    1.489040e-08    1.607624e-09    6.500000e-01    5.678271e-01    9.365771e-02
    1.640540e+01    2.500679e+02    3.170587e-01    4.781601e+07    1.731304e-08    1.799522e-11    1.508123e-08    1.623660e-09    6.600000e-01    5.678271e-01    9.988172e-02
    1.565895e+01    2.495774e+02    3.721890e-01    5.315882e+07    1.744902e-08    1.921823e-11    1.526287e-08    1.638817e-09    6.700000e-01    5.678271e-01    1.063673e-01
    1.492470e+01    2.481110e+02    4.336799e-01    5.860318e+07    1.757819e-08    2.051888e-11    1.543566e-08    1.653137e-09    6.800000e-01    5.678271e-01    1.130834e-01
    1.420958e+01    2.457396e+02    5.016785e-01    6.409642e+07    1.770081e-08    2.190217e-11    1.559996e-08    1.666665e-09    6.900000e-01    5.678271e-01    1.199990e-01
    1.351905e+01    2.425536e+02    5.762725e-01    6.959143e+07    1.781716e-08    2.337343e-11    1.575614e-08    1.679442e-09    7.000000e-01    5.678271e-01    1.270844e-01
    1.285720e+01    2.386543e+02    6.574945e-01    7.504796e+07    1.792751e-08    2.493840e-11    1.590455e-08    1.691509e-09    7.100000e-01    5.678271e-01    1.343118e-01
    1.222679e+01    2.341474e+02    7.453320e-01    8.043317e+07    1.803214e-08    2.660322e-11    1.604556e-08    1.702909e-09    7.200000e-01    5.678271e-01    1.416553e-01
    1.162953e+01    2.291380e+02    8.397320e-01    8.572213e+07    1.813134e-08    2.837448e-11    1.617953e-08    1.713682e-09    7.300000e-01    5.678271e-01    1.490917e-01
    1.106611e+01    2.237263e+02    9.406140e-01    9.089713e+07    1.822538e-08    3.025928e-11    1.630682e-08    1.723867e-09    7.400000e-01    5.678271e-01    1.566005e-01
    1.053655e+01    2.180046e+02    1.047873e+00    9.594716e+07    1.831452e-08    3.226520e-11    1.642776e-08    1.733503e-09    7.500000e-01    5.678271e-01    1.641637e-01
    1.004024e+01    2.120558e+02    1.161392e+00    1.008668e+08    1.839903e-08    3.440045e-11    1.654270e-08    1.742626e-09    7.600000e-01    5.678271e-01    1.717660e-01
    9.576139e+00    2.059517e+02    1.281044e+00    1.056554e+08    1.847918e-08    3.667379e-11    1.665197e-08    1.751271e-09    7.700000e-01    5.678271e-01    1.793943e-01
    9.142879e+00    1.997544e+02    1.406698e+00    1.103159e+08    1.855521e-08    3.909469e-11    1.675588e-08    1.759471e-09    7.800000e-01    5.678271e-01    1.870378e-01
    8.738908e+00    1.935158e+02    1.538226e+00    1.148539e+08    1.862738e-08    4.167331e-11    1.685472e-08    1.767260e-09    7.900000e-01    5.678271e-01    1.946878e-01
    8.362525e+00    1.872777e+02    1.675506e+00    1.192772e+08    1.869590e-08    4.442060e-11    1.694881e-08    1.774668e-09    8.000000e-01    5.678271e-01    2.023371e-01
    8.011986e+00    1.810741e+02    1.818418e+00    1.235942e+08    1.876100e-08    4.734833e-11    1.703840e-08    1.781725e-09    8.100000e-01    5.678271e-01    2.099802e-01
    7.685532e+00    1.749315e+02    1.966854e+00    1.278144e+08    1.882290e-08    5.046920e-11    1.712377e-08    1.788458e-09    8.200000e-01    5.678271e-01    2.176128e-01
    7.381444e+00    1.688701e+02    2.120712e+00    1.319470e+08    1.888182e-08    5.379680e-11    1.720515e-08    1.794894e-09    8.300000e-01    5.678271e-01    2.252318e-01
    7.098046e+00    1.629048e+02    2.279904e+00    1.360013e+08    1.893793e-08    5.734595e-11    1.728280e-08    1.801057e-09    8.400000e-01    5.678271e-01    2.328349e-01
    6.833754e+00    1.570463e+02    2.444344e+00    1.399858e+08    1.899144e-08    6.113245e-11    1.735693e-08    1.806973e-09    8.500000e-01    5.678271e-01    2.404206e-01
    6.587063e+00    1.513017e+02    2.613961e+00    1.439085e+08    1.904253e-08    6.517335e-11    1.742776e-08    1.812664e-09    8.600000e-01    5.678271e-01    2.479881e-01
    6.356563e+00    1.456752e+02    2.788690e+00    1.477767e+08    1.909135e-08    6.948710e-11    1.749548e-08    1.818151e-09    8.700000e-01    5.678271e-01    2.555370e-01
    6.140949e+00    1.401695e+02    2.968473e+00    1.515968e+08    1.913809e-08    7.409360e-11    1.756028e-08    1.823456e-09    8.800000e-01    5.678271e-01    2.630672e-01
    5.939002e+00    1.347850e+02    3.153259e+00    1.553743e+08    1.918289e-08    7.901415e-11    1.762233e-08    1.828596e-09    8.900000e-01    5.678271e-01    2.705791e-01
    5.749606e+00    1.295214e+02    3.343003e+00    1.591139e+08    1.922590e-08    8.427195e-11    1.768180e-08    1.833592e-09    9.000000e-01    5.678271e-01    2.780733e-01
    5.571731e+00    1.243776e+02    3.537666e+00    1.628196e+08    1.926728e-08    8.989175e-11    1.773884e-08    1.838462e-09    9.100000e-01    5.678271e-01    2.855503e-01
    5.404434e+00    1.193519e+02    3.737210e+00    1.664946e+08    1.930714e-08    9.590040e-11    1.779360e-08    1.843222e-09    9.200000e-01    5.678271e-01    2.930110e-01
    5.246852e+00    1.144424e+02    3.941606e+00    1.701412e+08    1.934562e-08    1.023269e-10    1.784620e-08    1.847889e-09    9.300000e-01    5.678271e-01    3.004564e-01
    5.098199e+00    1.096472e+02    4.150821e+00    1.737615e+08    1.938284e-08    1.092023e-10    1.789676e-08    1.852478e-09    9.400000e-01    5.678271e-01    3.078873e-01
    4.957753e+00    1.049643e+02    4.364831e+00    1.773565e+08    1.941892e-08    1.165602e-10    1.794541e-08    1.857004e-09    9.500000e-01    5.678271e-01    3.153047e-01
    4.824858e+00    1.003920e+02    4.583608e+00    1.809270e+08    1.945399e-08    1.244367e-10    1.799224e-08    1.861484e-09    9.600000e-01    5.678271e-01    3.227096e-01
    4.698922e+00    9.592871e+01    4.807128e+00    1.844733e+08    1.948814e-08    1.328709e-10    1.803736e-08    1.865930e-09    9.700000e-01    5.678271e-01    3.301028e-01
    4.579396e+00    9.157324e+01    5.035365e+00    1.879951e+08    1.952148e-08    1.419045e-10    1.808085e-08    1.870357e-09    9.800000e-01    5.678271e-01    3.374854e-01
    4.465781e+00    8.732456e+01    5.268300e+00    1.914916e+08    1.955413e-08    1.515828e-10    1.812279e-08    1.874778e-09    9.900000e-01    5.678271e-01    3.448581e-01
    4.357634e+00    8.318207e+01    5.505900e+00    1.949619e+08    1.958617e-08    1.619540e-10    1.816325e-08    1.879207e-09    1.000000e+00    5.678271e-01    3.522219e-01
    4.254533e+00    7.914535e+01    5.748145e+00    1.984046e+08    1.961770e-08    1.730703e-10    1.820231e-08    1.883658e-09    1.010000e+00    5.678271e-01    3.595775e-01
    4.156107e+00    7.521433e+01    5.995005e+00    2.018179e+08    1.964883e-08    1.849875e-10    1.824002e-08    1.888143e-09    1.020000e+00    5.678271e-01    3.669256e-01
    4.062009e+00    7.138921e+01    6.246450e+00    2.051999e+08    1.967964e-08    1.977656e-10    1.827644e-08    1.892674e-09    1.030000e+00    5.678271e-01    3.742670e-01
    3.971921e+00    6.767042e+01    6.502455e+00    2.085481e+08    1.971024e-08    2.114684e-10    1.831161e-08    1.897266e-09    1.040000e+00    5.678271e-01    3.816024e-01
    3.885554e+00    6.405863e+01    6.762985e+00    2.118601e+08    1.974070e-08    2.261646e-10    1.834558e-08    1.901931e-09    1.050000e+00    5.678271e-01    3.889323e-01
    3.802646e+00    6.055466e+01    7.028000e+00    2.151327e+08    1.977112e-08    2.419273e-10    1.837838e-08    1.906682e-09    1.060000e+00    5.678271e-01    3.962573e-01
    3.722946e+00    5.715949e+01    7.297470e+00    2.183629e+08    1.980160e-08    2.588344e-10    1.841003e-08    1.911531e-09    1.070000e+00    5.678271e-01    4.035780e-01
    3.646230e+00    5.387423e+01    7.571350e+00    2.215471e+08    1.983222e-08    2.769688e-10    1.844057e-08    1.916493e-09    1.080000e+00    5.678271e-01    4.108948e-01
    3.572288e+00    5.069997e+01    7.849595e+00    2.246815e+08    1.986307e-08    2.964184e-10    1.847001e-08    1.921579e-09    1.090000e+00    5.678271e-01    4.182082e-01
    3.500927e+00    4.763795e+01    8.132155e+00    2.277620e+08    1.989425e-08    3.172764e-10    1.849837e-08    1.926803e-09    1.100000e+00    5.678271e-01    4.255187e-01
    3.431967e+00    4.468934e+01    8.418975e+00    2.307840e+08    1.992585e-08    3.396407e-10    1.852564e-08    1.932178e-09    1.110000e+00    5.678271e-01    4.328266e-01
    3.365235e+00    4.185520e+01    8.710005e+00    2.337427e+08    1.995795e-08    3.636148e-10    1.855184e-08    1.937717e-09    1.120000e+00    5.678271e-01    4.401322e-01
    3.300575e+00    3.913655e+01    9.005180e+00    2.366330e+08    1.999065e-08    3.893070e-10    1.857697e-08    1.943433e-09    1.130000e+00    5.678271e-01    4.474360e-01
    3.237839e+00    3.653420e+01    9.304430e+00    2.394493e+08    2.002404e-08    4.168303e-10    1.860102e-08    1.949340e-09    1.140000e+00    5.678271e-01    4.547382e-01
    3.176888e+00    3.404886e+01    9.607680e+00    2.421855e+08    2.005822e-08    4.463021e-10    1.862396e-08    1.955450e-09    1.150000e+00    5.678271e-01    4.620392e-01
    3.117589e+00    3.168088e+01    9.914850e+00    2.448356e+08    2.009327e-08    4.778440e-10    1.864579e-08    1.961776e-09    1.160000e+00    5.678271e-01    4.693391e-01
    3.059817e+00    2.943042e+01    1.022586e+01    2.473927e+08    2.012929e-08    5.115810e-10    1.866648e-08    1.968332e-09    1.170000e+00    5.678271e-01    4.766383e-01
    3.003453e+00    2.729728e+01    1.054061e+01    2.498497e+08    2.016637e-08    5.476405e-10    1.868603e-08    1.975129e-09    1.180000e+00    5.678271e-01    4.839369e-01
    2.948389e+00    2.528090e+01    1.085899e+01    2.521993e+08    2.020460e-08    5.861525e-10    1.870438e-08    1.982179e-09    1.190000e+00    5.678271e-01    4.912352e-01
    2.894516e+00    2.338035e+01    1.118089e+01    2.544339e+08    2.024407e-08    6.272475e-10    1.872152e-08    1.989495e-09    1.200000e+00    5.678271e-01    4.985335e-01
    2.841738e+00    2.159426e+01    1.150621e+01    2.565456e+08    2.028485e-08    6.710545e-10    1.873740e-08    1.997087e-09    1.210000e+00    5.678271e-01    5.058318e-01
    2.789959e+00    1.992083e+01    1.183480e+01    2.585264e+08    2.032704e-08    7.177020e-10    1.875198e-08    2.004965e-09    1.220000e+00    5.678271e-01    5.131303e-01
    2.739098e+00    1.835780e+01    1.216654e+01    2.603684e+08    2.037071e-08    7.673150e-10    1.876524e-08    2.013140e-09    1.230000e+00    5.678271e-01    5.204293e-01
    2.689073e+00    1.690246e+01    1.250126e+01    2.620638e+08    2.041594e-08    8.200135e-10    1.877713e-08    2.021617e-09    1.240000e+00    5.678271e-01    5.277289e-01
    2.639816e+00    1.555166e+01    1.283882e+01    2.636053e+08    2.046279e-08    8.759090e-10    1.878759e-08    2.030406e-09    1.250000e+00    5.678271e-01    5.350293e-01
    2.591266e+00    1.430179e+01    1.317905e+01    2.649859e+08    2.051131e-08    9.351060e-10    1.879661e-08    2.039513e-09    1.260000e+00    5.678271e-01    5.423306e-01
    2.543371e+00    1.314886e+01    1.352177e+01    2.661996e+08    2.056155e-08    9.976970e-10    1.880413e-08    2.048941e-09    1.270000e+00    5.678271e-01    5.496329e-01
    2.496090e+00    1.208852e+01    1.386680e+01    2.672413e+08    2.061356e-08    1.063762e-09    1.881012e-08    2.058693e-09    1.280000e+00    5.678271e-01    5.569363e-01
    2.449393e+00    1.111608e+01    1.421396e+01    2.681072e+08    2.066736e-08    1.133364e-09    1.881454e-08    2.068771e-09    1.290000e+00    5.678271e-01    5.642411e-01
    2.403261e+00    1.022666e+01    1.456305e+01    2.687950e+08    2.072298e-08    1.206553e-09    1.881734e-08    2.079174e-09    1.300000e+00    5.678271e-01    5.715473e-01
    2.357687e+00    9.415131e+00    1.491387e+01    2.693039e+08    2.078040e-08    1.283355e-09    1.881852e-08    2.089899e-09    1.310000e+00    5.678271e-01    5.788550e-01
    2.312671e+00    8.676312e+00    1.526623e+01    2.696346e+08    2.083963e-08    1.363777e-09    1.881805e-08    2.100943e-09    1.320000e+00    5.678271e-01    5.861644e-01
    2.268228e+00    8.004959e+00    1.561992e+01    2.697901e+08    2.090064e-08    1.447806e-09    1.881590e-08    2.112299e-09    1.330000e+00    5.678271e-01    5.934756e-01
    2.224375e+00    7.395874e+00    1.597475e+01    2.697745e+08    2.096338e-08    1.535405e-09    1.881208e-08    2.123960e-09    1.340000e+00    5.678271e-01    6.007887e-01
    2.181140e+00    6.843965e+00    1.633053e+01    2.695939e+08    2.102781e-08    1.626511e-09    1.880657e-08    2.135915e-09    1.350000e+00    5.678271e-01    6.081038e-01
    2.138555e+00    6.344308e+00    1.668707e+01    2.692556e+08    2.109386e-08    1.721041e-09    1.879938e-08    2.148155e-09    1.360000e+00    5.678271e-01    6.154210e-01
    2.096654e+00    5.892189e+00    1.704420e+01    2.687683e+08    2.116144e-08    1.818885e-09    1.879053e-08    2.160665e-09    1.370000e+00    5.678271e-01    6.227404e-01
