# sky130 nfet_01v8 gm/ID Processed Lookup Table
# Corner: ss
# Temperature: 25C
# W = 2.0 um
# L = 1 um (1000 nm)
# Columns: gm/id [1/V]  gm/gds [V/V]  id/W [A/m]  ft [Hz]  Cgg/W [F/m]  Cgd/W [F/m]  Cgs/W [F/m]  Cdb/W [F/m]  vgs [V]  vth [V]  vdsat [V]
# vdsat = BSIM4 saturation voltage (|VDS|_sat, positive); use for headroom / saturation / cascode-bias calculations
#           gm/id          gm/gds            id/W              ft           Cgg/W           Cgd/W           Cgs/W           Cdb/W             vgs             vth           vdsat
    2.751587e+01    1.503787e+02    5.963400e-05    1.230326e+05    2.122644e-09    1.819224e-13    5.607995e-10    7.896270e-11    2.800000e-01    6.239814e-01    4.187521e-02
    2.750854e+01    1.501584e+02    7.852050e-05    1.595566e+05    2.154547e-09    1.975884e-13    6.119590e-10    8.487235e-11    2.900000e-01    6.239814e-01    4.187772e-02
    2.748719e+01    1.499086e+02    1.033736e-04    2.065296e+05    2.189665e-09    2.146456e-13    6.669580e-10    9.113520e-11    3.000000e-01    6.239814e-01    4.188102e-02
    2.745311e+01    1.496260e+02    1.360553e-04    2.668058e+05    2.228086e-09    2.332103e-13    7.259015e-10    9.775470e-11    3.100000e-01    6.239814e-01    4.188536e-02
    2.740706e+01    1.493071e+02    1.789975e-04    3.439754e+05    2.269877e-09    2.534068e-13    7.888680e-10    1.047315e-10    3.200000e-01    6.239814e-01    4.189106e-02
    2.734934e+01    1.489481e+02    2.353712e-04    4.425413e+05    2.315082e-09    2.753675e-13    8.559080e-10    1.120635e-10    3.300000e-01    6.239814e-01    4.189854e-02
    2.727993e+01    1.485454e+02    3.093025e-04    5.681337e+05    2.363721e-09    2.992331e-13    9.270385e-10    1.197450e-10    3.400000e-01    6.239814e-01    4.190834e-02
    2.719855e+01    1.480953e+02    4.061499e-04    7.277698e+05    2.415785e-09    3.251530e-13    1.002240e-09    1.277673e-10    3.500000e-01    6.239814e-01    4.192118e-02
    2.710477e+01    1.475946e+02    5.328550e-04    9.301663e+05    2.471236e-09    3.532853e-13    1.081457e-09    1.361179e-10    3.600000e-01    6.239814e-01    4.193796e-02
    2.699797e+01    1.470404e+02    6.983875e-04    1.186114e+06    2.530004e-09    3.837978e-13    1.164592e-09    1.447810e-10    3.700000e-01    6.239814e-01    4.195987e-02
    2.687752e+01    1.464304e+02    9.143040e-04    1.508923e+06    2.591987e-09    4.168672e-13    1.251510e-09    1.537369e-10    3.800000e-01    6.239814e-01    4.198841e-02
    2.674275e+01    1.457639e+02    1.195448e-03    1.914949e+06    2.657051e-09    4.526805e-13    1.342032e-09    1.629631e-10    3.900000e-01    6.239814e-01    4.202552e-02
    2.659308e+01    1.450413e+02    1.560823e-03    2.424216e+06    2.725029e-09    4.914344e-13    1.435941e-09    1.724333e-10    4.000000e-01    6.239814e-01    4.207365e-02
    2.642802e+01    1.442654e+02    2.034666e-03    3.061143e+06    2.795725e-09    5.333360e-13    1.532982e-09    1.821185e-10    4.100000e-01    6.239814e-01    4.213592e-02
    2.624733e+01    1.434415e+02    2.647780e-03    3.855405e+06    2.868911e-09    5.786040e-13    1.632865e-09    1.919872e-10    4.200000e-01    6.239814e-01    4.221623e-02
    2.605102e+01    1.425782e+02    3.439157e-03    4.842943e+06    2.944337e-09    6.274670e-13    1.735266e-09    2.020053e-10    4.300000e-01    6.239814e-01    4.231947e-02
    2.583949e+01    1.416878e+02    4.457960e-03    6.067152e+06    3.021728e-09    6.801670e-13    1.839837e-09    2.121376e-10    4.400000e-01    6.239814e-01    4.245168e-02
    2.561350e+01    1.407873e+02    5.765940e-03    7.580312e+06    3.100788e-09    7.369570e-13    1.946204e-09    2.223470e-10    4.500000e-01    6.239814e-01    4.262029e-02
    2.537432e+01    1.398981e+02    7.440345e-03    9.445290e+06    3.181210e-09    7.981030e-13    2.053980e-09    2.325961e-10    4.600000e-01    6.239814e-01    4.283432e-02
    2.512358e+01    1.390463e+02    9.577490e-03    1.173761e+07    3.262675e-09    8.638850e-13    2.162762e-09    2.428472e-10    4.700000e-01    6.239814e-01    4.310462e-02
    2.486330e+01    1.382626e+02    1.229702e-02    1.454793e+07    3.344857e-09    9.345970e-13    2.272146e-09    2.530632e-10    4.800000e-01    6.239814e-01    4.344409e-02
    2.459574e+01    1.375808e+02    1.574711e-02    1.798507e+07    3.427432e-09    1.010548e-12    2.381726e-09    2.632078e-10    4.900000e-01    6.239814e-01    4.386781e-02
    2.432308e+01    1.370366e+02    2.011076e-02    2.217943e+07    3.510078e-09    1.092064e-12    2.491104e-09    2.732461e-10    5.000000e-01    6.239814e-01    4.439318e-02
    2.404722e+01    1.366647e+02    2.561322e-02    2.728692e+07    3.592481e-09    1.179485e-12    2.599893e-09    2.831450e-10    5.100000e-01    6.239814e-01    4.503995e-02
    2.376932e+01    1.364960e+02    3.253097e-02    3.349303e+07    3.674341e-09    1.273175e-12    2.707724e-09    2.928740e-10    5.200000e-01    6.239814e-01    4.583005e-02
    2.348945e+01    1.365534e+02    4.120207e-02    4.101653e+07    3.755374e-09    1.373510e-12    2.814249e-09    3.024049e-10    5.300000e-01    6.239814e-01    4.678740e-02
    2.320631e+01    1.368480e+02    5.203785e-02    5.011237e+07    3.835312e-09    1.480894e-12    2.919146e-09    3.117122e-10    5.400000e-01    6.239814e-01    4.793741e-02
    2.291698e+01    1.373751e+02    6.553565e-02    6.107227e+07    3.913912e-09    1.595750e-12    3.022117e-09    3.207740e-10    5.500000e-01    6.239814e-01    4.930643e-02
    2.261695e+01    1.381111e+02    8.229210e-02    7.422256e+07    3.990951e-09    1.718523e-12    3.122901e-09    3.295709e-10    5.600000e-01    6.239814e-01    5.092093e-02
    2.230050e+01    1.390118e+02    1.030154e-01    8.991751e+07    4.066237e-09    1.849688e-12    3.221263e-09    3.380870e-10    5.700000e-01    6.239814e-01    5.280660e-02
    2.196112e+01    1.400130e+02    1.285360e-01    1.085279e+08    4.139595e-09    1.989747e-12    3.317002e-09    3.463094e-10    5.800000e-01    6.239814e-01    5.498731e-02
    2.159233e+01    1.410327e+02    1.598128e-01    1.304242e+08    4.210882e-09    2.139230e-12    3.409951e-09    3.542284e-10    5.900000e-01    6.239814e-01    5.748415e-02
    2.118846e+01    1.419763e+02    1.979348e-01    1.559554e+08    4.279978e-09    2.298700e-12    3.499974e-09    3.618371e-10    6.000000e-01    6.239814e-01    6.031439e-02
    2.074535e+01    1.427429e+02    2.441154e-01    1.854247e+08    4.346788e-09    2.468758e-12    3.586964e-09    3.691314e-10    6.100000e-01    6.239814e-01    6.349069e-02
    2.026093e+01    1.432331e+02    2.996776e-01    2.190650e+08    4.411240e-09    2.650038e-12    3.670846e-09    3.761099e-10    6.200000e-01    6.239814e-01    6.702048e-02
    1.973547e+01    1.433570e+02    3.660326e-01    2.570163e+08    4.473285e-09    2.843220e-12    3.751571e-09    3.827733e-10    6.300000e-01    6.239814e-01    7.090556e-02
    1.917153e+01    1.430408e+02    4.446502e-01    2.993090e+08    4.532895e-09    3.049022e-12    3.829115e-09    3.891245e-10    6.400000e-01    6.239814e-01    7.514203e-02
    1.857373e+01    1.422319e+02    5.370225e-01    3.458544e+08    4.590060e-09    3.268213e-12    3.903478e-09    3.951684e-10    6.500000e-01    6.239814e-01    7.972053e-02
    1.794820e+01    1.409016e+02    6.446260e-01    3.964451e+08    4.644787e-09    3.501614e-12    3.974681e-09    4.009112e-10    6.600000e-01    6.239814e-01    8.462666e-02
    1.730211e+01    1.390456e+02    7.688805e-01    4.507633e+08    4.697097e-09    3.750098e-12    4.042762e-09    4.063608e-10    6.700000e-01    6.239814e-01    8.984171e-02
    1.664304e+01    1.366826e+02    9.111150e-01    5.083983e+08    4.747028e-09    4.014599e-12    4.107775e-09    4.115259e-10    6.800000e-01    6.239814e-01    9.534344e-02
    1.597852e+01    1.338500e+02    1.072533e+00    5.688695e+08    4.794626e-09    4.296117e-12    4.169788e-09    4.164165e-10    6.900000e-01    6.239814e-01    1.011070e-01
    1.531566e+01    1.306002e+02    1.254190e+00    6.316530e+08    4.839947e-09    4.595718e-12    4.228881e-09    4.210431e-10    7.000000e-01    6.239814e-01    1.071060e-01
    1.466080e+01    1.269955e+02    1.456976e+00    6.962074e+08    4.883056e-09    4.914545e-12    4.285141e-09    4.254166e-10    7.100000e-01    6.239814e-01    1.133130e-01
    1.401942e+01    1.231032e+02    1.681609e+00    7.620001e+08    4.924023e-09    5.253820e-12    4.338662e-09    4.295486e-10    7.200000e-01    6.239814e-01    1.197007e-01
    1.339598e+01    1.189917e+02    1.928633e+00    8.285265e+08    4.962927e-09    5.614860e-12    4.389548e-09    4.334507e-10    7.300000e-01    6.239814e-01    1.262426e-01
    1.279400e+01    1.147270e+02    2.198427e+00    8.953276e+08    4.999845e-09    5.999060e-12    4.437902e-09    4.371346e-10    7.400000e-01    6.239814e-01    1.329132e-01
    1.221604e+01    1.103700e+02    2.491217e+00    9.619994e+08    5.034860e-09    6.407935e-12    4.483831e-09    4.406120e-10    7.500000e-01    6.239814e-01    1.396887e-01
    1.166386e+01    1.059754e+02    2.807091e+00    1.028200e+09    5.068055e-09    6.843095e-12    4.527444e-09    4.438945e-10    7.600000e-01    6.239814e-01    1.465472e-01
    1.113848e+01    1.015902e+02    3.146019e+00    1.093649e+09    5.099520e-09    7.306275e-12    4.568849e-09    4.469936e-10    7.700000e-01    6.239814e-01    1.534688e-01
    1.064030e+01    9.725412e+01    3.507871e+00    1.158130e+09    5.129330e-09    7.799345e-12    4.608153e-09    4.499205e-10    7.800000e-01    6.239814e-01    1.604356e-01
    1.016926e+01    9.299913e+01    3.892434e+00    1.221477e+09    5.157575e-09    8.324305e-12    4.645464e-09    4.526858e-10    7.900000e-01    6.239814e-01    1.674320e-01
    9.724880e+00    8.885038e+01    4.299434e+00    1.283578e+09    5.184340e-09    8.883300e-12    4.680885e-09    4.553002e-10    8.000000e-01    6.239814e-01    1.744443e-01
    9.306378e+00    8.482686e+01    4.728550e+00    1.344361e+09    5.209700e-09    9.478645e-12    4.714517e-09    4.577737e-10    8.100000e-01    6.239814e-01    1.814606e-01
    8.912770e+00    8.094197e+01    5.179425e+00    1.403792e+09    5.233735e-09    1.011284e-11    4.746458e-09    4.601161e-10    8.200000e-01    6.239814e-01    1.884708e-01
    8.542923e+00    7.720466e+01    5.651680e+00    1.461860e+09    5.256520e-09    1.078855e-11    4.776804e-09    4.623368e-10    8.300000e-01    6.239814e-01    1.954664e-01
    8.195594e+00    7.361996e+01    6.144930e+00    1.518578e+09    5.278135e-09    1.150865e-11    4.805645e-09    4.644445e-10    8.400000e-01    6.239814e-01    2.024403e-01
    7.869518e+00    7.018998e+01    6.658775e+00    1.573975e+09    5.298645e-09    1.227627e-11    4.833067e-09    4.664477e-10    8.500000e-01    6.239814e-01    2.093865e-01
    7.563391e+00    6.691412e+01    7.192825e+00    1.628087e+09    5.318125e-09    1.309473e-11    4.859155e-09    4.683546e-10    8.600000e-01    6.239814e-01    2.163003e-01
    7.275940e+00    6.379013e+01    7.746690e+00    1.680962e+09    5.336635e-09    1.396763e-11    4.883986e-09    4.701729e-10    8.700000e-01    6.239814e-01    2.231778e-01
    7.005916e+00    6.081425e+01    8.319990e+00    1.732648e+09    5.354235e-09    1.489887e-11    4.907636e-09    4.719097e-10    8.800000e-01    6.239814e-01    2.300160e-01
    6.752119e+00    5.798163e+01    8.912350e+00    1.783190e+09    5.370995e-09    1.589264e-11    4.930177e-09    4.735722e-10    8.900000e-01    6.239814e-01    2.368125e-01
    6.513409e+00    5.528694e+01    9.523415e+00    1.832640e+09    5.386965e-09    1.695342e-11    4.951675e-09    4.751667e-10    9.000000e-01    6.239814e-01    2.435654e-01
    6.288707e+00    5.272427e+01    1.015283e+01    1.881040e+09    5.402200e-09    1.808610e-11    4.972193e-09    4.766996e-10    9.100000e-01    6.239814e-01    2.502735e-01
    6.076987e+00    5.028744e+01    1.080027e+01    1.928432e+09    5.416750e-09    1.929592e-11    4.991792e-09    4.781767e-10    9.200000e-01    6.239814e-01    2.569360e-01
    5.877314e+00    4.797033e+01    1.146539e+01    1.974852e+09    5.430670e-09    2.058855e-11    5.010525e-09    4.796039e-10    9.300000e-01    6.239814e-01    2.635521e-01
    5.688795e+00    4.576677e+01    1.214788e+01    2.020329e+09    5.444010e-09    2.197010e-11    5.028445e-09    4.809862e-10    9.400000e-01    6.239814e-01    2.701216e-01
    5.510614e+00    4.367075e+01    1.284743e+01    2.064894e+09    5.456805e-09    2.344715e-11    5.045605e-09    4.823289e-10    9.500000e-01    6.239814e-01    2.766444e-01
    5.342010e+00    4.167644e+01    1.356373e+01    2.108569e+09    5.469100e-09    2.502682e-11    5.062045e-09    4.836369e-10    9.600000e-01    6.239814e-01    2.831207e-01
    5.182288e+00    3.977828e+01    1.429647e+01    2.151370e+09    5.480945e-09    2.671679e-11    5.077815e-09    4.849146e-10    9.700000e-01    6.239814e-01    2.895506e-01
    5.030795e+00    3.797093e+01    1.504540e+01    2.193315e+09    5.492365e-09    2.852534e-11    5.092945e-09    4.861669e-10    9.800000e-01    6.239814e-01    2.959346e-01
    4.886940e+00    3.624934e+01    1.581019e+01    2.234407e+09    5.503410e-09    3.046139e-11    5.107475e-09    4.873977e-10    9.900000e-01    6.239814e-01    3.022731e-01
    4.750177e+00    3.460876e+01    1.659057e+01    2.274657e+09    5.514110e-09    3.253459e-11    5.121445e-09    4.886112e-10    1.000000e+00    6.239814e-01    3.085666e-01
    4.620000e+00    3.304468e+01    1.738626e+01    2.314065e+09    5.524495e-09    3.475531e-11    5.134880e-09    4.898116e-10    1.010000e+00    6.239814e-01    3.148158e-01
    4.495950e+00    3.155294e+01    1.819697e+01    2.352632e+09    5.534605e-09    3.713475e-11    5.147810e-09    4.910027e-10    1.020000e+00    6.239814e-01    3.210212e-01
    4.377601e+00    3.012956e+01    1.902242e+01    2.390353e+09    5.544470e-09    3.968497e-11    5.160260e-09    4.921881e-10    1.030000e+00    6.239814e-01    3.271835e-01
    4.264565e+00    2.877089e+01    1.986232e+01    2.427222e+09    5.554120e-09    4.241895e-11    5.172260e-09    4.933718e-10    1.040000e+00    6.239814e-01    3.333033e-01
    4.156479e+00    2.747346e+01    2.071641e+01    2.463230e+09    5.563590e-09    4.535067e-11    5.183825e-09    4.945573e-10    1.050000e+00    6.239814e-01    3.393815e-01
    4.053015e+00    2.623406e+01    2.158438e+01    2.498369e+09    5.572900e-09    4.849515e-11    5.194980e-09    4.957482e-10    1.060000e+00    6.239814e-01    3.454186e-01
    3.953871e+00    2.504969e+01    2.246595e+01    2.532627e+09    5.582080e-09    5.186850e-11    5.205740e-09    4.969481e-10    1.070000e+00    6.239814e-01    3.514154e-01
    3.858766e+00    2.391756e+01    2.336083e+01    2.565987e+09    5.591165e-09    5.548810e-11    5.216120e-09    4.981604e-10    1.080000e+00    6.239814e-01    3.573726e-01
    3.767441e+00    2.283504e+01    2.426872e+01    2.598434e+09    5.600180e-09    5.937245e-11    5.226140e-09    4.993888e-10    1.090000e+00    6.239814e-01    3.632910e-01
    3.679661e+00    2.179970e+01    2.518934e+01    2.629952e+09    5.609150e-09    6.354145e-11    5.235810e-09    5.006365e-10    1.100000e+00    6.239814e-01    3.691712e-01
    3.595203e+00    2.080924e+01    2.612239e+01    2.660521e+09    5.618105e-09    6.801625e-11    5.245135e-09    5.019075e-10    1.110000e+00    6.239814e-01    3.750139e-01
    3.513870e+00    1.986156e+01    2.706755e+01    2.690127e+09    5.627065e-09    7.281960e-11    5.254130e-09    5.032050e-10    1.120000e+00    6.239814e-01    3.808198e-01
    3.435468e+00    1.895464e+01    2.802452e+01    2.718744e+09    5.636065e-09    7.797560e-11    5.262800e-09    5.045320e-10    1.130000e+00    6.239814e-01    3.865897e-01
    3.359828e+00    1.808663e+01    2.899299e+01    2.746352e+09    5.645130e-09    8.350980e-11    5.271150e-09    5.058935e-10    1.140000e+00    6.239814e-01    3.923243e-01
    3.286785e+00    1.725577e+01    2.997265e+01    2.772930e+09    5.654285e-09    8.944935e-11    5.279190e-09    5.072915e-10    1.150000e+00    6.239814e-01    3.980242e-01
    3.216192e+00    1.646043e+01    3.096316e+01    2.798454e+09    5.663555e-09    9.582295e-11    5.286910e-09    5.087305e-10    1.160000e+00    6.239814e-01    4.036901e-01
    3.147909e+00    1.569906e+01    3.196421e+01    2.822899e+09    5.672975e-09    1.026608e-10    5.294325e-09    5.102140e-10    1.170000e+00    6.239814e-01    4.093227e-01
    3.081806e+00    1.497021e+01    3.297546e+01    2.846242e+09    5.682565e-09    1.099946e-10    5.301425e-09    5.117455e-10    1.180000e+00    6.239814e-01    4.149227e-01
    3.017762e+00    1.427252e+01    3.399657e+01    2.868456e+09    5.692355e-09    1.178574e-10    5.308215e-09    5.133290e-10    1.190000e+00    6.239814e-01    4.204907e-01
    2.955666e+00    1.360472e+01    3.502721e+01    2.889520e+09    5.702370e-09    1.262838e-10    5.314680e-09    5.149670e-10    1.200000e+00    6.239814e-01    4.260275e-01
    2.895412e+00    1.296559e+01    3.606703e+01    2.909401e+09    5.712645e-09    1.353094e-10    5.320830e-09    5.166645e-10    1.210000e+00    6.239814e-01    4.315336e-01
    2.836903e+00    1.235400e+01    3.711567e+01    2.928080e+09    5.723200e-09    1.449710e-10    5.326650e-09    5.184245e-10    1.220000e+00    6.239814e-01    4.370097e-01
    2.780045e+00    1.176885e+01    3.817278e+01    2.945531e+09    5.734060e-09    1.553062e-10    5.332135e-09    5.202500e-10    1.230000e+00    6.239814e-01    4.424566e-01
    2.724752e+00    1.120912e+01    3.923799e+01    2.961721e+09    5.745260e-09    1.663531e-10    5.337280e-09    5.221445e-10    1.240000e+00    6.239814e-01    4.478748e-01
    2.670947e+00    1.067386e+01    4.031093e+01    2.976632e+09    5.756825e-09    1.781502e-10    5.342070e-09    5.241120e-10    1.250000e+00    6.239814e-01    4.532649e-01
    2.618550e+00    1.016213e+01    4.139123e+01    2.990240e+09    5.768770e-09    1.907359e-10    5.346500e-09    5.261545e-10    1.260000e+00    6.239814e-01    4.586277e-01
    2.567493e+00    9.673071e+00    4.247850e+01    3.002517e+09    5.781135e-09    2.041481e-10    5.350555e-09    5.282760e-10    1.270000e+00    6.239814e-01    4.639637e-01
    2.517708e+00    9.205840e+00    4.357237e+01    3.013446e+09    5.793930e-09    2.184235e-10    5.354225e-09    5.304780e-10    1.280000e+00    6.239814e-01    4.692736e-01
    2.469134e+00    8.759642e+00    4.467242e+01    3.023003e+09    5.807185e-09    2.335978e-10    5.357500e-09    5.327635e-10    1.290000e+00    6.239814e-01    4.745580e-01
    2.421713e+00    8.333714e+00    4.577828e+01    3.031175e+09    5.820915e-09    2.497041e-10    5.360365e-09    5.351345e-10    1.300000e+00    6.239814e-01    4.798176e-01
    2.375390e+00    7.927328e+00    4.688952e+01    3.037943e+09    5.835140e-09    2.667732e-10    5.362810e-09    5.375920e-10    1.310000e+00    6.239814e-01    4.850528e-01
    2.330113e+00    7.539777e+00    4.800576e+01    3.043294e+09    5.849875e-09    2.848326e-10    5.364825e-09    5.401385e-10    1.320000e+00    6.239814e-01    4.902645e-01
    2.285837e+00    7.170392e+00    4.912656e+01    3.047222e+09    5.865130e-09    3.039058e-10    5.366390e-09    5.427735e-10    1.330000e+00    6.239814e-01    4.954531e-01
    2.242516e+00    6.818517e+00    5.025150e+01    3.049722e+09    5.880910e-09    3.240119e-10    5.367505e-09    5.454985e-10    1.340000e+00    6.239814e-01    5.006193e-01
    2.200110e+00    6.483525e+00    5.138020e+01    3.050792e+09    5.897225e-09    3.451648e-10    5.368155e-09    5.483125e-10    1.350000e+00    6.239814e-01    5.057637e-01
    2.158580e+00    6.164800e+00    5.251220e+01    3.050435e+09    5.914075e-09    3.673726e-10    5.368330e-09    5.512155e-10    1.360000e+00    6.239814e-01    5.108869e-01
