# sky130 nfet_01v8 gm/ID Processed Lookup Table
# Corner: ss
# Temperature: 25C
# W = 2.0 um
# L = 0.5 um (500 nm)
# Columns: gm/id [1/V]  gm/gds [V/V]  id/W [A/m]  ft [Hz]  Cgg/W [F/m]  Cgd/W [F/m]  Cgs/W [F/m]  Cdb/W [F/m]  vgs [V]  vth [V]  vdsat [V]
# vdsat = BSIM4 saturation voltage (|VDS|_sat, positive); use for headroom / saturation / cascode-bias calculations
#           gm/id          gm/gds            id/W              ft           Cgg/W           Cgd/W           Cgs/W           Cdb/W             vgs             vth           vdsat
    2.617579e+01    1.545845e+02    7.512975e-05    2.738643e+05    1.142869e-09    5.124195e-13    2.796443e-10    3.987302e-11    2.900000e-01    6.580055e-01    3.943468e-02
    2.617152e+01    1.545166e+02    9.760820e-05    3.514840e+05    1.156724e-09    5.563865e-13    3.030108e-10    4.263007e-11    3.000000e-01    6.580055e-01    3.943629e-02
    2.615772e+01    1.544362e+02    1.268005e-04    4.504277e+05    1.171969e-09    6.034745e-13    3.280430e-10    4.554326e-11    3.100000e-01    6.580055e-01    3.943838e-02
    2.613525e+01    1.543419e+02    1.646937e-04    5.763290e+05    1.188648e-09    6.537700e-13    3.547962e-10    4.861501e-11    3.200000e-01    6.580055e-01    3.944110e-02
    2.610464e+01    1.542322e+02    2.138539e-04    7.362394e+05    1.206802e-09    7.073390e-13    3.833180e-10    5.184680e-11    3.300000e-01    6.580055e-01    3.944463e-02
    2.606609e+01    1.541051e+02    2.775923e-04    9.389647e+05    1.226462e-09    7.642260e-13    4.136458e-10    5.523910e-11    3.400000e-01    6.580055e-01    3.944920e-02
    2.601964e+01    1.539592e+02    3.601744e-04    1.195476e+06    1.247653e-09    8.244475e-13    4.458066e-10    5.879115e-11    3.500000e-01    6.580055e-01    3.945512e-02
    2.596510e+01    1.537921e+02    4.670887e-04    1.519405e+06    1.270387e-09    8.879915e-13    4.798149e-10    6.250095e-11    3.600000e-01    6.580055e-01    3.946278e-02
    2.590220e+01    1.536023e+02    6.053840e-04    1.927652e+06    1.294670e-09    9.548140e-13    5.156710e-10    6.636525e-11    3.700000e-01    6.580055e-01    3.947268e-02
    2.583053e+01    1.533876e+02    7.840980e-04    2.441111e+06    1.320494e-09    1.024835e-12    5.533620e-10    7.037935e-11    3.800000e-01    6.580055e-01    3.948547e-02
    2.574962e+01    1.531463e+02    1.014796e-03    3.085546e+06    1.347838e-09    1.097939e-12    5.928575e-10    7.453715e-11    3.900000e-01    6.580055e-01    3.950197e-02
    2.565895e+01    1.528767e+02    1.312244e-03    3.892633e+06    1.376671e-09    1.173971e-12    6.341130e-10    7.883115e-11    4.000000e-01    6.580055e-01    3.952323e-02
    2.555802e+01    1.525773e+02    1.695254e-03    4.901217e+06    1.406948e-09    1.252738e-12    6.770655e-10    8.325235e-11    4.100000e-01    6.580055e-01    3.955056e-02
    2.544636e+01    1.522473e+02    2.187728e-03    6.158800e+06    1.438610e-09    1.334004e-12    7.216375e-10    8.779045e-11    4.200000e-01    6.580055e-01    3.958565e-02
    2.532356e+01    1.518862e+02    2.819959e-03    7.723290e+06    1.471585e-09    1.417499e-12    7.677340e-10    9.243390e-11    4.300000e-01    6.580055e-01    3.963061e-02
    2.518941e+01    1.514948e+02    3.630233e-03    9.665135e+06    1.505791e-09    1.502911e-12    8.152450e-10    9.716995e-11    4.400000e-01    6.580055e-01    3.968808e-02
    2.504378e+01    1.510744e+02    4.666793e-03    1.206978e+07    1.541130e-09    1.589894e-12    8.640455e-10    1.019847e-10    4.500000e-01    6.580055e-01    3.976135e-02
    2.488687e+01    1.506282e+02    5.990260e-03    1.504069e+07    1.577497e-09    1.678068e-12    9.139975e-10    1.068635e-10    4.600000e-01    6.580055e-01    3.985452e-02
    2.471912e+01    1.501609e+02    7.676575e-03    1.870289e+07    1.614775e-09    1.767023e-12    9.649520e-10    1.117909e-10    4.700000e-01    6.580055e-01    3.997261e-02
    2.454129e+01    1.496789e+02    9.820615e-03    2.320734e+07    1.652840e-09    1.856325e-12    1.016749e-09    1.167511e-10    4.800000e-01    6.580055e-01    4.012175e-02
    2.435451e+01    1.491910e+02    1.254057e-02    2.873620e+07    1.691561e-09    1.945516e-12    1.069223e-09    1.217277e-10    4.900000e-01    6.580055e-01    4.030939e-02
    2.416021e+01    1.487077e+02    1.598336e-02    3.550927e+07    1.730802e-09    2.034123e-12    1.122200e-09    1.267045e-10    5.000000e-01    6.580055e-01    4.054445e-02
    2.396008e+01    1.482417e+02    2.033115e-02    4.379186e+07    1.770423e-09    2.121661e-12    1.175505e-09    1.316653e-10    5.100000e-01    6.580055e-01    4.083753e-02
    2.375602e+01    1.478068e+02    2.580936e-02    5.390437e+07    1.810285e-09    2.207637e-12    1.228962e-09    1.365942e-10    5.200000e-01    6.580055e-01    4.120106e-02
    2.354980e+01    1.474175e+02    3.269648e-02    6.623364e+07    1.850247e-09    2.291557e-12    1.282396e-09    1.414760e-10    5.300000e-01    6.580055e-01    4.164946e-02
    2.334297e+01    1.470875e+02    4.133589e-02    8.124605e+07    1.890172e-09    2.372929e-12    1.335637e-09    1.462958e-10    5.400000e-01    6.580055e-01    4.219917e-02
    2.313645e+01    1.468278e+02    5.215020e-02    9.950208e+07    1.929926e-09    2.451271e-12    1.388519e-09    1.510403e-10    5.500000e-01    6.580055e-01    4.286865e-02
    2.293022e+01    1.466451e+02    6.565810e-02    1.216709e+08    1.969382e-09    2.526108e-12    1.440884e-09    1.556964e-10    5.600000e-01    6.580055e-01    4.367830e-02
    2.272294e+01    1.465390e+02    8.249425e-02    1.485437e+08    2.008418e-09    2.596982e-12    1.492585e-09    1.602528e-10    5.700000e-01    6.580055e-01    4.465013e-02
    2.251184e+01    1.465007e+02    1.034313e-01    1.810431e+08    2.046920e-09    2.663454e-12    1.543484e-09    1.646990e-10    5.800000e-01    6.580055e-01    4.580742e-02
    2.229258e+01    1.465111e+02    1.294039e-01    2.202248e+08    2.084786e-09    2.725102e-12    1.593456e-09    1.690259e-10    5.900000e-01    6.580055e-01    4.717415e-02
    2.205939e+01    1.465407e+02    1.615335e-01    2.672681e+08    2.121920e-09    2.781526e-12    1.642387e-09    1.732257e-10    6.000000e-01    6.580055e-01    4.877431e-02
    2.180551e+01    1.465497e+02    2.011513e-01    3.234519e+08    2.158239e-09    2.832349e-12    1.690179e-09    1.772920e-10    6.100000e-01    6.580055e-01    5.063106e-02
    2.152377e+01    1.464908e+02    2.498174e-01    3.901127e+08    2.193668e-09    2.877214e-12    1.736743e-09    1.812196e-10    6.200000e-01    6.580055e-01    5.276588e-02
    2.120732e+01    1.463116e+02    3.093326e-01    4.685849e+08    2.228144e-09    2.915790e-12    1.782008e-09    1.850046e-10    6.300000e-01    6.580055e-01    5.519761e-02
    2.085049e+01    1.459587e+02    3.817407e-01    5.601267e+08    2.261615e-09    2.947763e-12    1.825915e-09    1.886443e-10    6.400000e-01    6.580055e-01    5.794164e-02
    2.044933e+01    1.453818e+02    4.693171e-01    6.658329e+08    2.294037e-09    2.972840e-12    1.868416e-09    1.921372e-10    6.500000e-01    6.580055e-01    6.100914e-02
    2.000216e+01    1.445366e+02    5.745425e-01    7.865488e+08    2.325378e-09    2.990748e-12    1.909476e-09    1.954828e-10    6.600000e-01    6.580055e-01    6.440650e-02
    1.950969e+01    1.433888e+02    7.000630e-01    9.227917e+08    2.355614e-09    3.001226e-12    1.949073e-09    1.986815e-10    6.700000e-01    6.580055e-01    6.813496e-02
    1.897497e+01    1.419151e+02    8.486335e-01    1.074687e+09    2.384731e-09    3.004029e-12    1.987194e-09    2.017347e-10    6.800000e-01    6.580055e-01    7.219059e-02
    1.840302e+01    1.401042e+02    1.023052e+00    1.241938e+09    2.412721e-09    2.998922e-12    2.023837e-09    2.046445e-10    6.900000e-01    6.580055e-01    7.656440e-02
    1.780033e+01    1.379569e+02    1.226090e+00    1.423818e+09    2.439585e-09    2.985678e-12    2.059007e-09    2.074137e-10    7.000000e-01    6.580055e-01    8.124279e-02
    1.717433e+01    1.354849e+02    1.460413e+00    1.619201e+09    2.465330e-09    2.964073e-12    2.092721e-09    2.100459e-10    7.100000e-01    6.580055e-01    8.620812e-02
    1.653286e+01    1.327093e+02    1.728519e+00    1.826621e+09    2.489968e-09    2.933887e-12    2.124999e-09    2.125448e-10    7.200000e-01    6.580055e-01    9.143948e-02
    1.588363e+01    1.296586e+02    2.032671e+00    2.044348e+09    2.513519e-09    2.894898e-12    2.155868e-09    2.149146e-10    7.300000e-01    6.580055e-01    9.691352e-02
    1.523390e+01    1.263669e+02    2.374854e+00    2.270483e+09    2.536003e-09    2.846878e-12    2.185361e-09    2.171601e-10    7.400000e-01    6.580055e-01    1.026053e-01
    1.459018e+01    1.228720e+02    2.756740e+00    2.503052e+09    2.557447e-09    2.789594e-12    2.213514e-09    2.192861e-10    7.500000e-01    6.580055e-01    1.084889e-01
    1.395808e+01    1.192132e+02    3.179673e+00    2.740094e+09    2.577880e-09    2.722800e-12    2.240369e-09    2.212976e-10    7.600000e-01    6.580055e-01    1.145387e-01
    1.334224e+01    1.154302e+02    3.644666e+00    2.979743e+09    2.597334e-09    2.646240e-12    2.265968e-09    2.231997e-10    7.700000e-01    6.580055e-01    1.207293e-01
    1.274631e+01    1.115611e+02    4.152413e+00    3.220280e+09    2.615842e-09    2.559639e-12    2.290357e-09    2.249977e-10    7.800000e-01    6.580055e-01    1.270365e-01
    1.217306e+01    1.076424e+02    4.703311e+00    3.460194e+09    2.633438e-09    2.462704e-12    2.313580e-09    2.266967e-10    7.900000e-01    6.580055e-01    1.334378e-01
    1.162440e+01    1.037071e+02    5.297490e+00    3.698186e+09    2.650160e-09    2.355120e-12    2.335689e-09    2.283019e-10    8.000000e-01    6.580055e-01    1.399120e-01
    1.110151e+01    9.978479e+01    5.934845e+00    3.933186e+09    2.666043e-09    2.236547e-12    2.356728e-09    2.298184e-10    8.100000e-01    6.580055e-01    1.464402e-01
    1.060497e+01    9.590128e+01    6.615075e+00    4.164351e+09    2.681124e-09    2.106617e-12    2.376747e-09    2.312512e-10    8.200000e-01    6.580055e-01    1.530053e-01
    1.013485e+01    9.207868e+01    7.337720e+00    4.391057e+09    2.695440e-09    1.964934e-12    2.395793e-09    2.326051e-10    8.300000e-01    6.580055e-01    1.595922e-01
    9.690812e+00    8.833517e+01    8.102195e+00    4.612854e+09    2.709027e-09    1.811069e-12    2.413913e-09    2.338849e-10    8.400000e-01    6.580055e-01    1.661877e-01
    9.272212e+00    8.468540e+01    8.907815e+00    4.829467e+09    2.721921e-09    1.644553e-12    2.431152e-09    2.350952e-10    8.500000e-01    6.580055e-01    1.727805e-01
    8.878175e+00    8.114080e+01    9.753840e+00    5.040760e+09    2.734157e-09    1.464885e-12    2.447557e-09    2.362404e-10    8.600000e-01    6.580055e-01    1.793609e-01
    8.507657e+00    7.770960e+01    1.063948e+01    5.246700e+09    2.745770e-09    1.271517e-12    2.463170e-09    2.373246e-10    8.700000e-01    6.580055e-01    1.859207e-01
    8.159511e+00    7.439764e+01    1.156391e+01    5.447345e+09    2.756792e-09    1.063861e-12    2.478033e-09    2.383519e-10    8.800000e-01    6.580055e-01    1.924532e-01
    7.832532e+00    7.120841e+01    1.252632e+01    5.642820e+09    2.767258e-09    8.412780e-13    2.492188e-09    2.393262e-10    8.900000e-01    6.580055e-01    1.989528e-01
    7.525476e+00    6.814352e+01    1.352590e+01    5.833290e+09    2.777196e-09    6.030815e-13    2.505674e-09    2.402512e-10    9.000000e-01    6.580055e-01    2.054149e-01
    7.237116e+00    6.520296e+01    1.456183e+01    6.018954e+09    2.786638e-09    3.485278e-13    2.518527e-09    2.411302e-10    9.100000e-01    6.580055e-01    2.118360e-01
    6.966236e+00    6.238553e+01    1.563335e+01    6.200024e+09    2.795612e-09    7.681795e-14    2.530783e-09    2.419667e-10    9.200000e-01    6.580055e-01    2.182133e-01
    6.711664e+00    5.968894e+01    1.673970e+01    6.376717e+09    2.804146e-09    2.129096e-13    2.542476e-09    2.427638e-10    9.300000e-01    6.580055e-01    2.245448e-01
    6.472275e+00    5.711013e+01    1.788014e+01    6.549246e+09    2.812267e-09    5.215820e-13    2.553639e-09    2.435243e-10    9.400000e-01    6.580055e-01    2.308288e-01
    6.247005e+00    5.464556e+01    1.905397e+01    6.717824e+09    2.819999e-09    8.501950e-13    2.564302e-09    2.442512e-10    9.500000e-01    6.580055e-01    2.370643e-01
    6.034845e+00    5.229118e+01    2.026052e+01    6.882637e+09    2.827366e-09    1.199821e-12    2.574495e-09    2.449471e-10    9.600000e-01    6.580055e-01    2.432507e-01
    5.834852e+00    5.004276e+01    2.149914e+01    7.043870e+09    2.834391e-09    1.571609e-12    2.584244e-09    2.456145e-10    9.700000e-01    6.580055e-01    2.493877e-01
    5.646138e+00    4.789583e+01    2.276920e+01    7.201673e+09    2.841097e-09    1.966793e-12    2.593574e-09    2.462558e-10    9.800000e-01    6.580055e-01    2.554751e-01
    5.467886e+00    4.584594e+01    2.407011e+01    7.356201e+09    2.847502e-09    2.386699e-12    2.602513e-09    2.468732e-10    9.900000e-01    6.580055e-01    2.615132e-01
    5.299332e+00    4.388859e+01    2.540126e+01    7.507566e+09    2.853628e-09    2.832746e-12    2.611081e-09    2.474686e-10    1.000000e+00    6.580055e-01    2.675023e-01
    5.139770e+00    4.201943e+01    2.676211e+01    7.655881e+09    2.859493e-09    3.306455e-12    2.619299e-09    2.480443e-10    1.010000e+00    6.580055e-01    2.734428e-01
    4.988549e+00    4.023413e+01    2.815211e+01    7.801234e+09    2.865114e-09    3.809460e-12    2.627189e-09    2.486019e-10    1.020000e+00    6.580055e-01    2.793354e-01
    4.845066e+00    3.852855e+01    2.957070e+01    7.943699e+09    2.870507e-09    4.343505e-12    2.634770e-09    2.491434e-10    1.030000e+00    6.580055e-01    2.851808e-01
    4.708771e+00    3.689872e+01    3.101737e+01    8.083335e+09    2.875691e-09    4.910463e-12    2.642057e-09    2.496702e-10    1.040000e+00    6.580055e-01    2.909795e-01
    4.579153e+00    3.534083e+01    3.249160e+01    8.220189e+09    2.880677e-09    5.512335e-12    2.649070e-09    2.501841e-10    1.050000e+00    6.580055e-01    2.967325e-01
    4.455742e+00    3.385123e+01    3.399288e+01    8.354294e+09    2.885482e-09    6.151260e-12    2.655821e-09    2.506867e-10    1.060000e+00    6.580055e-01    3.024405e-01
    4.338106e+00    3.242649e+01    3.552070e+01    8.485672e+09    2.890119e-09    6.829540e-12    2.662326e-09    2.511791e-10    1.070000e+00    6.580055e-01    3.081044e-01
    4.225853e+00    3.106333e+01    3.707457e+01    8.614340e+09    2.894600e-09    7.549615e-12    2.668600e-09    2.516629e-10    1.080000e+00    6.580055e-01    3.137250e-01
    4.118614e+00    2.975872e+01    3.865397e+01    8.740302e+09    2.898938e-09    8.314110e-12    2.674652e-09    2.521393e-10    1.090000e+00    6.580055e-01    3.193031e-01
    4.016056e+00    2.850970e+01    4.025842e+01    8.863554e+09    2.903145e-09    9.125830e-12    2.680494e-09    2.526096e-10    1.100000e+00    6.580055e-01    3.248397e-01
    3.917871e+00    2.731356e+01    4.188741e+01    8.984092e+09    2.907231e-09    9.987765e-12    2.686138e-09    2.530749e-10    1.110000e+00    6.580055e-01    3.303355e-01
    3.823774e+00    2.616771e+01    4.354044e+01    9.101897e+09    2.911208e-09    1.090311e-11    2.691593e-09    2.535364e-10    1.120000e+00    6.580055e-01    3.357914e-01
    3.733504e+00    2.506976e+01    4.521702e+01    9.216952e+09    2.915085e-09    1.187529e-11    2.696868e-09    2.539952e-10    1.130000e+00    6.580055e-01    3.412082e-01
    3.646820e+00    2.401739e+01    4.691663e+01    9.329234e+09    2.918874e-09    1.290793e-11    2.701970e-09    2.544523e-10    1.140000e+00    6.580055e-01    3.465869e-01
    3.563501e+00    2.300849e+01    4.863878e+01    9.438717e+09    2.922582e-09    1.400491e-11    2.706908e-09    2.549087e-10    1.150000e+00    6.580055e-01    3.519281e-01
    3.483339e+00    2.204101e+01    5.038295e+01    9.545369e+09    2.926219e-09    1.517040e-11    2.711688e-09    2.553655e-10    1.160000e+00    6.580055e-01    3.572327e-01
    3.406149e+00    2.111310e+01    5.214860e+01    9.649156e+09    2.929794e-09    1.640881e-11    2.716316e-09    2.558237e-10    1.170000e+00    6.580055e-01    3.625016e-01
    3.331748e+00    2.022294e+01    5.393530e+01    9.750046e+09    2.933316e-09    1.772482e-11    2.720797e-09    2.562841e-10    1.180000e+00    6.580055e-01    3.677354e-01
    3.259984e+00    1.936887e+01    5.574240e+01    9.848003e+09    2.936791e-09    1.912345e-11    2.725137e-09    2.567477e-10    1.190000e+00    6.580055e-01    3.729349e-01
    3.190697e+00    1.854932e+01    5.756950e+01    9.942984e+09    2.940231e-09    2.061001e-11    2.729339e-09    2.572154e-10    1.200000e+00    6.580055e-01    3.781010e-01
    3.123753e+00    1.776277e+01    5.941600e+01    1.003495e+10    2.943641e-09    2.219015e-11    2.733406e-09    2.576881e-10    1.210000e+00    6.580055e-01    3.832344e-01
    3.059020e+00    1.700785e+01    6.128135e+01    1.012386e+10    2.947030e-09    2.386988e-11    2.737343e-09    2.581667e-10    1.220000e+00    6.580055e-01    3.883357e-01
    2.996380e+00    1.628320e+01    6.316500e+01    1.020967e+10    2.950406e-09    2.565554e-11    2.741152e-09    2.586521e-10    1.230000e+00    6.580055e-01    3.934058e-01
    2.935715e+00    1.558758e+01    6.506650e+01    1.029234e+10    2.953775e-09    2.755387e-11    2.744834e-09    2.591451e-10    1.240000e+00    6.580055e-01    3.984454e-01
    2.876926e+00    1.491980e+01    6.698515e+01    1.037181e+10    2.957147e-09    2.957199e-11    2.748391e-09    2.596465e-10    1.250000e+00    6.580055e-01    4.034551e-01
    2.819912e+00    1.427875e+01    6.892050e+01    1.044805e+10    2.960527e-09    3.171741e-11    2.751825e-09    2.601573e-10    1.260000e+00    6.580055e-01    4.084357e-01
    2.764582e+00    1.366336e+01    7.087195e+01    1.052100e+10    2.963924e-09    3.399806e-11    2.755136e-09    2.606783e-10    1.270000e+00    6.580055e-01    4.133879e-01
    2.710848e+00    1.307262e+01    7.283895e+01    1.059061e+10    2.967345e-09    3.642228e-11    2.758323e-09    2.612103e-10    1.280000e+00    6.580055e-01    4.183123e-01
    2.658634e+00    1.250559e+01    7.482090e+01    1.065685e+10    2.970797e-09    3.899883e-11    2.761386e-09    2.617542e-10    1.290000e+00    6.580055e-01    4.232097e-01
    2.607863e+00    1.196134e+01    7.681720e+01    1.071964e+10    2.974289e-09    4.173687e-11    2.764325e-09    2.623107e-10    1.300000e+00    6.580055e-01    4.280807e-01
    2.558464e+00    1.143903e+01    7.882725e+01    1.077895e+10    2.977826e-09    4.464601e-11    2.767137e-09    2.628808e-10    1.310000e+00    6.580055e-01    4.329260e-01
    2.510371e+00    1.093782e+01    8.085050e+01    1.083472e+10    2.981419e-09    4.773625e-11    2.769823e-09    2.634652e-10    1.320000e+00    6.580055e-01    4.377462e-01
    2.463521e+00    1.045695e+01    8.288635e+01    1.088691e+10    2.985072e-09    5.101800e-11    2.772378e-09    2.640646e-10    1.330000e+00    6.580055e-01    4.425420e-01
    2.417855e+00    9.995649e+00    8.493415e+01    1.093545e+10    2.988794e-09    5.450200e-11    2.774801e-09    2.646801e-10    1.340000e+00    6.580055e-01    4.473140e-01
    2.373318e+00    9.553220e+00    8.699330e+01    1.098030e+10    2.992592e-09    5.819945e-11    2.777089e-09    2.653122e-10    1.350000e+00    6.580055e-01    4.520629e-01
    2.329857e+00    9.128982e+00    8.906320e+01    1.102141e+10    2.996475e-09    6.212170e-11    2.779238e-09    2.659618e-10    1.360000e+00    6.580055e-01    4.567893e-01
    2.287423e+00    8.722284e+00    9.114320e+01    1.105871e+10    3.000449e-09    6.628055e-11    2.781245e-09    2.666295e-10    1.370000e+00    6.580055e-01    4.614938e-01
