# sky130 nfet_01v8 gm/ID Processed Lookup Table
# Corner: ss
# Temperature: 25C
# W = 2.0 um
# L = 2.5 um (2500 nm)
# Columns: gm/id [1/V]  gm/gds [V/V]  id/W [A/m]  ft [Hz]  Cgg/W [F/m]  Cgd/W [F/m]  Cgs/W [F/m]  Cdb/W [F/m]  vgs [V]  vth [V]  vdsat [V]
# vdsat = BSIM4 saturation voltage (|VDS|_sat, positive); use for headroom / saturation / cascode-bias calculations
#           gm/id          gm/gds            id/W              ft           Cgg/W           Cgd/W           Cgs/W           Cdb/W             vgs             vth           vdsat
    2.660198e+01    1.592510e+02    4.709539e-05    3.197779e+04    6.235395e-09    7.521130e-13    2.376758e-09    3.295426e-10    2.800000e-01    5.707597e-01    3.699106e-02
    2.659619e+01    1.589922e+02    6.144730e-05    4.090892e+04    6.358055e-09    8.144145e-13    2.558983e-09    3.505146e-10    2.900000e-01    5.707597e-01    3.699613e-02
    2.657491e+01    1.587034e+02    8.016180e-05    5.225323e+04    6.488530e-09    8.817840e-13    2.750612e-09    3.723134e-10    3.000000e-01    5.707597e-01    3.700274e-02
    2.653970e+01    1.583823e+02    1.045465e-04    6.663904e+04    6.626690e-09    9.545900e-13    2.951458e-09    3.949026e-10    3.100000e-01    5.707597e-01    3.701136e-02
    2.649162e+01    1.580269e+02    1.362918e-04    8.485150e+04    6.772345e-09    1.033220e-12    3.161250e-09    4.182377e-10    3.200000e-01    5.707597e-01    3.702256e-02
    2.643133e+01    1.576360e+02    1.775804e-04    1.078700e+05    6.925220e-09    1.118086e-12    3.379621e-09    4.422659e-10    3.300000e-01    5.707597e-01    3.703713e-02
    2.635915e+01    1.572086e+02    2.312237e-04    1.369132e+05    7.084980e-09    1.209617e-12    3.606121e-09    4.669266e-10    3.400000e-01    5.707597e-01    3.705604e-02
    2.627520e+01    1.567450e+02    3.008366e-04    1.734945e+05    7.251220e-09    1.308266e-12    3.840212e-09    4.921521e-10    3.500000e-01    5.707597e-01    3.708056e-02
    2.617945e+01    1.562468e+02    3.910558e-04    2.194890e+05    7.423465e-09    1.414510e-12    4.081275e-09    5.178680e-10    3.600000e-01    5.707597e-01    3.711228e-02
    2.607189e+01    1.557178e+02    5.078145e-04    2.772145e+05    7.601195e-09    1.528848e-12    4.328617e-09    5.439940e-10    3.700000e-01    5.707597e-01    3.715327e-02
    2.595244e+01    1.551637e+02    6.586865e-04    3.495301e+05    7.783815e-09    1.651806e-12    4.581477e-09    5.704455e-10    3.800000e-01    5.707597e-01    3.720611e-02
    2.582117e+01    1.545938e+02    8.533125e-04    4.399544e+05    7.970700e-09    1.783932e-12    4.839037e-09    5.971340e-10    3.900000e-01    5.707597e-01    3.727407e-02
    2.567837e+01    1.540211e+02    1.103931e-03    5.528108e+05    8.161180e-09    1.925804e-12    5.100435e-09    6.239690e-10    4.000000e-01    5.707597e-01    3.736126e-02
    2.552449e+01    1.534633e+02    1.426039e-03    6.934035e+05    8.354545e-09    2.078027e-12    5.364780e-09    6.508580e-10    4.100000e-01    5.707597e-01    3.747278e-02
    2.536038e+01    1.529434e+02    1.839205e-03    8.682315e+05    8.550085e-09    2.241234e-12    5.631145e-09    6.777095e-10    4.200000e-01    5.707597e-01    3.761495e-02
    2.518715e+01    1.524907e+02    2.368077e-03    1.085256e+06    8.747070e-09    2.416089e-12    5.898610e-09    7.044330e-10    4.300000e-01    5.707597e-01    3.779554e-02
    2.500632e+01    1.521413e+02    3.043631e-03    1.354232e+06    8.944765e-09    2.603290e-12    6.166250e-09    7.309400e-10    4.400000e-01    5.707597e-01    3.802399e-02
    2.481969e+01    1.519383e+02    3.904717e-03    1.687108e+06    9.142460e-09    2.803568e-12    6.433165e-09    7.571470e-10    4.500000e-01    5.707597e-01    3.831167e-02
    2.462923e+01    1.519314e+02    4.999971e-03    2.098540e+06    9.339450e-09    3.017693e-12    6.698480e-09    7.829745e-10    4.600000e-01    5.707597e-01    3.867214e-02
    2.443693e+01    1.521762e+02    6.390190e-03    2.606495e+06    9.535065e-09    3.246469e-12    6.961355e-09    8.083480e-10    4.700000e-01    5.707597e-01    3.912133e-02
    2.424447e+01    1.527323e+02    8.151245e-03    3.232984e+06    9.728665e-09    3.490746e-12    7.221005e-09    8.332000e-10    4.800000e-01    5.707597e-01    3.967771e-02
    2.405283e+01    1.536607e+02    1.037766e-02    4.004875e+06    9.919665e-09    3.751418e-12    7.476700e-09    8.574695e-10    4.900000e-01    5.707597e-01    4.036237e-02
    2.386185e+01    1.550195e+02    1.318697e-02    4.954785e+06    1.010752e-08    4.029423e-12    7.727765e-09    8.811025e-10    5.000000e-01    5.707597e-01    4.119893e-02
    2.366984e+01    1.568589e+02    1.672475e-02    6.121915e+06    1.029172e-08    4.325753e-12    7.973605e-09    9.040540e-10    5.100000e-01    5.707597e-01    4.221335e-02
    2.347322e+01    1.592158e+02    2.117054e-02    7.552705e+06    1.047182e-08    4.641453e-12    8.213690e-09    9.262845e-10    5.200000e-01    5.707597e-01    4.343347e-02
    2.326639e+01    1.621074e+02    2.674427e-02    9.301084e+06    1.064747e-08    4.977627e-12    8.447550e-09    9.477630e-10    5.300000e-01    5.707597e-01    4.488844e-02
    2.304184e+01    1.655251e+02    3.371287e-02    1.142810e+07    1.081829e-08    5.335440e-12    8.674810e-09    9.684655e-10    5.400000e-01    5.707597e-01    4.660782e-02
    2.279073e+01    1.694306e+02    4.239662e-02    1.400062e+07    1.098405e-08    5.716130e-12    8.895150e-09    9.883760e-10    5.500000e-01    5.707597e-01    4.862061e-02
    2.250361e+01    1.737520e+02    5.317425e-02    1.708885e+07    1.114451e-08    6.121000e-12    9.108320e-09    1.007483e-09    5.600000e-01    5.707597e-01    5.095403e-02
    2.217155e+01    1.783849e+02    6.648595e-02    2.076286e+07    1.129949e-08    6.551435e-12    9.314140e-09    1.025785e-09    5.700000e-01    5.707597e-01    5.363230e-02
    2.178716e+01    1.831955e+02    8.283330e-02    2.508780e+07    1.144889e-08    7.008905e-12    9.512490e-09    1.043281e-09    5.800000e-01    5.707597e-01    5.667547e-02
    2.134556e+01    1.880265e+02    1.027751e-01    3.011854e+07    1.159263e-08    7.494970e-12    9.703310e-09    1.059979e-09    5.900000e-01    5.707597e-01    6.009830e-02
    2.084505e+01    1.927074e+02    1.269185e-01    3.589428e+07    1.173067e-08    8.011280e-12    9.886590e-09    1.075889e-09    6.000000e-01    5.707597e-01    6.390948e-02
    2.028722e+01    1.970646e+02    1.559059e-01    4.243358e+07    1.186303e-08    8.559600e-12    1.006237e-08    1.091029e-09    6.100000e-01    5.707597e-01    6.811108e-02
    1.967686e+01    2.009338e+02    1.903975e-01    4.973100e+07    1.198974e-08    9.141795e-12    1.023072e-08    1.105415e-09    6.200000e-01    5.707597e-01    7.269847e-02
    1.902132e+01    2.041703e+02    2.310511e-01    5.775543e+07    1.211089e-08    9.759870e-12    1.039176e-08    1.119070e-09    6.300000e-01    5.707597e-01    7.766046e-02
    1.832986e+01    2.066576e+02    2.785007e-01    6.645098e+07    1.222656e-08    1.041594e-11    1.054563e-08    1.132017e-09    6.400000e-01    5.707597e-01    8.297999e-02
    1.761276e+01    2.083134e+02    3.333359e-01    7.573985e+07    1.233688e-08    1.111227e-11    1.069251e-08    1.144282e-09    6.500000e-01    5.707597e-01    8.863492e-02
    1.688054e+01    2.090921e+02    3.960837e-01    8.552715e+07    1.244198e-08    1.185126e-11    1.083261e-08    1.155892e-09    6.600000e-01    5.707597e-01    9.459912e-02
    1.614333e+01    2.089837e+02    4.671942e-01    9.570693e+07    1.254202e-08    1.263551e-11    1.096613e-08    1.166874e-09    6.700000e-01    5.707597e-01    1.008437e-01
    1.541036e+01    2.080105e+02    5.470315e-01    1.061684e+08    1.263717e-08    1.346775e-11    1.109329e-08    1.177259e-09    6.800000e-01    5.707597e-01    1.073379e-01
    1.468965e+01    2.062221e+02    6.358695e-01    1.168028e+08    1.272760e-08    1.435092e-11    1.121435e-08    1.187075e-09    6.900000e-01    5.707597e-01    1.140508e-01
    1.398786e+01    2.036887e+02    7.338925e-01    1.275076e+08    1.281350e-08    1.528816e-11    1.132953e-08    1.196351e-09    7.000000e-01    5.707597e-01    1.209516e-01
    1.331022e+01    2.004946e+02    8.412015e-01    1.381919e+08    1.289505e-08    1.628282e-11    1.143909e-08    1.205116e-09    7.100000e-01    5.707597e-01    1.280109e-01
    1.266066e+01    1.967316e+02    9.578210e-01    1.487781e+08    1.297244e-08    1.733849e-11    1.154328e-08    1.213399e-09    7.200000e-01    5.707597e-01    1.352009e-01
    1.204183e+01    1.924943e+02    1.083712e+00    1.592037e+08    1.304587e-08    1.845901e-11    1.164235e-08    1.221227e-09    7.300000e-01    5.707597e-01    1.424963e-01
    1.145537e+01    1.878747e+02    1.218780e+00    1.694216e+08    1.311554e-08    1.964848e-11    1.173655e-08    1.228628e-09    7.400000e-01    5.707597e-01    1.498744e-01
    1.090200e+01    1.829594e+02    1.362893e+00    1.793987e+08    1.318161e-08    2.091131e-11    1.182612e-08    1.235628e-09    7.500000e-01    5.707597e-01    1.573148e-01
    1.038169e+01    1.778270e+02    1.515886e+00    1.891152e+08    1.324429e-08    2.225221e-11    1.191129e-08    1.242253e-09    7.600000e-01    5.707597e-01    1.648001e-01
    9.893904e+00    1.725478e+02    1.677579e+00    1.985624e+08    1.330374e-08    2.367624e-11    1.199231e-08    1.248528e-09    7.700000e-01    5.707597e-01    1.723153e-01
    9.437627e+00    1.671820e+02    1.847778e+00    2.077405e+08    1.336015e-08    2.518881e-11    1.206938e-08    1.254477e-09    7.800000e-01    5.707597e-01    1.798477e-01
    9.011559e+00    1.617805e+02    2.026287e+00    2.166569e+08    1.341370e-08    2.679572e-11    1.214272e-08    1.260121e-09    7.900000e-01    5.707597e-01    1.873870e-01
    8.614192e+00    1.563853e+02    2.212915e+00    2.253242e+08    1.346454e-08    2.850320e-11    1.221257e-08    1.265483e-09    8.000000e-01    5.707597e-01    1.949246e-01
    8.243887e+00    1.510303e+02    2.407477e+00    2.337587e+08    1.351284e-08    3.031796e-11    1.227908e-08    1.270584e-09    8.100000e-01    5.707597e-01    2.024539e-01
    7.898950e+00    1.457418e+02    2.609798e+00    2.419788e+08    1.355874e-08    3.224714e-11    1.234247e-08    1.275442e-09    8.200000e-01    5.707597e-01    2.099696e-01
    7.577676e+00    1.405403e+02    2.819718e+00    2.500037e+08    1.360240e-08    3.429847e-11    1.240292e-08    1.280078e-09    8.300000e-01    5.707597e-01    2.174677e-01
    7.278382e+00    1.354405e+02    3.037089e+00    2.578532e+08    1.364395e-08    3.648022e-11    1.246058e-08    1.284508e-09    8.400000e-01    5.707597e-01    2.249454e-01
    6.999443e+00    1.304529e+02    3.261777e+00    2.655460e+08    1.368353e-08    3.880127e-11    1.251565e-08    1.288749e-09    8.500000e-01    5.707597e-01    2.324007e-01
    6.739303e+00    1.255843e+02    3.493664e+00    2.731000e+08    1.372128e-08    4.127118e-11    1.256825e-08    1.292818e-09    8.600000e-01    5.707597e-01    2.398325e-01
    6.496495e+00    1.208387e+02    3.732642e+00    2.805319e+08    1.375730e-08    4.390020e-11    1.261853e-08    1.296729e-09    8.700000e-01    5.707597e-01    2.472400e-01
    6.269635e+00    1.162178e+02    3.978616e+00    2.878564e+08    1.379173e-08    4.669936e-11    1.266664e-08    1.300498e-09    8.800000e-01    5.707597e-01    2.546232e-01
    6.057439e+00    1.117215e+02    4.231505e+00    2.950866e+08    1.382467e-08    4.968052e-11    1.271270e-08    1.304137e-09    8.900000e-01    5.707597e-01    2.619823e-01
    5.858715e+00    1.073487e+02    4.491235e+00    3.022342e+08    1.385622e-08    5.285645e-11    1.275683e-08    1.307660e-09    9.000000e-01    5.707597e-01    2.693178e-01
    5.672358e+00    1.030971e+02    4.757742e+00    3.093089e+08    1.388649e-08    5.624080e-11    1.279915e-08    1.311079e-09    9.100000e-01    5.707597e-01    2.766304e-01
    5.497359e+00    9.896401e+01    5.030970e+00    3.163188e+08    1.391557e-08    5.984830e-11    1.283976e-08    1.314406e-09    9.200000e-01    5.707597e-01    2.839210e-01
    5.332789e+00    9.494634e+01    5.310865e+00    3.232704e+08    1.394357e-08    6.369485e-11    1.287876e-08    1.317651e-09    9.300000e-01    5.707597e-01    2.911907e-01
    5.177791e+00    9.104081e+01    5.597390e+00    3.301694e+08    1.397055e-08    6.779745e-11    1.291624e-08    1.320827e-09    9.400000e-01    5.707597e-01    2.984404e-01
    5.031593e+00    8.724414e+01    5.890495e+00    3.370192e+08    1.399661e-08    7.217445e-11    1.295229e-08    1.323943e-09    9.500000e-01    5.707597e-01    3.056714e-01
    4.893480e+00    8.355308e+01    6.190150e+00    3.438227e+08    1.402183e-08    7.684540e-11    1.298699e-08    1.327008e-09    9.600000e-01    5.707597e-01    3.128845e-01
    4.762808e+00    7.996459e+01    6.496315e+00    3.505815e+08    1.404628e-08    8.183160e-11    1.302040e-08    1.330034e-09    9.700000e-01    5.707597e-01    3.200811e-01
    4.638991e+00    7.647583e+01    6.808950e+00    3.572962e+08    1.407004e-08    8.715565e-11    1.305261e-08    1.333027e-09    9.800000e-01    5.707597e-01    3.272621e-01
    4.521480e+00    7.308416e+01    7.128035e+00    3.639667e+08    1.409318e-08    9.284205e-11    1.308366e-08    1.335999e-09    9.900000e-01    5.707597e-01    3.344285e-01
    4.409792e+00    6.978722e+01    7.453525e+00    3.705917e+08    1.411576e-08    9.891690e-11    1.311362e-08    1.338956e-09    1.000000e+00    5.707597e-01    3.415814e-01
    4.303477e+00    6.658300e+01    7.785395e+00    3.771695e+08    1.413786e-08    1.054084e-10    1.314254e-08    1.341908e-09    1.010000e+00    5.707597e-01    3.487216e-01
    4.202129e+00    6.346958e+01    8.123600e+00    3.836977e+08    1.415953e-08    1.123465e-10    1.317047e-08    1.344863e-09    1.020000e+00    5.707597e-01    3.558502e-01
    4.105374e+00    6.044552e+01    8.468110e+00    3.901730e+08    1.418085e-08    1.197637e-10    1.319745e-08    1.347829e-09    1.030000e+00    5.707597e-01    3.629678e-01
    4.012874e+00    5.750941e+01    8.818880e+00    3.965919e+08    1.420186e-08    1.276944e-10    1.322351e-08    1.350813e-09    1.040000e+00    5.707597e-01    3.700754e-01
    3.924313e+00    5.466026e+01    9.175875e+00    4.029502e+08    1.422263e-08    1.361759e-10    1.324871e-08    1.353825e-09    1.050000e+00    5.707597e-01    3.771736e-01
    3.839408e+00    5.189716e+01    9.539045e+00    4.092429e+08    1.424322e-08    1.452473e-10    1.327306e-08    1.356872e-09    1.060000e+00    5.707597e-01    3.842632e-01
    3.757897e+00    4.921941e+01    9.908345e+00    4.154647e+08    1.426369e-08    1.549511e-10    1.329658e-08    1.359961e-09    1.070000e+00    5.707597e-01    3.913447e-01
    3.679537e+00    4.662652e+01    1.028372e+01    4.216101e+08    1.428409e-08    1.653321e-10    1.331931e-08    1.363100e-09    1.080000e+00    5.707597e-01    3.984188e-01
    3.604109e+00    4.411812e+01    1.066511e+01    4.276725e+08    1.430448e-08    1.764383e-10    1.334126e-08    1.366297e-09    1.090000e+00    5.707597e-01    4.054860e-01
    3.531405e+00    4.169391e+01    1.105246e+01    4.336451e+08    1.432492e-08    1.883204e-10    1.336245e-08    1.369560e-09    1.100000e+00    5.707597e-01    4.125468e-01
    3.461236e+00    3.935376e+01    1.144570e+01    4.395206e+08    1.434546e-08    2.010324e-10    1.338289e-08    1.372895e-09    1.110000e+00    5.707597e-01    4.196018e-01
    3.393425e+00    3.709755e+01    1.184476e+01    4.452911e+08    1.436616e-08    2.146313e-10    1.340259e-08    1.376313e-09    1.120000e+00    5.707597e-01    4.266513e-01
    3.327809e+00    3.492521e+01    1.224956e+01    4.509480e+08    1.438707e-08    2.291773e-10    1.342155e-08    1.379819e-09    1.130000e+00    5.707597e-01    4.336957e-01
    3.264234e+00    3.283670e+01    1.266002e+01    4.564824e+08    1.440826e-08    2.447337e-10    1.343977e-08    1.383422e-09    1.140000e+00    5.707597e-01    4.407355e-01
    3.202556e+00    3.083195e+01    1.307604e+01    4.618846e+08    1.442978e-08    2.613670e-10    1.345726e-08    1.387129e-09    1.150000e+00    5.707597e-01    4.477710e-01
    3.142644e+00    2.891087e+01    1.349751e+01    4.671440e+08    1.445168e-08    2.791468e-10    1.347401e-08    1.390948e-09    1.160000e+00    5.707597e-01    4.548025e-01
    3.084368e+00    2.707330e+01    1.392436e+01    4.722504e+08    1.447402e-08    2.981457e-10    1.349000e-08    1.394887e-09    1.170000e+00    5.707597e-01    4.618303e-01
    3.027612e+00    2.531899e+01    1.435643e+01    4.771916e+08    1.449687e-08    3.184387e-10    1.350524e-08    1.398954e-09    1.180000e+00    5.707597e-01    4.688547e-01
    2.972263e+00    2.364756e+01    1.479363e+01    4.819558e+08    1.452027e-08    3.401034e-10    1.351970e-08    1.403155e-09    1.190000e+00    5.707597e-01    4.758760e-01
    2.918215e+00    2.205854e+01    1.523580e+01    4.865306e+08    1.454428e-08    3.632198e-10    1.353337e-08    1.407499e-09    1.200000e+00    5.707597e-01    4.828944e-01
    2.865369e+00    2.055126e+01    1.568280e+01    4.909027e+08    1.456897e-08    3.878693e-10    1.354624e-08    1.411993e-09    1.210000e+00    5.707597e-01    4.899102e-01
    2.813632e+00    1.912488e+01    1.613448e+01    4.950589e+08    1.459438e-08    4.141345e-10    1.355827e-08    1.416643e-09    1.220000e+00    5.707597e-01    4.969235e-01
    2.762917e+00    1.777836e+01    1.659068e+01    4.989852e+08    1.462057e-08    4.420988e-10    1.356945e-08    1.421456e-09    1.230000e+00    5.707597e-01    5.039346e-01
    2.713142e+00    1.651044e+01    1.705119e+01    5.026680e+08    1.464759e-08    4.718451e-10    1.357976e-08    1.426439e-09    1.240000e+00    5.707597e-01    5.109437e-01
    2.664233e+00    1.531963e+01    1.751586e+01    5.060936e+08    1.467550e-08    5.034560e-10    1.358915e-08    1.431597e-09    1.250000e+00    5.707597e-01    5.179510e-01
    2.616122e+00    1.420421e+01    1.798445e+01    5.092487e+08    1.470433e-08    5.370115e-10    1.359762e-08    1.436936e-09    1.260000e+00    5.707597e-01    5.249566e-01
    2.568749e+00    1.316219e+01    1.845677e+01    5.121208e+08    1.473415e-08    5.725890e-10    1.360513e-08    1.442461e-09    1.270000e+00    5.707597e-01    5.319607e-01
    2.522061e+00    1.219135e+01    1.893259e+01    5.146982e+08    1.476499e-08    6.102625e-10    1.361165e-08    1.448176e-09    1.280000e+00    5.707597e-01    5.389635e-01
    2.476013e+00    1.128926e+01    1.941168e+01    5.169709e+08    1.479687e-08    6.501005e-10    1.361715e-08    1.454083e-09    1.290000e+00    5.707597e-01    5.459652e-01
    2.430571e+00    1.045322e+01    1.989378e+01    5.189301e+08    1.482985e-08    6.921650e-10    1.362159e-08    1.460188e-09    1.300000e+00    5.707597e-01    5.529659e-01
    2.385709e+00    9.680362e+00    2.037865e+01    5.205698e+08    1.486394e-08    7.365105e-10    1.362497e-08    1.466490e-09    1.310000e+00    5.707597e-01    5.599657e-01
    2.341408e+00    8.967632e+00    2.086604e+01    5.218853e+08    1.489918e-08    7.831830e-10    1.362726e-08    1.472991e-09    1.320000e+00    5.707597e-01    5.669648e-01
    2.297663e+00    8.311848e+00    2.135569e+01    5.228757e+08    1.493556e-08    8.322185e-10    1.362841e-08    1.479690e-09    1.330000e+00    5.707597e-01    5.739634e-01
    2.254472e+00    7.709705e+00    2.184732e+01    5.235420e+08    1.497310e-08    8.836420e-10    1.362843e-08    1.486588e-09    1.340000e+00    5.707597e-01    5.809615e-01
    2.211846e+00    7.157842e+00    2.234069e+01    5.238887e+08    1.501179e-08    9.374660e-10    1.362728e-08    1.493682e-09    1.350000e+00    5.707597e-01    5.879594e-01
    2.169800e+00    6.652880e+00    2.283552e+01    5.239228e+08    1.505163e-08    9.936900e-10    1.362496e-08    1.500969e-09    1.360000e+00    5.707597e-01    5.949571e-01
