# sky130 pfet_01v8 gm/ID Processed Lookup Table
# Corner: ff
# Temperature: 0C
# W = 2.0 um
# L = 2.7 um (2700 nm)
# Columns: gm/id [1/V]  gm/gds [V/V]  id/W [A/m]  ft [Hz]  Cgg/W [F/m]  Cgd/W [F/m]  Cgs/W [F/m]  Vov [V]
#         gm/id          gm/gds            id/W              ft           Cgg/W           Cgd/W           Cgs/W             Vov
    2.112327e+00    5.128586e+00    8.285875e+00    1.598021e+08    1.743159e-08    1.455281e-09    1.592907e-08   -2.832353e+00
    2.135068e+00    5.319403e+00    8.198355e+00    1.601169e+08    1.739888e-08    1.411683e-09    1.593097e-08   -2.827353e+00
    2.158084e+00    5.521287e+00    8.110835e+00    1.604130e+08    1.736659e-08    1.368918e-09    1.593250e-08   -2.822353e+00
    2.181374e+00    5.734987e+00    8.023320e+00    1.606894e+08    1.733474e-08    1.327000e-09    1.593368e-08   -2.817353e+00
    2.204933e+00    5.961293e+00    7.935820e+00    1.609450e+08    1.730334e-08    1.285941e-09    1.593450e-08   -2.812353e+00
    2.228755e+00    6.201043e+00    7.848345e+00    1.611789e+08    1.727239e-08    1.245751e-09    1.593495e-08   -2.807353e+00
    2.252834e+00    6.455125e+00    7.760905e+00    1.613900e+08    1.724190e-08    1.206439e-09    1.593506e-08   -2.802353e+00
    2.277167e+00    6.724485e+00    7.673510e+00    1.615774e+08    1.721188e-08    1.168012e-09    1.593480e-08   -2.797353e+00
    2.301745e+00    7.010107e+00    7.586170e+00    1.617401e+08    1.718234e-08    1.130475e-09    1.593419e-08   -2.792353e+00
    2.326563e+00    7.313039e+00    7.498900e+00    1.618771e+08    1.715328e-08    1.093831e-09    1.593323e-08   -2.787353e+00
    2.351615e+00    7.634368e+00    7.411705e+00    1.619875e+08    1.712470e-08    1.058083e-09    1.593192e-08   -2.782353e+00
    2.376893e+00    7.975247e+00    7.324605e+00    1.620705e+08    1.709661e-08    1.023230e-09    1.593027e-08   -2.777353e+00
    2.402389e+00    8.336869e+00    7.237615e+00    1.621252e+08    1.706901e-08    9.892710e-10    1.592827e-08   -2.772353e+00
    2.428100e+00    8.720481e+00    7.150735e+00    1.621510e+08    1.704190e-08    9.562035e-10    1.592592e-08   -2.767353e+00
    2.454017e+00    9.127376e+00    7.063990e+00    1.621470e+08    1.701527e-08    9.240230e-10    1.592325e-08   -2.762353e+00
    2.480134e+00    9.558893e+00    6.977390e+00    1.621128e+08    1.698913e-08    8.927240e-10    1.592023e-08   -2.757353e+00
    2.506448e+00    1.001641e+01    6.890945e+00    1.620478e+08    1.696347e-08    8.622990e-10    1.591690e-08   -2.752353e+00
    2.532951e+00    1.050135e+01    6.804675e+00    1.619514e+08    1.693829e-08    8.327400e-10    1.591324e-08   -2.747353e+00
    2.559639e+00    1.101517e+01    6.718590e+00    1.618235e+08    1.691358e-08    8.040375e-10    1.590925e-08   -2.742353e+00
    2.586508e+00    1.155936e+01    6.632710e+00    1.616637e+08    1.688934e-08    7.761810e-10    1.590496e-08   -2.737353e+00
    2.613560e+00    1.213543e+01    6.547040e+00    1.614719e+08    1.686556e-08    7.491590e-10    1.590035e-08   -2.732353e+00
    2.640787e+00    1.274492e+01    6.461605e+00    1.612480e+08    1.684223e-08    7.229590e-10    1.589543e-08   -2.727353e+00
    2.668193e+00    1.338937e+01    6.376410e+00    1.609920e+08    1.681936e-08    6.975680e-10    1.589021e-08   -2.722353e+00
    2.695776e+00    1.407038e+01    6.291475e+00    1.607041e+08    1.679692e-08    6.729715e-10    1.588470e-08   -2.717353e+00
    2.723540e+00    1.478948e+01    6.206810e+00    1.603845e+08    1.677491e-08    6.491555e-10    1.587889e-08   -2.712353e+00
    2.751484e+00    1.554827e+01    6.122435e+00    1.600334e+08    1.675332e-08    6.261045e-10    1.587280e-08   -2.707353e+00
    2.779616e+00    1.634831e+01    6.038355e+00    1.596513e+08    1.673213e-08    6.038025e-10    1.586642e-08   -2.702353e+00
    2.807938e+00    1.719116e+01    5.954595e+00    1.592387e+08    1.671135e-08    5.822330e-10    1.585976e-08   -2.697353e+00
    2.836457e+00    1.807838e+01    5.871160e+00    1.587959e+08    1.669095e-08    5.613800e-10    1.585282e-08   -2.692353e+00
    2.865182e+00    1.901148e+01    5.788065e+00    1.583237e+08    1.667093e-08    5.412260e-10    1.584561e-08   -2.687353e+00
    2.894119e+00    1.999200e+01    5.705325e+00    1.578227e+08    1.665128e-08    5.217545e-10    1.583813e-08   -2.682353e+00
    2.923279e+00    2.102140e+01    5.622950e+00    1.572935e+08    1.663197e-08    5.029480e-10    1.583040e-08   -2.677353e+00
    2.952671e+00    2.210114e+01    5.540955e+00    1.567370e+08    1.661300e-08    4.847887e-10    1.582239e-08   -2.672353e+00
    2.982306e+00    2.323266e+01    5.459350e+00    1.561538e+08    1.659437e-08    4.672595e-10    1.581413e-08   -2.667353e+00
    3.012198e+00    2.441736e+01    5.378145e+00    1.555448e+08    1.657604e-08    4.503428e-10    1.580562e-08   -2.662353e+00
    3.042362e+00    2.565661e+01    5.297350e+00    1.549107e+08    1.655801e-08    4.340213e-10    1.579684e-08   -2.657353e+00
    3.072804e+00    2.695171e+01    5.216985e+00    1.542523e+08    1.654028e-08    4.182776e-10    1.578782e-08   -2.652353e+00
    3.103548e+00    2.830398e+01    5.137045e+00    1.535705e+08    1.652282e-08    4.030944e-10    1.577856e-08   -2.647353e+00
    3.134601e+00    2.971473e+01    5.057555e+00    1.528661e+08    1.650562e-08    3.884547e-10    1.576904e-08   -2.642353e+00
    3.165982e+00    3.118515e+01    4.978517e+00    1.521398e+08    1.648867e-08    3.743416e-10    1.575928e-08   -2.637353e+00
    3.197708e+00    3.271648e+01    4.899940e+00    1.513926e+08    1.647195e-08    3.607387e-10    1.574927e-08   -2.632353e+00
    3.229794e+00    3.430989e+01    4.821834e+00    1.506251e+08    1.645546e-08    3.476294e-10    1.573902e-08   -2.627353e+00
    3.262259e+00    3.596657e+01    4.744207e+00    1.498381e+08    1.643916e-08    3.349976e-10    1.572853e-08   -2.622353e+00
    3.295119e+00    3.768765e+01    4.667068e+00    1.490325e+08    1.642307e-08    3.228276e-10    1.571779e-08   -2.617353e+00
    3.328392e+00    3.947425e+01    4.590424e+00    1.482088e+08    1.640716e-08    3.111040e-10    1.570682e-08   -2.612353e+00
    3.362098e+00    4.132750e+01    4.514283e+00    1.473679e+08    1.639141e-08    2.998115e-10    1.569559e-08   -2.607353e+00
    3.396254e+00    4.324851e+01    4.438652e+00    1.465104e+08    1.637582e-08    2.889353e-10    1.568412e-08   -2.602353e+00
    3.430882e+00    4.523838e+01    4.363537e+00    1.456370e+08    1.636036e-08    2.784610e-10    1.567241e-08   -2.597353e+00
    3.465998e+00    4.729820e+01    4.288946e+00    1.447482e+08    1.634503e-08    2.683744e-10    1.566045e-08   -2.592353e+00
    3.501626e+00    4.942908e+01    4.214885e+00    1.438448e+08    1.632982e-08    2.586620e-10    1.564824e-08   -2.587353e+00
    3.537785e+00    5.163214e+01    4.141358e+00    1.429273e+08    1.631471e-08    2.493102e-10    1.563577e-08   -2.582353e+00
    3.574494e+00    5.390850e+01    4.068374e+00    1.419961e+08    1.629968e-08    2.403061e-10    1.562306e-08   -2.577353e+00
    3.611778e+00    5.625929e+01    3.995937e+00    1.410520e+08    1.628472e-08    2.316372e-10    1.561008e-08   -2.572353e+00
    3.649656e+00    5.868571e+01    3.924052e+00    1.400954e+08    1.626983e-08    2.232910e-10    1.559685e-08   -2.567353e+00
    3.688153e+00    6.118891e+01    3.852724e+00    1.391267e+08    1.625499e-08    2.152559e-10    1.558336e-08   -2.562353e+00
    3.727290e+00    6.377013e+01    3.781959e+00    1.381464e+08    1.624017e-08    2.075203e-10    1.556958e-08   -2.557353e+00
    3.767091e+00    6.643062e+01    3.711761e+00    1.371549e+08    1.622538e-08    2.000730e-10    1.555555e-08   -2.552353e+00
    3.807581e+00    6.917171e+01    3.642135e+00    1.361527e+08    1.621060e-08    1.929034e-10    1.554123e-08   -2.547353e+00
    3.848785e+00    7.199472e+01    3.573085e+00    1.351402e+08    1.619580e-08    1.860009e-10    1.552663e-08   -2.542353e+00
    3.890727e+00    7.490104e+01    3.504616e+00    1.341178e+08    1.618099e-08    1.793555e-10    1.551173e-08   -2.537353e+00
    3.933434e+00    7.789210e+01    3.436732e+00    1.330856e+08    1.616615e-08    1.729576e-10    1.549655e-08   -2.532353e+00
    3.976933e+00    8.096943e+01    3.369436e+00    1.320442e+08    1.615126e-08    1.667977e-10    1.548106e-08   -2.527353e+00
    4.021252e+00    8.413459e+01    3.302732e+00    1.309938e+08    1.613630e-08    1.608667e-10    1.546526e-08   -2.522353e+00
    4.066420e+00    8.738922e+01    3.236626e+00    1.299348e+08    1.612128e-08    1.551560e-10    1.544915e-08   -2.517353e+00
    4.112465e+00    9.073500e+01    3.171119e+00    1.288673e+08    1.610617e-08    1.496570e-10    1.543270e-08   -2.512353e+00
    4.159418e+00    9.417372e+01    3.106216e+00    1.277917e+08    1.609095e-08    1.443619e-10    1.541593e-08   -2.507353e+00
    4.207312e+00    9.770728e+01    3.041920e+00    1.267082e+08    1.607562e-08    1.392626e-10    1.539882e-08   -2.502353e+00
    4.256177e+00    1.013376e+02    2.978234e+00    1.256171e+08    1.606016e-08    1.343518e-10    1.538135e-08   -2.497353e+00
    4.306048e+00    1.050666e+02    2.915162e+00    1.245185e+08    1.604456e-08    1.296220e-10    1.536353e-08   -2.492353e+00
    4.356959e+00    1.088966e+02    2.852707e+00    1.234126e+08    1.602881e-08    1.250664e-10    1.534533e-08   -2.487353e+00
    4.408947e+00    1.128297e+02    2.790872e+00    1.222997e+08    1.601287e-08    1.206783e-10    1.532674e-08   -2.482353e+00
    4.462047e+00    1.168683e+02    2.729659e+00    1.211800e+08    1.599675e-08    1.164512e-10    1.530777e-08   -2.477353e+00
    4.516301e+00    1.210148e+02    2.669074e+00    1.200535e+08    1.598044e-08    1.123789e-10    1.528839e-08   -2.472353e+00
    4.571746e+00    1.252718e+02    2.609117e+00    1.189205e+08    1.596390e-08    1.084555e-10    1.526858e-08   -2.467353e+00
    4.628424e+00    1.296418e+02    2.549793e+00    1.177811e+08    1.594713e-08    1.046751e-10    1.524835e-08   -2.462353e+00
    4.686378e+00    1.341278e+02    2.491103e+00    1.166354e+08    1.593011e-08    1.010324e-10    1.522768e-08   -2.457353e+00
    4.745655e+00    1.387326e+02    2.433051e+00    1.154836e+08    1.591283e-08    9.752200e-11    1.520654e-08   -2.452353e+00
    4.806300e+00    1.434593e+02    2.375640e+00    1.143257e+08    1.589527e-08    9.413880e-11    1.518493e-08   -2.447353e+00
    4.868359e+00    1.483110e+02    2.318872e+00    1.131618e+08    1.587741e-08    9.087800e-11    1.516283e-08   -2.442353e+00
    4.931883e+00    1.532910e+02    2.262749e+00    1.119921e+08    1.585923e-08    8.773480e-11    1.514022e-08   -2.437353e+00
    4.996926e+00    1.584029e+02    2.207276e+00    1.108166e+08    1.584073e-08    8.470475e-11    1.511709e-08   -2.432353e+00
    5.063540e+00    1.636502e+02    2.152455e+00    1.096353e+08    1.582187e-08    8.178345e-11    1.509343e-08   -2.427353e+00
    5.131783e+00    1.690368e+02    2.098286e+00    1.084485e+08    1.580265e-08    7.896685e-11    1.506920e-08   -2.422353e+00
    5.201710e+00    1.745665e+02    2.044776e+00    1.072560e+08    1.578304e-08    7.625090e-11    1.504439e-08   -2.417353e+00
    5.273384e+00    1.802436e+02    1.991924e+00    1.060578e+08    1.576302e-08    7.363180e-11    1.501900e-08   -2.412353e+00
    5.346867e+00    1.860720e+02    1.939735e+00    1.048542e+08    1.574259e-08    7.110580e-11    1.499298e-08   -2.407353e+00
    5.422225e+00    1.920565e+02    1.888210e+00    1.036450e+08    1.572171e-08    6.866940e-11    1.496634e-08   -2.402353e+00
    5.499527e+00    1.982015e+02    1.837353e+00    1.024303e+08    1.570036e-08    6.631920e-11    1.493903e-08   -2.397353e+00
    5.578841e+00    2.045119e+02    1.787165e+00    1.012100e+08    1.567853e-08    6.405200e-11    1.491104e-08   -2.392353e+00
    5.660241e+00    2.109927e+02    1.737650e+00    9.998417e+07    1.565620e-08    6.186460e-11    1.488234e-08   -2.387353e+00
    5.743804e+00    2.176491e+02    1.688811e+00    9.875278e+07    1.563333e-08    5.975400e-11    1.485292e-08   -2.382353e+00
    5.829612e+00    2.244865e+02    1.640650e+00    9.751581e+07    1.560991e-08    5.771740e-11    1.482275e-08   -2.377353e+00
    5.917742e+00    2.315103e+02    1.593168e+00    9.627314e+07    1.558593e-08    5.575190e-11    1.479180e-08   -2.372353e+00
    6.008282e+00    2.387263e+02    1.546371e+00    9.502475e+07    1.556135e-08    5.385495e-11    1.476004e-08   -2.367353e+00
    6.101320e+00    2.461406e+02    1.500259e+00    9.377064e+07    1.553615e-08    5.202395e-11    1.472746e-08   -2.362353e+00
    6.196946e+00    2.537592e+02    1.454836e+00    9.251064e+07    1.551030e-08    5.025650e-11    1.469401e-08   -2.357353e+00
    6.295257e+00    2.615886e+02    1.410105e+00    9.124475e+07    1.548378e-08    4.855016e-11    1.465967e-08   -2.352353e+00
    6.396352e+00    2.696351e+02    1.366067e+00    8.997282e+07    1.545657e-08    4.690274e-11    1.462443e-08   -2.347353e+00
    6.500325e+00    2.779054e+02    1.322727e+00    8.869475e+07    1.542864e-08    4.531205e-11    1.458822e-08   -2.342353e+00
    6.607292e+00    2.864068e+02    1.280087e+00    8.741048e+07    1.539996e-08    4.377600e-11    1.455104e-08   -2.337353e+00
    6.717350e+00    2.951457e+02    1.238149e+00    8.611980e+07    1.537050e-08    4.229261e-11    1.451285e-08   -2.332353e+00
    6.830619e+00    3.041296e+02    1.196917e+00    8.482268e+07    1.534023e-08    4.085995e-11    1.447361e-08   -2.327353e+00
    6.947206e+00    3.133658e+02    1.156393e+00    8.351891e+07    1.530915e-08    3.947617e-11    1.443330e-08   -2.322353e+00
    7.067238e+00    3.228619e+02    1.116580e+00    8.220844e+07    1.527719e-08    3.813949e-11    1.439186e-08   -2.317353e+00
    7.190822e+00    3.326248e+02    1.077482e+00    8.089099e+07    1.524435e-08    3.684822e-11    1.434928e-08   -2.312353e+00
    7.318088e+00    3.426625e+02    1.039102e+00    7.956651e+07    1.521057e-08    3.560073e-11    1.430551e-08   -2.307353e+00
    7.449171e+00    3.529826e+02    1.001441e+00    7.823485e+07    1.517585e-08    3.439543e-11    1.426052e-08   -2.302353e+00
    7.584182e+00    3.635923e+02    9.645035e-01    7.689578e+07    1.514015e-08    3.323081e-11    1.421426e-08   -2.297353e+00
    7.723255e+00    3.744992e+02    9.282925e-01    7.554918e+07    1.510343e-08    3.210544e-11    1.416671e-08   -2.292353e+00
    7.866524e+00    3.857105e+02    8.928105e-01    7.419489e+07    1.506566e-08    3.101790e-11    1.411782e-08   -2.287353e+00
    8.014114e+00    3.972331e+02    8.580605e-01    7.283274e+07    1.502682e-08    2.996687e-11    1.406754e-08   -2.282353e+00
    8.166163e+00    4.090741e+02    8.240455e-01    7.146263e+07    1.498685e-08    2.895104e-11    1.401585e-08   -2.277353e+00
    8.322802e+00    4.212400e+02    7.907685e-01    7.008445e+07    1.494574e-08    2.796919e-11    1.396269e-08   -2.272353e+00
    8.484158e+00    4.337366e+02    7.582320e-01    6.869803e+07    1.490345e-08    2.702012e-11    1.390802e-08   -2.267353e+00
    8.650342e+00    4.465687e+02    7.264395e-01    6.730326e+07    1.485993e-08    2.610269e-11    1.385181e-08   -2.262353e+00
    8.821495e+00    4.597419e+02    6.953935e-01    6.590013e+07    1.481517e-08    2.521579e-11    1.379400e-08   -2.257353e+00
    8.997717e+00    4.732591e+02    6.650965e-01    6.448853e+07    1.476912e-08    2.435836e-11    1.373456e-08   -2.252353e+00
    9.179130e+00    4.871239e+02    6.355510e-01    6.306851e+07    1.472175e-08    2.352939e-11    1.367345e-08   -2.247353e+00
    9.365827e+00    5.013368e+02    6.067590e-01    6.164005e+07    1.467302e-08    2.272790e-11    1.361061e-08   -2.242353e+00
    9.557898e+00    5.158991e+02    5.787235e-01    6.020325e+07    1.462291e-08    2.195294e-11    1.354600e-08   -2.237353e+00
    9.755416e+00    5.308088e+02    5.514460e-01    5.875825e+07    1.457136e-08    2.120360e-11    1.347959e-08   -2.232353e+00
    9.958442e+00    5.460628e+02    5.249285e-01    5.730523e+07    1.451836e-08    2.047902e-11    1.341131e-08   -2.227353e+00
    1.016702e+01    5.616554e+02    4.991718e-01    5.584442e+07    1.446385e-08    1.977835e-11    1.334115e-08   -2.222353e+00
    1.038117e+01    5.775796e+02    4.741777e-01    5.437626e+07    1.440782e-08    1.910079e-11    1.326904e-08   -2.217353e+00
    1.060089e+01    5.938251e+02    4.499468e-01    5.290109e+07    1.435023e-08    1.844554e-11    1.319495e-08   -2.212353e+00
    1.082613e+01    6.103788e+02    4.264794e-01    5.141948e+07    1.429104e-08    1.781187e-11    1.311883e-08   -2.207353e+00
    1.105684e+01    6.272238e+02    4.037754e-01    4.993207e+07    1.423022e-08    1.719905e-11    1.304065e-08   -2.202353e+00
    1.129292e+01    6.443412e+02    3.818342e-01    4.843961e+07    1.416775e-08    1.660638e-11    1.296035e-08   -2.197353e+00
    1.153422e+01    6.617076e+02    3.606547e-01    4.694298e+07    1.410358e-08    1.603320e-11    1.287791e-08   -2.192353e+00
    1.178056e+01    6.792944e+02    3.402348e-01    4.544321e+07    1.403770e-08    1.547886e-11    1.279329e-08   -2.187353e+00
    1.203170e+01    6.970706e+02    3.205722e-01    4.394146e+07    1.397007e-08    1.494274e-11    1.270644e-08   -2.182353e+00
    1.228735e+01    7.149988e+02    3.016633e-01    4.243902e+07    1.390067e-08    1.442424e-11    1.261734e-08   -2.177353e+00
    1.254717e+01    7.330391e+02    2.835042e-01    4.093739e+07    1.382947e-08    1.392277e-11    1.252594e-08   -2.172353e+00
    1.281076e+01    7.511443e+02    2.660897e-01    3.943817e+07    1.375645e-08    1.343780e-11    1.243223e-08   -2.167353e+00
    1.307763e+01    7.692637e+02    2.494139e-01    3.794315e+07    1.368159e-08    1.296876e-11    1.233617e-08   -2.162353e+00
    1.334726e+01    7.873406e+02    2.334698e-01    3.645428e+07    1.360487e-08    1.251516e-11    1.223775e-08   -2.157353e+00
    1.361904e+01    8.053144e+02    2.182492e-01    3.497362e+07    1.352629e-08    1.207648e-11    1.213692e-08   -2.152353e+00
    1.389227e+01    8.231189e+02    2.037431e-01    3.350345e+07    1.344581e-08    1.165225e-11    1.203368e-08   -2.147353e+00
    1.416623e+01    8.406844e+02    1.899411e-01    3.204610e+07    1.336343e-08    1.124200e-11    1.192801e-08   -2.142353e+00
    1.444009e+01    8.579362e+02    1.768316e-01    3.060409e+07    1.327916e-08    1.084529e-11    1.181990e-08   -2.137353e+00
    1.471297e+01    8.747975e+02    1.644019e-01    2.917998e+07    1.319296e-08    1.046167e-11    1.170934e-08   -2.132353e+00
    1.498392e+01    8.911884e+02    1.526383e-01    2.777642e+07    1.310487e-08    1.009074e-11    1.159632e-08   -2.127353e+00
    1.525194e+01    9.070274e+02    1.415255e-01    2.639612e+07    1.301486e-08    9.732075e-12    1.148084e-08   -2.122353e+00
    1.551598e+01    9.222331e+02    1.310473e-01    2.504180e+07    1.292296e-08    9.385300e-12    1.136292e-08   -2.117353e+00
    1.577497e+01    9.367245e+02    1.211862e-01    2.371612e+07    1.282917e-08    9.050040e-12    1.124255e-08   -2.112353e+00
    1.602780e+01    9.504225e+02    1.119239e-01    2.242173e+07    1.273350e-08    8.725925e-12    1.111976e-08   -2.107353e+00
    1.627337e+01    9.632521e+02    1.032407e-01    2.116115e+07    1.263598e-08    8.412600e-12    1.099456e-08   -2.102353e+00
    1.651056e+01    9.751436e+02    9.511620e-02    1.993681e+07    1.253662e-08    8.109730e-12    1.086699e-08   -2.097353e+00
    1.673830e+01    9.860328e+02    8.752925e-02    1.875091e+07    1.243547e-08    7.816985e-12    1.073706e-08   -2.092353e+00
    1.695556e+01    9.958646e+02    8.045785e-02    1.760549e+07    1.233255e-08    7.534050e-12    1.060482e-08   -2.087353e+00
    1.716136e+01    1.004592e+03    7.387960e-02    1.650232e+07    1.222789e-08    7.260610e-12    1.047031e-08   -2.082353e+00
    1.735485e+01    1.012181e+03    6.777140e-02    1.544293e+07    1.212154e-08    6.996370e-12    1.033359e-08   -2.077353e+00
