# sky130 pfet_01v8 gm/ID Processed Lookup Table
# Corner: ff
# Temperature: 0C
# W = 2.0 um
# L = 3.24 um (3240 nm)
# Columns: gm/id [1/V]  gm/gds [V/V]  id/W [A/m]  ft [Hz]  Cgg/W [F/m]  Cgd/W [F/m]  Cgs/W [F/m]  Vov [V]
#         gm/id          gm/gds            id/W              ft           Cgg/W           Cgd/W           Cgs/W             Vov
    2.135379e+00    5.428739e+00    6.840845e+00    1.111885e+08    2.090958e-08    1.748933e-09    1.918633e-08   -2.834227e+00
    2.158325e+00    5.638728e+00    6.767805e+00    1.113944e+08    2.086995e-08    1.696383e-09    1.918849e-08   -2.829227e+00
    2.181536e+00    5.861264e+00    6.694775e+00    1.115865e+08    2.083084e-08    1.644841e-09    1.919021e-08   -2.824227e+00
    2.205012e+00    6.097213e+00    6.621760e+00    1.117643e+08    2.079226e-08    1.594321e-09    1.919149e-08   -2.819227e+00
    2.228744e+00    6.347495e+00    6.548770e+00    1.119267e+08    2.075422e-08    1.544840e-09    1.919234e-08   -2.814227e+00
    2.252732e+00    6.613089e+00    6.475805e+00    1.120734e+08    2.071673e-08    1.496410e-09    1.919276e-08   -2.809227e+00
    2.276963e+00    6.895032e+00    6.402890e+00    1.122034e+08    2.067980e-08    1.449041e-09    1.919275e-08   -2.804227e+00
    2.301436e+00    7.194418e+00    6.330020e+00    1.123161e+08    2.064344e-08    1.402741e-09    1.919231e-08   -2.799227e+00
    2.326141e+00    7.512405e+00    6.257210e+00    1.124109e+08    2.060765e-08    1.357517e-09    1.919145e-08   -2.794227e+00
    2.351072e+00    7.850218e+00    6.184470e+00    1.124871e+08    2.057245e-08    1.313373e-09    1.919015e-08   -2.789227e+00
    2.376223e+00    8.209139e+00    6.111810e+00    1.125441e+08    2.053783e-08    1.270311e-09    1.918843e-08   -2.784227e+00
    2.401584e+00    8.590509e+00    6.039245e+00    1.125813e+08    2.050381e-08    1.228331e-09    1.918630e-08   -2.779227e+00
    2.427151e+00    8.995735e+00    5.966780e+00    1.125982e+08    2.047037e-08    1.187433e-09    1.918375e-08   -2.774227e+00
    2.452917e+00    9.426285e+00    5.894425e+00    1.125943e+08    2.043752e-08    1.147612e-09    1.918079e-08   -2.769227e+00
    2.478875e+00    9.883683e+00    5.822195e+00    1.125691e+08    2.040526e-08    1.108863e-09    1.917743e-08   -2.764227e+00
    2.505018e+00    1.036951e+01    5.750105e+00    1.125224e+08    2.037360e-08    1.071179e-09    1.917365e-08   -2.759227e+00
    2.531343e+00    1.088540e+01    5.678160e+00    1.124538e+08    2.034250e-08    1.034551e-09    1.916949e-08   -2.754227e+00
    2.557844e+00    1.143303e+01    5.606375e+00    1.123631e+08    2.031200e-08    9.989705e-10    1.916493e-08   -2.749227e+00
    2.584519e+00    1.201413e+01    5.534760e+00    1.122501e+08    2.028206e-08    9.644245e-10    1.916000e-08   -2.744227e+00
    2.611363e+00    1.263047e+01    5.463330e+00    1.121146e+08    2.025270e-08    9.309005e-10    1.915467e-08   -2.739227e+00
    2.638375e+00    1.328386e+01    5.392100e+00    1.119567e+08    2.022388e-08    8.983850e-10    1.914897e-08   -2.734227e+00
    2.665557e+00    1.397610e+01    5.321070e+00    1.117763e+08    2.019562e-08    8.668620e-10    1.914290e-08   -2.729227e+00
    2.692904e+00    1.470908e+01    5.250265e+00    1.115737e+08    2.016790e-08    8.363165e-10    1.913646e-08   -2.724227e+00
    2.720421e+00    1.548465e+01    5.179690e+00    1.113488e+08    2.014071e-08    8.067305e-10    1.912968e-08   -2.719227e+00
    2.748110e+00    1.630472e+01    5.109360e+00    1.111020e+08    2.011403e-08    7.780865e-10    1.912253e-08   -2.714227e+00
    2.775975e+00    1.717115e+01    5.039285e+00    1.108335e+08    2.008786e-08    7.503665e-10    1.911503e-08   -2.709227e+00
    2.804023e+00    1.808585e+01    4.969475e+00    1.105437e+08    2.006219e-08    7.235505e-10    1.910719e-08   -2.704227e+00
    2.832256e+00    1.905068e+01    4.899943e+00    1.102329e+08    2.003699e-08    6.976190e-10    1.909901e-08   -2.699227e+00
    2.860685e+00    2.006754e+01    4.830699e+00    1.099016e+08    2.001227e-08    6.725520e-10    1.909050e-08   -2.694227e+00
    2.889318e+00    2.113829e+01    4.761755e+00    1.095503e+08    1.998799e-08    6.483285e-10    1.908166e-08   -2.689227e+00
    2.918163e+00    2.226473e+01    4.693121e+00    1.091793e+08    1.996416e-08    6.249285e-10    1.907249e-08   -2.684227e+00
    2.947231e+00    2.344869e+01    4.624806e+00    1.087894e+08    1.994075e-08    6.023305e-10    1.906301e-08   -2.679227e+00
    2.976533e+00    2.469195e+01    4.556820e+00    1.083809e+08    1.991774e-08    5.805135e-10    1.905320e-08   -2.674227e+00
    3.006082e+00    2.599626e+01    4.489174e+00    1.079545e+08    1.989513e-08    5.594565e-10    1.904309e-08   -2.669227e+00
    3.035892e+00    2.736330e+01    4.421875e+00    1.075107e+08    1.987290e-08    5.391380e-10    1.903266e-08   -2.664227e+00
    3.065975e+00    2.879479e+01    4.354933e+00    1.070501e+08    1.985103e-08    5.195370e-10    1.902193e-08   -2.659227e+00
    3.096346e+00    3.029235e+01    4.288356e+00    1.065734e+08    1.982950e-08    5.006325e-10    1.901089e-08   -2.654227e+00
    3.127020e+00    3.185759e+01    4.222154e+00    1.060810e+08    1.980830e-08    4.824033e-10    1.899955e-08   -2.649227e+00
    3.158013e+00    3.349207e+01    4.156332e+00    1.055735e+08    1.978742e-08    4.648293e-10    1.898791e-08   -2.644227e+00
    3.189343e+00    3.519735e+01    4.090898e+00    1.050516e+08    1.976684e-08    4.478898e-10    1.897597e-08   -2.639227e+00
    3.221023e+00    3.697490e+01    4.025861e+00    1.045158e+08    1.974652e-08    4.315647e-10    1.896373e-08   -2.634227e+00
    3.253072e+00    3.882618e+01    3.961227e+00    1.039666e+08    1.972648e-08    4.158342e-10    1.895120e-08   -2.629227e+00
    3.285508e+00    4.075266e+01    3.897002e+00    1.034045e+08    1.970669e-08    4.006788e-10    1.893837e-08   -2.624227e+00
    3.318349e+00    4.275574e+01    3.833193e+00    1.028302e+08    1.968712e-08    3.860794e-10    1.892525e-08   -2.619227e+00
    3.351612e+00    4.483679e+01    3.769805e+00    1.022439e+08    1.966777e-08    3.720172e-10    1.891183e-08   -2.614227e+00
    3.385318e+00    4.699721e+01    3.706845e+00    1.016464e+08    1.964862e-08    3.584741e-10    1.889811e-08   -2.609227e+00
    3.419485e+00    4.923834e+01    3.644318e+00    1.010379e+08    1.962966e-08    3.454320e-10    1.888409e-08   -2.604227e+00
    3.454131e+00    5.156153e+01    3.582230e+00    1.004190e+08    1.961085e-08    3.328735e-10    1.886978e-08   -2.599227e+00
    3.489278e+00    5.396812e+01    3.520585e+00    9.979012e+07    1.959219e-08    3.207814e-10    1.885516e-08   -2.594227e+00
    3.524945e+00    5.645947e+01    3.459389e+00    9.915157e+07    1.957367e-08    3.091394e-10    1.884024e-08   -2.589227e+00
    3.561156e+00    5.903693e+01    3.398645e+00    9.850388e+07    1.955526e-08    2.979311e-10    1.882501e-08   -2.584227e+00
    3.597928e+00    6.170183e+01    3.338359e+00    9.784728e+07    1.953696e-08    2.871409e-10    1.880947e-08   -2.579227e+00
    3.635284e+00    6.445555e+01    3.278535e+00    9.718220e+07    1.951873e-08    2.767537e-10    1.879362e-08   -2.574227e+00
    3.673247e+00    6.729949e+01    3.219176e+00    9.650896e+07    1.950058e-08    2.667545e-10    1.877744e-08   -2.569227e+00
    3.711840e+00    7.023508e+01    3.160288e+00    9.582788e+07    1.948247e-08    2.571291e-10    1.876094e-08   -2.564227e+00
    3.751084e+00    7.326374e+01    3.101873e+00    9.513931e+07    1.946440e-08    2.478636e-10    1.874412e-08   -2.559227e+00
    3.791006e+00    7.638701e+01    3.043935e+00    9.444348e+07    1.944635e-08    2.389446e-10    1.872695e-08   -2.554227e+00
    3.831627e+00    7.960635e+01    2.986478e+00    9.374066e+07    1.942830e-08    2.303592e-10    1.870946e-08   -2.549227e+00
    3.872973e+00    8.292337e+01    2.929506e+00    9.303109e+07    1.941024e-08    2.220946e-10    1.869160e-08   -2.544227e+00
    3.915072e+00    8.633972e+01    2.873020e+00    9.231511e+07    1.939214e-08    2.141389e-10    1.867340e-08   -2.539227e+00
    3.957946e+00    8.985703e+01    2.817026e+00    9.159283e+07    1.937400e-08    2.064803e-10    1.865483e-08   -2.534227e+00
    4.001627e+00    9.347709e+01    2.761525e+00    9.086455e+07    1.935580e-08    1.991074e-10    1.863590e-08   -2.529227e+00
    4.046138e+00    9.720164e+01    2.706521e+00    9.013041e+07    1.933752e-08    1.920094e-10    1.861658e-08   -2.524227e+00
    4.091512e+00    1.010327e+02    2.652016e+00    8.939069e+07    1.931914e-08    1.851757e-10    1.859687e-08   -2.519227e+00
    4.137776e+00    1.049721e+02    2.598014e+00    8.864549e+07    1.930065e-08    1.785963e-10    1.857676e-08   -2.514227e+00
    4.184961e+00    1.090220e+02    2.544517e+00    8.789500e+07    1.928203e-08    1.722613e-10    1.855626e-08   -2.509227e+00
    4.233101e+00    1.131845e+02    2.491528e+00    8.713942e+07    1.926327e-08    1.661614e-10    1.853532e-08   -2.504227e+00
    4.282226e+00    1.174618e+02    2.439049e+00    8.637884e+07    1.924434e-08    1.602875e-10    1.851396e-08   -2.499227e+00
    4.332373e+00    1.218563e+02    2.387083e+00    8.561347e+07    1.922523e-08    1.546307e-10    1.849215e-08   -2.494227e+00
    4.383573e+00    1.263703e+02    2.335633e+00    8.484336e+07    1.920592e-08    1.491830e-10    1.846987e-08   -2.489227e+00
    4.435866e+00    1.310065e+02    2.284699e+00    8.406870e+07    1.918639e-08    1.439360e-10    1.844714e-08   -2.484227e+00
    4.489287e+00    1.357675e+02    2.234287e+00    8.328958e+07    1.916663e-08    1.388821e-10    1.842392e-08   -2.479227e+00
    4.543874e+00    1.406560e+02    2.184397e+00    8.250609e+07    1.914661e-08    1.340138e-10    1.840020e-08   -2.474227e+00
    4.599672e+00    1.456751e+02    2.135031e+00    8.171836e+07    1.912633e-08    1.293239e-10    1.837597e-08   -2.469227e+00
    4.656719e+00    1.508276e+02    2.086193e+00    8.092644e+07    1.910576e-08    1.248055e-10    1.835120e-08   -2.464227e+00
    4.715060e+00    1.561169e+02    2.037884e+00    8.013045e+07    1.908487e-08    1.204521e-10    1.832589e-08   -2.459227e+00
    4.774739e+00    1.615463e+02    1.990107e+00    7.933046e+07    1.906366e-08    1.162572e-10    1.830001e-08   -2.454227e+00
    4.835803e+00    1.671189e+02    1.942863e+00    7.852647e+07    1.904209e-08    1.122148e-10    1.827356e-08   -2.449227e+00
    4.898302e+00    1.728387e+02    1.896154e+00    7.771863e+07    1.902016e-08    1.083189e-10    1.824650e-08   -2.444227e+00
    4.962286e+00    1.787094e+02    1.849984e+00    7.690697e+07    1.899784e-08    1.045639e-10    1.821881e-08   -2.439227e+00
    5.027806e+00    1.847348e+02    1.804353e+00    7.609149e+07    1.897510e-08    1.009444e-10    1.819049e-08   -2.434227e+00
    5.094917e+00    1.909191e+02    1.759265e+00    7.527225e+07    1.895194e-08    9.745515e-11    1.816151e-08   -2.429227e+00
    5.163680e+00    1.972666e+02    1.714721e+00    7.444935e+07    1.892832e-08    9.409125e-11    1.813184e-08   -2.424227e+00
    5.234147e+00    2.037816e+02    1.670723e+00    7.362272e+07    1.890422e-08    9.084790e-11    1.810146e-08   -2.419227e+00
    5.306382e+00    2.104688e+02    1.627274e+00    7.279241e+07    1.887962e-08    8.772040e-11    1.807035e-08   -2.414227e+00
    5.380448e+00    2.173330e+02    1.584375e+00    7.195842e+07    1.885449e-08    8.470445e-11    1.803849e-08   -2.409227e+00
    5.456415e+00    2.243794e+02    1.542028e+00    7.112081e+07    1.882882e-08    8.179570e-11    1.800584e-08   -2.404227e+00
    5.534348e+00    2.316129e+02    1.500236e+00    7.027950e+07    1.880257e-08    7.899015e-11    1.797239e-08   -2.399227e+00
    5.614318e+00    2.390391e+02    1.459000e+00    6.943455e+07    1.877573e-08    7.628390e-11    1.793809e-08   -2.394227e+00
    5.696401e+00    2.466635e+02    1.418324e+00    6.858593e+07    1.874826e-08    7.367310e-11    1.790294e-08   -2.389227e+00
    5.780672e+00    2.544919e+02    1.378208e+00    6.773357e+07    1.872014e-08    7.115425e-11    1.786689e-08   -2.384227e+00
    5.867212e+00    2.625304e+02    1.338654e+00    6.687749e+07    1.869134e-08    6.872385e-11    1.782992e-08   -2.379227e+00
    5.956105e+00    2.707852e+02    1.299667e+00    6.601763e+07    1.866184e-08    6.637855e-11    1.779199e-08   -2.374227e+00
    6.047435e+00    2.792625e+02    1.261246e+00    6.515396e+07    1.863160e-08    6.411525e-11    1.775309e-08   -2.369227e+00
    6.141292e+00    2.879692e+02    1.223394e+00    6.428643e+07    1.860060e-08    6.193080e-11    1.771316e-08   -2.364227e+00
    6.237769e+00    2.969120e+02    1.186114e+00    6.341498e+07    1.856881e-08    5.982230e-11    1.767218e-08   -2.359227e+00
    6.336953e+00    3.060976e+02    1.149408e+00    6.253952e+07    1.853619e-08    5.778695e-11    1.763011e-08   -2.354227e+00
    6.438956e+00    3.155336e+02    1.113277e+00    6.166002e+07    1.850271e-08    5.582200e-11    1.758691e-08   -2.349227e+00
    6.543873e+00    3.252271e+02    1.077725e+00    6.077638e+07    1.846835e-08    5.392490e-11    1.754256e-08   -2.344227e+00
    6.651807e+00    3.351858e+02    1.042754e+00    5.988854e+07    1.843307e-08    5.209310e-11    1.749699e-08   -2.339227e+00
    6.762870e+00    3.454169e+02    1.008364e+00    5.899637e+07    1.839684e-08    5.032425e-11    1.745020e-08   -2.334227e+00
    6.877179e+00    3.559288e+02    9.745595e-01    5.809986e+07    1.835962e-08    4.861601e-11    1.740212e-08   -2.329227e+00
    6.994835e+00    3.667288e+02    9.413425e-01    5.719882e+07    1.832138e-08    4.696620e-11    1.735273e-08   -2.324227e+00
    7.115966e+00    3.778253e+02    9.087150e-01    5.629322e+07    1.828208e-08    4.537269e-11    1.730198e-08   -2.319227e+00
    7.240685e+00    3.892256e+02    8.766795e-01    5.538288e+07    1.824169e-08    4.383343e-11    1.724981e-08   -2.314227e+00
    7.369121e+00    4.009383e+02    8.452385e-01    5.446778e+07    1.820017e-08    4.234646e-11    1.719619e-08   -2.309227e+00
    7.501398e+00    4.129708e+02    8.143935e-01    5.354772e+07    1.815749e-08    4.090991e-11    1.714109e-08   -2.304227e+00
    7.637640e+00    4.253311e+02    7.841480e-01    5.262266e+07    1.811359e-08    3.952196e-11    1.708444e-08   -2.299227e+00
    7.777977e+00    4.380267e+02    7.545040e-01    5.169248e+07    1.806845e-08    3.818088e-11    1.702620e-08   -2.294227e+00
    7.922530e+00    4.510644e+02    7.254640e-01    5.075701e+07    1.802204e-08    3.688500e-11    1.696633e-08   -2.289227e+00
    8.071439e+00    4.644518e+02    6.970300e-01    4.981621e+07    1.797430e-08    3.563271e-11    1.690477e-08   -2.284227e+00
    8.224833e+00    4.781953e+02    6.692045e-01    4.886999e+07    1.792519e-08    3.442247e-11    1.684148e-08   -2.279227e+00
    8.382840e+00    4.923008e+02    6.419895e-01    4.791825e+07    1.787468e-08    3.325280e-11    1.677640e-08   -2.274227e+00
    8.545576e+00    5.067733e+02    6.153880e-01    4.696089e+07    1.782273e-08    3.212227e-11    1.670949e-08   -2.269227e+00
    8.713170e+00    5.216179e+02    5.894020e-01    4.599789e+07    1.776929e-08    3.102951e-11    1.664070e-08   -2.264227e+00
    8.885748e+00    5.368377e+02    5.640330e-01    4.502918e+07    1.771433e-08    2.997320e-11    1.656997e-08   -2.259227e+00
    9.063395e+00    5.524341e+02    5.392840e-01    4.405470e+07    1.765779e-08    2.895208e-11    1.649724e-08   -2.254227e+00
    9.246234e+00    5.684095e+02    5.151565e-01    4.307452e+07    1.759964e-08    2.796493e-11    1.642248e-08   -2.249227e+00
    9.434361e+00    5.847627e+02    4.916520e-01    4.208863e+07    1.753984e-08    2.701057e-11    1.634562e-08   -2.244227e+00
    9.627847e+00    6.014912e+02    4.687727e-01    4.109711e+07    1.747835e-08    2.608788e-11    1.626662e-08   -2.239227e+00
    9.826766e+00    6.185910e+02    4.465197e-01    4.010006e+07    1.741512e-08    2.519577e-11    1.618541e-08   -2.234227e+00
    1.003116e+01    6.360548e+02    4.248946e-01    3.909764e+07    1.735011e-08    2.433319e-11    1.610195e-08   -2.229227e+00
    1.024108e+01    6.538746e+02    4.038982e-01    3.809004e+07    1.728328e-08    2.349915e-11    1.601620e-08   -2.224227e+00
    1.045651e+01    6.720372e+02    3.835312e-01    3.707755e+07    1.721459e-08    2.269267e-11    1.592808e-08   -2.219227e+00
    1.067745e+01    6.905276e+02    3.637943e-01    3.606045e+07    1.714401e-08    2.191282e-11    1.583756e-08   -2.214227e+00
    1.090384e+01    7.093276e+02    3.446873e-01    3.503915e+07    1.707149e-08    2.115870e-11    1.574458e-08   -2.209227e+00
    1.113561e+01    7.284142e+02    3.262100e-01    3.401413e+07    1.699699e-08    2.042947e-11    1.564911e-08   -2.204227e+00
    1.137264e+01    7.477607e+02    3.083615e-01    3.298594e+07    1.692047e-08    1.972427e-11    1.555108e-08   -2.199227e+00
    1.161476e+01    7.673360e+02    2.911406e-01    3.195521e+07    1.684192e-08    1.904232e-11    1.545045e-08   -2.194227e+00
    1.186178e+01    7.871044e+02    2.745455e-01    3.092269e+07    1.676128e-08    1.838283e-11    1.534719e-08   -2.189227e+00
    1.211344e+01    8.070250e+02    2.585737e-01    2.988919e+07    1.667853e-08    1.774506e-11    1.524123e-08   -2.184227e+00
    1.236942e+01    8.270517e+02    2.432222e-01    2.885569e+07    1.659362e-08    1.712831e-11    1.513255e-08   -2.179227e+00
    1.262937e+01    8.471331e+02    2.284871e-01    2.782319e+07    1.650656e-08    1.653187e-11    1.502112e-08   -2.174227e+00
    1.289285e+01    8.672122e+02    2.143641e-01    2.679287e+07    1.641729e-08    1.595508e-11    1.490688e-08   -2.169227e+00
    1.315936e+01    8.872268e+02    2.008476e-01    2.576599e+07    1.632581e-08    1.539731e-11    1.478982e-08   -2.164227e+00
    1.342836e+01    9.071093e+02    1.879316e-01    2.474392e+07    1.623208e-08    1.485792e-11    1.466991e-08   -2.159227e+00
    1.369920e+01    9.267865e+02    1.756090e-01    2.372812e+07    1.613611e-08    1.433633e-11    1.454711e-08   -2.154227e+00
    1.397119e+01    9.461809e+02    1.638718e-01    2.272016e+07    1.603785e-08    1.383196e-11    1.442141e-08   -2.149227e+00
    1.424355e+01    9.652106e+02    1.527110e-01    2.172169e+07    1.593732e-08    1.334425e-11    1.429279e-08   -2.144227e+00
    1.451547e+01    9.837900e+02    1.421168e-01    2.073445e+07    1.583449e-08    1.287267e-11    1.416124e-08   -2.139227e+00
    1.478602e+01    1.001831e+03    1.320783e-01    1.976020e+07    1.572937e-08    1.241669e-11    1.402676e-08   -2.134227e+00
    1.505426e+01    1.019243e+03    1.225835e-01    1.880079e+07    1.562197e-08    1.197583e-11    1.388933e-08   -2.129227e+00
    1.531918e+01    1.035937e+03    1.136198e-01    1.785806e+07    1.551227e-08    1.154959e-11    1.374896e-08   -2.124227e+00
    1.557973e+01    1.051821e+03    1.051732e-01    1.693385e+07    1.540032e-08    1.113751e-11    1.360567e-08   -2.119227e+00
    1.583484e+01    1.066809e+03    9.722905e-02    1.603000e+07    1.528609e-08    1.073914e-11    1.345946e-08   -2.114227e+00
    1.608340e+01    1.080817e+03    8.977180e-02    1.514827e+07    1.516963e-08    1.035405e-11    1.331035e-08   -2.109227e+00
    1.632433e+01    1.093767e+03    8.278510e-02    1.429037e+07    1.505096e-08    9.981810e-12    1.315838e-08   -2.104227e+00
    1.655653e+01    1.105587e+03    7.625190e-02    1.345789e+07    1.493010e-08    9.622020e-12    1.300358e-08   -2.099227e+00
    1.677896e+01    1.116214e+03    7.015445e-02    1.265232e+07    1.480711e-08    9.274285e-12    1.284599e-08   -2.094227e+00
    1.699062e+01    1.125598e+03    6.447455e-02    1.187496e+07    1.468202e-08    8.938230e-12    1.268566e-08   -2.089227e+00
    1.719059e+01    1.133697e+03    5.919355e-02    1.112697e+07    1.455487e-08    8.613480e-12    1.252263e-08   -2.084227e+00
    1.737801e+01    1.140481e+03    5.429250e-02    1.040933e+07    1.442571e-08    8.299680e-12    1.235699e-08   -2.079227e+00
