# sky130 pfet_01v8 gm/ID Processed Lookup Table
# Corner: ff
# Temperature: 0C
# W = 2.0 um
# L = 4.68 um (4680 nm)
# Columns: gm/id [1/V]  gm/gds [V/V]  id/W [A/m]  ft [Hz]  Cgg/W [F/m]  Cgd/W [F/m]  Cgs/W [F/m]  Vov [V]
#         gm/id          gm/gds            id/W              ft           Cgg/W           Cgd/W           Cgs/W             Vov
    2.168302e+00    5.952627e+00    4.658619e+00    5.325836e+07    3.018626e-08    2.629990e-09    2.776289e-08   -2.837608e+00
    2.191554e+00    6.198428e+00    4.608118e+00    5.335181e+07    3.012637e-08    2.551141e-09    2.776604e-08   -2.832608e+00
    2.215062e+00    6.459774e+00    4.557632e+00    5.343821e+07    3.006722e-08    2.473749e-09    2.776857e-08   -2.827608e+00
    2.238819e+00    6.737799e+00    4.507166e+00    5.351723e+07    3.000883e-08    2.397844e-09    2.777046e-08   -2.822608e+00
    2.262820e+00    7.033714e+00    4.456726e+00    5.358848e+07    2.995123e-08    2.323452e-09    2.777173e-08   -2.817608e+00
    2.287058e+00    7.348822e+00    4.406320e+00    5.365164e+07    2.989444e-08    2.250595e-09    2.777236e-08   -2.812608e+00
    2.311526e+00    7.684508e+00    4.355953e+00    5.370636e+07    2.983846e-08    2.179296e-09    2.777237e-08   -2.807608e+00
    2.336216e+00    8.042238e+00    4.305633e+00    5.375229e+07    2.978333e-08    2.109567e-09    2.777175e-08   -2.802608e+00
    2.361122e+00    8.423587e+00    4.255367e+00    5.378914e+07    2.972904e-08    2.041424e-09    2.777050e-08   -2.797608e+00
    2.386236e+00    8.830210e+00    4.205161e+00    5.381659e+07    2.967563e-08    1.974877e-09    2.776863e-08   -2.792608e+00
    2.411548e+00    9.263859e+00    4.155024e+00    5.383435e+07    2.962308e-08    1.909931e-09    2.776615e-08   -2.787608e+00
    2.437055e+00    9.726399e+00    4.104964e+00    5.384219e+07    2.957141e-08    1.846592e-09    2.776305e-08   -2.782608e+00
    2.462746e+00    1.021978e+01    4.054987e+00    5.383983e+07    2.952061e-08    1.784859e-09    2.775934e-08   -2.777608e+00
    2.488617e+00    1.074606e+01    4.005102e+00    5.382712e+07    2.947071e-08    1.724732e-09    2.775502e-08   -2.772608e+00
    2.514660e+00    1.130737e+01    3.955318e+00    5.380382e+07    2.942170e-08    1.666204e-09    2.775011e-08   -2.767608e+00
    2.540872e+00    1.190599e+01    3.905642e+00    5.376984e+07    2.937356e-08    1.609268e-09    2.774461e-08   -2.762608e+00
    2.567246e+00    1.254425e+01    3.856083e+00    5.372503e+07    2.932631e-08    1.553915e-09    2.773852e-08   -2.757608e+00
    2.593780e+00    1.322460e+01    3.806650e+00    5.366932e+07    2.927993e-08    1.500131e-09    2.773186e-08   -2.752608e+00
    2.620471e+00    1.394955e+01    3.757350e+00    5.360269e+07    2.923442e-08    1.447901e-09    2.772463e-08   -2.747608e+00
    2.647316e+00    1.472172e+01    3.708192e+00    5.352510e+07    2.918976e-08    1.397208e-09    2.771683e-08   -2.742608e+00
    2.674314e+00    1.554383e+01    3.659185e+00    5.343657e+07    2.914596e-08    1.348034e-09    2.770849e-08   -2.737608e+00
    2.701468e+00    1.641861e+01    3.610337e+00    5.333718e+07    2.910300e-08    1.300356e-09    2.769959e-08   -2.732608e+00
    2.728778e+00    1.734892e+01    3.561656e+00    5.322701e+07    2.906085e-08    1.254154e-09    2.769016e-08   -2.727608e+00
    2.756249e+00    1.833767e+01    3.513150e+00    5.310618e+07    2.901951e-08    1.209401e-09    2.768019e-08   -2.722608e+00
    2.783884e+00    1.938781e+01    3.464827e+00    5.297486e+07    2.897897e-08    1.166073e-09    2.766971e-08   -2.717608e+00
    2.811687e+00    2.050234e+01    3.416696e+00    5.283320e+07    2.893920e-08    1.124143e-09    2.765870e-08   -2.712608e+00
    2.839667e+00    2.168430e+01    3.368763e+00    5.268140e+07    2.890019e-08    1.083583e-09    2.764719e-08   -2.707608e+00
    2.867832e+00    2.293679e+01    3.321036e+00    5.251971e+07    2.886192e-08    1.044363e-09    2.763518e-08   -2.702608e+00
    2.896190e+00    2.426290e+01    3.273524e+00    5.234835e+07    2.882436e-08    1.006454e-09    2.762267e-08   -2.697608e+00
    2.924750e+00    2.566575e+01    3.226232e+00    5.216756e+07    2.878750e-08    9.698275e-10    2.760968e-08   -2.692608e+00
    2.953526e+00    2.714849e+01    3.179167e+00    5.197764e+07    2.875131e-08    9.344500e-10    2.759620e-08   -2.687608e+00
    2.982526e+00    2.871423e+01    3.132336e+00    5.177883e+07    2.871578e-08    9.002910e-10    2.758226e-08   -2.682608e+00
    3.011768e+00    3.036615e+01    3.085746e+00    5.157145e+07    2.868088e-08    8.673195e-10    2.756784e-08   -2.677608e+00
    3.041261e+00    3.210733e+01    3.039403e+00    5.135577e+07    2.864658e-08    8.355030e-10    2.755296e-08   -2.672608e+00
    3.071020e+00    3.394091e+01    2.993312e+00    5.113207e+07    2.861286e-08    8.048100e-10    2.753761e-08   -2.667608e+00
    3.101062e+00    3.586999e+01    2.947479e+00    5.090067e+07    2.857971e-08    7.752090e-10    2.752182e-08   -2.662608e+00
    3.131401e+00    3.789764e+01    2.901911e+00    5.066184e+07    2.854709e-08    7.466670e-10    2.750557e-08   -2.657608e+00
    3.162053e+00    4.002689e+01    2.856610e+00    5.041587e+07    2.851498e-08    7.191540e-10    2.748887e-08   -2.652608e+00
    3.193036e+00    4.226078e+01    2.811584e+00    5.016304e+07    2.848336e-08    6.926375e-10    2.747174e-08   -2.647608e+00
    3.224366e+00    4.460230e+01    2.766837e+00    4.990364e+07    2.845219e-08    6.670870e-10    2.745415e-08   -2.642608e+00
    3.256060e+00    4.705441e+01    2.722373e+00    4.963794e+07    2.842146e-08    6.424720e-10    2.743613e-08   -2.637608e+00
    3.288136e+00    4.962000e+01    2.678197e+00    4.936617e+07    2.839115e-08    6.187620e-10    2.741767e-08   -2.632608e+00
    3.320613e+00    5.230201e+01    2.634312e+00    4.908861e+07    2.836122e-08    5.959275e-10    2.739877e-08   -2.627608e+00
    3.353509e+00    5.510326e+01    2.590723e+00    4.880550e+07    2.833164e-08    5.739390e-10    2.737942e-08   -2.622608e+00
    3.386843e+00    5.802664e+01    2.547433e+00    4.851708e+07    2.830240e-08    5.527685e-10    2.735965e-08   -2.617608e+00
    3.420635e+00    6.107489e+01    2.504446e+00    4.822357e+07    2.827347e-08    5.323880e-10    2.733943e-08   -2.612608e+00
    3.454904e+00    6.425088e+01    2.461766e+00    4.792521e+07    2.824483e-08    5.127695e-10    2.731876e-08   -2.607608e+00
    3.489671e+00    6.755729e+01    2.419395e+00    4.762218e+07    2.821644e-08    4.938869e-10    2.729765e-08   -2.602608e+00
    3.524953e+00    7.099687e+01    2.377338e+00    4.731466e+07    2.818829e-08    4.757137e-10    2.727609e-08   -2.597608e+00
    3.560776e+00    7.457238e+01    2.335597e+00    4.700289e+07    2.816035e-08    4.582246e-10    2.725408e-08   -2.592608e+00
    3.597156e+00    7.828649e+01    2.294174e+00    4.668701e+07    2.813259e-08    4.413950e-10    2.723161e-08   -2.587608e+00
    3.634117e+00    8.214199e+01    2.253073e+00    4.636720e+07    2.810499e-08    4.252008e-10    2.720868e-08   -2.582608e+00
    3.671683e+00    8.614153e+01    2.212295e+00    4.604364e+07    2.807752e-08    4.096186e-10    2.718528e-08   -2.577608e+00
    3.709872e+00    9.028785e+01    2.171845e+00    4.571644e+07    2.805016e-08    3.946258e-10    2.716141e-08   -2.572608e+00
    3.748708e+00    9.458368e+01    2.131724e+00    4.538578e+07    2.802289e-08    3.802006e-10    2.713706e-08   -2.567608e+00
    3.788218e+00    9.903176e+01    2.091934e+00    4.505179e+07    2.799568e-08    3.663215e-10    2.711221e-08   -2.562608e+00
    3.828423e+00    1.036349e+02    2.052477e+00    4.471459e+07    2.796850e-08    3.529681e-10    2.708687e-08   -2.557608e+00
    3.869350e+00    1.083960e+02    2.013356e+00    4.437433e+07    2.794133e-08    3.401203e-10    2.706102e-08   -2.552608e+00
    3.911023e+00    1.133178e+02    1.974574e+00    4.403111e+07    2.791415e-08    3.277591e-10    2.703464e-08   -2.547608e+00
    3.953467e+00    1.184031e+02    1.936131e+00    4.368501e+07    2.788692e-08    3.158658e-10    2.700775e-08   -2.542608e+00
    3.996710e+00    1.236550e+02    1.898030e+00    4.333616e+07    2.785963e-08    3.044223e-10    2.698031e-08   -2.537608e+00
    4.040778e+00    1.290765e+02    1.860273e+00    4.298465e+07    2.783226e-08    2.934116e-10    2.695232e-08   -2.532608e+00
    4.085703e+00    1.346706e+02    1.822862e+00    4.263059e+07    2.780477e-08    2.828168e-10    2.692376e-08   -2.527608e+00
    4.131511e+00    1.404406e+02    1.785797e+00    4.227404e+07    2.777713e-08    2.726218e-10    2.689462e-08   -2.522608e+00
    4.178236e+00    1.463896e+02    1.749081e+00    4.191510e+07    2.774934e-08    2.628111e-10    2.686488e-08   -2.517608e+00
    4.225904e+00    1.525209e+02    1.712717e+00    4.155382e+07    2.772135e-08    2.533697e-10    2.683455e-08   -2.512608e+00
    4.274553e+00    1.588381e+02    1.676704e+00    4.119031e+07    2.769314e-08    2.442834e-10    2.680357e-08   -2.507608e+00
    4.324210e+00    1.653445e+02    1.641045e+00    4.082458e+07    2.766469e-08    2.355382e-10    2.677196e-08   -2.502608e+00
    4.374914e+00    1.720439e+02    1.605743e+00    4.045673e+07    2.763597e-08    2.271208e-10    2.673968e-08   -2.497608e+00
    4.426700e+00    1.789401e+02    1.570797e+00    4.008682e+07    2.760696e-08    2.190185e-10    2.670672e-08   -2.492608e+00
    4.479604e+00    1.860367e+02    1.536209e+00    3.971486e+07    2.757762e-08    2.112188e-10    2.667305e-08   -2.487608e+00
    4.533667e+00    1.933382e+02    1.501980e+00    3.934097e+07    2.754793e-08    2.037099e-10    2.663867e-08   -2.482608e+00
    4.588925e+00    2.008483e+02    1.468114e+00    3.896513e+07    2.751786e-08    1.964805e-10    2.660353e-08   -2.477608e+00
    4.645421e+00    2.085715e+02    1.434611e+00    3.858741e+07    2.748740e-08    1.895197e-10    2.656763e-08   -2.472608e+00
    4.703198e+00    2.165122e+02    1.401471e+00    3.820784e+07    2.745649e-08    1.828168e-10    2.653094e-08   -2.467608e+00
    4.762299e+00    2.246752e+02    1.368697e+00    3.782645e+07    2.742512e-08    1.763619e-10    2.649343e-08   -2.462608e+00
    4.822771e+00    2.330651e+02    1.336290e+00    3.744327e+07    2.739326e-08    1.701452e-10    2.645507e-08   -2.457608e+00
    4.884664e+00    2.416872e+02    1.304252e+00    3.705836e+07    2.736087e-08    1.641574e-10    2.641585e-08   -2.452608e+00
    4.948027e+00    2.505464e+02    1.272582e+00    3.667171e+07    2.732794e-08    1.583895e-10    2.637573e-08   -2.447608e+00
    5.012906e+00    2.596479e+02    1.241284e+00    3.628333e+07    2.729441e-08    1.528331e-10    2.633468e-08   -2.442608e+00
    5.079365e+00    2.689978e+02    1.210358e+00    3.589329e+07    2.726027e-08    1.474799e-10    2.629267e-08   -2.437608e+00
    5.147448e+00    2.786012e+02    1.179806e+00    3.550154e+07    2.722548e-08    1.423219e-10    2.624966e-08   -2.432608e+00
    5.217225e+00    2.884647e+02    1.149629e+00    3.510814e+07    2.719001e-08    1.373517e-10    2.620564e-08   -2.427608e+00
    5.288743e+00    2.985938e+02    1.119828e+00    3.471305e+07    2.715382e-08    1.325618e-10    2.616056e-08   -2.422608e+00
    5.362074e+00    3.089955e+02    1.090404e+00    3.431632e+07    2.711689e-08    1.279454e-10    2.611439e-08   -2.417608e+00
    5.437283e+00    3.196762e+02    1.061360e+00    3.391795e+07    2.707917e-08    1.234957e-10    2.606709e-08   -2.412608e+00
    5.514433e+00    3.306425e+02    1.032696e+00    3.351788e+07    2.704062e-08    1.192063e-10    2.601861e-08   -2.407608e+00
    5.593595e+00    3.419016e+02    1.004413e+00    3.311617e+07    2.700122e-08    1.150711e-10    2.596894e-08   -2.402608e+00
    5.674847e+00    3.534612e+02    9.765135e-01    3.271281e+07    2.696092e-08    1.110840e-10    2.591801e-08   -2.397608e+00
    5.758258e+00    3.653280e+02    9.489980e-01    3.230773e+07    2.691969e-08    1.072395e-10    2.586580e-08   -2.392608e+00
    5.843906e+00    3.775100e+02    9.218680e-01    3.190095e+07    2.687748e-08    1.035321e-10    2.581226e-08   -2.387608e+00
    5.931881e+00    3.900154e+02    8.951250e-01    3.149247e+07    2.683425e-08    9.995655e-11    2.575734e-08   -2.382608e+00
    6.022264e+00    4.028524e+02    8.687705e-01    3.108226e+07    2.678998e-08    9.650790e-11    2.570100e-08   -2.377608e+00
    6.115132e+00    4.160286e+02    8.428060e-01    3.067026e+07    2.674460e-08    9.318125e-11    2.564318e-08   -2.372608e+00
    6.210589e+00    4.295530e+02    8.172325e-01    3.025649e+07    2.669808e-08    8.997205e-11    2.558386e-08   -2.367608e+00
    6.308722e+00    4.434341e+02    7.920515e-01    2.984089e+07    2.665037e-08    8.687580e-11    2.552296e-08   -2.362608e+00
    6.409632e+00    4.576808e+02    7.672645e-01    2.942343e+07    2.660144e-08    8.388835e-11    2.546043e-08   -2.357608e+00
    6.513417e+00    4.723020e+02    7.428730e-01    2.900408e+07    2.655122e-08    8.100555e-11    2.539624e-08   -2.352608e+00
    6.620181e+00    4.873065e+02    7.188785e-01    2.858280e+07    2.649968e-08    7.822350e-11    2.533031e-08   -2.347608e+00
    6.730028e+00    5.027036e+02    6.952825e-01    2.815955e+07    2.644676e-08    7.553845e-11    2.526260e-08   -2.342608e+00
    6.843070e+00    5.185022e+02    6.720865e-01    2.773428e+07    2.639243e-08    7.294680e-11    2.519304e-08   -2.337608e+00
    6.959418e+00    5.347112e+02    6.492920e-01    2.730694e+07    2.633662e-08    7.044510e-11    2.512158e-08   -2.332608e+00
    7.079195e+00    5.513399e+02    6.269000e-01    2.687749e+07    2.627929e-08    6.803000e-11    2.504816e-08   -2.327608e+00
    7.202508e+00    5.683966e+02    6.049130e-01    2.644587e+07    2.622038e-08    6.569830e-11    2.497271e-08   -2.322608e+00
    7.329491e+00    5.858903e+02    5.833315e-01    2.601203e+07    2.615985e-08    6.344695e-11    2.489518e-08   -2.317608e+00
    7.460255e+00    6.038289e+02    5.621580e-01    2.557592e+07    2.609762e-08    6.127305e-11    2.481549e-08   -2.312608e+00
    7.594924e+00    6.222203e+02    5.413940e-01    2.513747e+07    2.603367e-08    5.917375e-11    2.473359e-08   -2.307608e+00
    7.733642e+00    6.410718e+02    5.210400e-01    2.469666e+07    2.596792e-08    5.714635e-11    2.464939e-08   -2.302608e+00
    7.876515e+00    6.603901e+02    5.010990e-01    2.425341e+07    2.590032e-08    5.518825e-11    2.456284e-08   -2.297608e+00
    8.023687e+00    6.801811e+02    4.815716e-01    2.380768e+07    2.583080e-08    5.329690e-11    2.447387e-08   -2.292608e+00
    8.175276e+00    7.004495e+02    4.624596e-01    2.335941e+07    2.575933e-08    5.146995e-11    2.438240e-08   -2.287608e+00
    8.331414e+00    7.211991e+02    4.437647e-01    2.290857e+07    2.568583e-08    4.970506e-11    2.428835e-08   -2.282608e+00
    8.492222e+00    7.424329e+02    4.254883e-01    2.245512e+07    2.561025e-08    4.800003e-11    2.419168e-08   -2.277608e+00
    8.657823e+00    7.641511e+02    4.076318e-01    2.199901e+07    2.553252e-08    4.635275e-11    2.409228e-08   -2.272608e+00
    8.828333e+00    7.863532e+02    3.901967e-01    2.154024e+07    2.545259e-08    4.476115e-11    2.399011e-08   -2.267608e+00
    9.003866e+00    8.090366e+02    3.731844e-01    2.107877e+07    2.537040e-08    4.322326e-11    2.388506e-08   -2.262608e+00
    9.184523e+00    8.321958e+02    3.565961e-01    2.061462e+07    2.528588e-08    4.173720e-11    2.377708e-08   -2.257608e+00
    9.370401e+00    8.558235e+02    3.404331e-01    2.014778e+07    2.519897e-08    4.030115e-11    2.366609e-08   -2.252608e+00
    9.561581e+00    8.799090e+02    3.246965e-01    1.967828e+07    2.510963e-08    3.891336e-11    2.355200e-08   -2.247608e+00
    9.758135e+00    9.044383e+02    3.093873e-01    1.920617e+07    2.501777e-08    3.757214e-11    2.343476e-08   -2.242608e+00
    9.960116e+00    9.293940e+02    2.945064e-01    1.873151e+07    2.492335e-08    3.627589e-11    2.331427e-08   -2.237608e+00
    1.016756e+01    9.547545e+02    2.800544e-01    1.825438e+07    2.482631e-08    3.502305e-11    2.319047e-08   -2.232608e+00
    1.038048e+01    9.804941e+02    2.660318e-01    1.777490e+07    2.472659e-08    3.381212e-11    2.306329e-08   -2.227608e+00
    1.059887e+01    1.006582e+03    2.524390e-01    1.729320e+07    2.462412e-08    3.264166e-11    2.293264e-08   -2.222608e+00
    1.082269e+01    1.032982e+03    2.392761e-01    1.680948e+07    2.451886e-08    3.151029e-11    2.279845e-08   -2.217608e+00
    1.105186e+01    1.059653e+03    2.265428e-01    1.632393e+07    2.441075e-08    3.041668e-11    2.266067e-08   -2.212608e+00
    1.128628e+01    1.086548e+03    2.142387e-01    1.583679e+07    2.429973e-08    2.935954e-11    2.251922e-08   -2.207608e+00
    1.152580e+01    1.113612e+03    2.023629e-01    1.534837e+07    2.418576e-08    2.833764e-11    2.237403e-08   -2.202608e+00
    1.177022e+01    1.140785e+03    1.909143e-01    1.485898e+07    2.406878e-08    2.734980e-11    2.222503e-08   -2.197608e+00
    1.201933e+01    1.168000e+03    1.798913e-01    1.436902e+07    2.394876e-08    2.639486e-11    2.207218e-08   -2.192608e+00
    1.227280e+01    1.195184e+03    1.692918e-01    1.387891e+07    2.382564e-08    2.547172e-11    2.191540e-08   -2.187608e+00
    1.253032e+01    1.222254e+03    1.591135e-01    1.338912e+07    2.369938e-08    2.457932e-11    2.175465e-08   -2.182608e+00
    1.279144e+01    1.249121e+03    1.493533e-01    1.290018e+07    2.356996e-08    2.371664e-11    2.158988e-08   -2.177608e+00
    1.305573e+01    1.275691e+03    1.400078e-01    1.241268e+07    2.343733e-08    2.288270e-11    2.142103e-08   -2.172608e+00
    1.332263e+01    1.301863e+03    1.310729e-01    1.192724e+07    2.330146e-08    2.207654e-11    2.124808e-08   -2.167608e+00
    1.359154e+01    1.327528e+03    1.225438e-01    1.144453e+07    2.316233e-08    2.129724e-11    2.107097e-08   -2.162608e+00
    1.386178e+01    1.352572e+03    1.144154e-01    1.096528e+07    2.301991e-08    2.054392e-11    2.088968e-08   -2.157608e+00
    1.413262e+01    1.376881e+03    1.066817e-01    1.049027e+07    2.287420e-08    1.981575e-11    2.070420e-08   -2.152608e+00
    1.440325e+01    1.400332e+03    9.933615e-02    1.002030e+07    2.272518e-08    1.911187e-11    2.051448e-08   -2.147608e+00
    1.467279e+01    1.422803e+03    9.237155e-02    9.556185e+06    2.257285e-08    1.843153e-11    2.032053e-08   -2.142608e+00
    1.494031e+01    1.444174e+03    8.577995e-02    9.098799e+06    2.241721e-08    1.777393e-11    2.012234e-08   -2.137608e+00
    1.520483e+01    1.464322e+03    7.955280e-02    8.649007e+06    2.225825e-08    1.713835e-11    1.991992e-08   -2.132608e+00
    1.546533e+01    1.483131e+03    7.368090e-02    8.207680e+06    2.209601e-08    1.652408e-11    1.971327e-08   -2.127608e+00
    1.572075e+01    1.500492e+03    6.815440e-02    7.775685e+06    2.193050e-08    1.593042e-11    1.950242e-08   -2.122608e+00
    1.596998e+01    1.516297e+03    6.296295e-02    7.353866e+06    2.176175e-08    1.535672e-11    1.928738e-08   -2.117608e+00
    1.621197e+01    1.530457e+03    5.809550e-02    6.943044e+06    2.158980e-08    1.480232e-11    1.906822e-08   -2.112608e+00
    1.644562e+01    1.542888e+03    5.354060e-02    6.543984e+06    2.141468e-08    1.426662e-11    1.884495e-08   -2.107608e+00
    1.666989e+01    1.553526e+03    4.928638e-02    6.157407e+06    2.123645e-08    1.374902e-11    1.861766e-08   -2.102608e+00
    1.688378e+01    1.562320e+03    4.532048e-02    5.783962e+06    2.105517e-08    1.324893e-11    1.838640e-08   -2.097608e+00
    1.708633e+01    1.569235e+03    4.163032e-02    5.424219e+06    2.087092e-08    1.276580e-11    1.815125e-08   -2.092608e+00
    1.727669e+01    1.574258e+03    3.820308e-02    5.078664e+06    2.068375e-08    1.229909e-11    1.791231e-08   -2.087608e+00
    1.745410e+01    1.577397e+03    3.502575e-02    4.747697e+06    2.049378e-08    1.184827e-11    1.766966e-08   -2.082608e+00
