# sky130 pfet_01v8 gm/ID Processed Lookup Table
# Corner: ff
# Temperature: 0C
# W = 2.0 um
# L = 1.98 um (1980 nm)
# Columns: gm/id [1/V]  gm/gds [V/V]  id/W [A/m]  ft [Hz]  Cgg/W [F/m]  Cgd/W [F/m]  Cgs/W [F/m]  Vov [V]
#         gm/id          gm/gds            id/W              ft           Cgg/W           Cgd/W           Cgs/W             Vov
    2.065306e+00    4.678857e+00    1.138435e+01    2.925036e+08    1.279327e-08    1.075437e-09    1.157913e-08   -2.828168e+00
    2.087494e+00    4.840896e+00    1.126677e+01    2.931360e+08    1.276955e-08    1.043485e-09    1.158072e-08   -2.823168e+00
    2.109967e+00    5.011771e+00    1.114916e+01    2.937376e+08    1.274613e-08    1.012135e-09    1.158204e-08   -2.818168e+00
    2.132721e+00    5.192042e+00    1.103153e+01    2.943063e+08    1.272303e-08    9.813955e-10    1.158311e-08   -2.813168e+00
    2.155755e+00    5.382301e+00    1.091389e+01    2.948405e+08    1.270024e-08    9.512755e-10    1.158391e-08   -2.808168e+00
    2.179064e+00    5.583178e+00    1.079626e+01    2.953385e+08    1.267778e-08    9.217835e-10    1.158446e-08   -2.803168e+00
    2.202645e+00    5.795329e+00    1.067864e+01    2.957982e+08    1.265566e-08    8.929255e-10    1.158475e-08   -2.798168e+00
    2.226492e+00    6.019454e+00    1.056105e+01    2.962183e+08    1.263387e-08    8.647075e-10    1.158478e-08   -2.793168e+00
    2.250603e+00    6.256283e+00    1.044350e+01    2.965967e+08    1.261243e-08    8.371340e-10    1.158455e-08   -2.788168e+00
    2.274971e+00    6.506581e+00    1.032601e+01    2.969319e+08    1.259133e-08    8.102070e-10    1.158407e-08   -2.783168e+00
    2.299592e+00    6.771148e+00    1.020859e+01    2.972220e+08    1.257059e-08    7.839285e-10    1.158333e-08   -2.778168e+00
    2.324458e+00    7.050819e+00    1.009126e+01    2.974656e+08    1.255020e-08    7.582995e-10    1.158235e-08   -2.773168e+00
    2.349566e+00    7.346463e+00    9.974030e+00    2.976610e+08    1.253016e-08    7.333190e-10    1.158110e-08   -2.768168e+00
    2.374909e+00    7.658981e+00    9.856920e+00    2.978069e+08    1.251047e-08    7.089860e-10    1.157962e-08   -2.763168e+00
    2.400481e+00    7.989304e+00    9.739945e+00    2.979019e+08    1.249113e-08    6.852970e-10    1.157790e-08   -2.758168e+00
    2.426279e+00    8.338394e+00    9.623120e+00    2.979446e+08    1.247215e-08    6.622485e-10    1.157592e-08   -2.753168e+00
    2.452295e+00    8.707237e+00    9.506465e+00    2.979339e+08    1.245352e-08    6.398355e-10    1.157372e-08   -2.748168e+00
    2.478524e+00    9.096841e+00    9.390000e+00    2.978689e+08    1.243523e-08    6.180530e-10    1.157128e-08   -2.743168e+00
    2.504963e+00    9.508246e+00    9.273740e+00    2.977486e+08    1.241729e-08    5.968945e-10    1.156860e-08   -2.738168e+00
    2.531610e+00    9.942501e+00    9.157700e+00    2.975724e+08    1.239969e-08    5.763525e-10    1.156570e-08   -2.733168e+00
    2.558459e+00    1.040068e+01    9.041905e+00    2.973397e+08    1.238243e-08    5.564185e-10    1.156256e-08   -2.728168e+00
    2.585507e+00    1.088385e+01    8.926375e+00    2.970501e+08    1.236549e-08    5.370845e-10    1.155921e-08   -2.723168e+00
    2.612755e+00    1.139310e+01    8.811120e+00    2.967032e+08    1.234889e-08    5.183410e-10    1.155564e-08   -2.718168e+00
    2.640202e+00    1.192953e+01    8.696165e+00    2.962991e+08    1.233260e-08    5.001780e-10    1.155185e-08   -2.713168e+00
    2.667846e+00    1.249424e+01    8.581530e+00    2.958378e+08    1.231663e-08    4.825855e-10    1.154785e-08   -2.708168e+00
    2.695690e+00    1.308831e+01    8.467230e+00    2.953195e+08    1.230097e-08    4.655520e-10    1.154364e-08   -2.703168e+00
    2.723737e+00    1.371283e+01    8.353285e+00    2.947448e+08    1.228560e-08    4.490667e-10    1.153923e-08   -2.698168e+00
    2.751989e+00    1.436889e+01    8.239715e+00    2.941139e+08    1.227054e-08    4.331178e-10    1.153461e-08   -2.693168e+00
    2.780451e+00    1.505754e+01    8.126535e+00    2.934276e+08    1.225575e-08    4.176937e-10    1.152979e-08   -2.688168e+00
    2.809127e+00    1.577983e+01    8.013770e+00    2.926867e+08    1.224124e-08    4.027820e-10    1.152478e-08   -2.683168e+00
    2.838028e+00    1.653682e+01    7.901425e+00    2.918921e+08    1.222700e-08    3.883706e-10    1.151957e-08   -2.678168e+00
    2.867156e+00    1.732951e+01    7.789530e+00    2.910447e+08    1.221302e-08    3.744471e-10    1.151417e-08   -2.673168e+00
    2.896523e+00    1.815891e+01    7.678095e+00    2.901455e+08    1.219930e-08    3.609988e-10    1.150858e-08   -2.668168e+00
    2.926139e+00    1.902600e+01    7.567135e+00    2.891959e+08    1.218581e-08    3.480133e-10    1.150280e-08   -2.663168e+00
    2.956011e+00    1.993173e+01    7.456675e+00    2.881971e+08    1.217255e-08    3.354778e-10    1.149685e-08   -2.658168e+00
    2.986153e+00    2.087703e+01    7.346720e+00    2.871502e+08    1.215953e-08    3.233799e-10    1.149071e-08   -2.653168e+00
    3.016574e+00    2.186284e+01    7.237295e+00    2.860563e+08    1.214672e-08    3.117069e-10    1.148439e-08   -2.648168e+00
    3.047290e+00    2.289003e+01    7.128410e+00    2.849173e+08    1.213411e-08    3.004464e-10    1.147789e-08   -2.643168e+00
    3.078314e+00    2.395950e+01    7.020075e+00    2.837342e+08    1.212169e-08    2.895861e-10    1.147121e-08   -2.638168e+00
    3.109659e+00    2.507209e+01    6.912310e+00    2.825083e+08    1.210947e-08    2.791137e-10    1.146436e-08   -2.633168e+00
    3.141340e+00    2.622865e+01    6.805130e+00    2.812412e+08    1.209742e-08    2.690171e-10    1.145733e-08   -2.628168e+00
    3.173371e+00    2.742999e+01    6.698545e+00    2.799340e+08    1.208554e-08    2.592844e-10    1.145013e-08   -2.623168e+00
    3.205772e+00    2.867698e+01    6.592565e+00    2.785883e+08    1.207381e-08    2.499040e-10    1.144276e-08   -2.618168e+00
    3.238556e+00    2.997038e+01    6.487205e+00    2.772052e+08    1.206223e-08    2.408642e-10    1.143521e-08   -2.613168e+00
    3.271742e+00    3.131098e+01    6.382475e+00    2.757862e+08    1.205080e-08    2.321538e-10    1.142749e-08   -2.608168e+00
    3.305344e+00    3.269962e+01    6.278390e+00    2.743325e+08    1.203949e-08    2.237619e-10    1.141959e-08   -2.603168e+00
    3.339383e+00    3.413708e+01    6.174960e+00    2.728453e+08    1.202829e-08    2.156774e-10    1.141152e-08   -2.598168e+00
    3.373877e+00    3.562412e+01    6.072190e+00    2.713258e+08    1.201721e-08    2.078900e-10    1.140327e-08   -2.593168e+00
    3.408845e+00    3.716158e+01    5.970095e+00    2.697752e+08    1.200623e-08    2.003892e-10    1.139486e-08   -2.588168e+00
    3.444308e+00    3.875028e+01    5.868680e+00    2.681945e+08    1.199534e-08    1.931650e-10    1.138627e-08   -2.583168e+00
    3.480282e+00    4.039102e+01    5.767960e+00    2.665851e+08    1.198453e-08    1.862075e-10    1.137749e-08   -2.578168e+00
    3.516788e+00    4.208464e+01    5.667945e+00    2.649478e+08    1.197379e-08    1.795075e-10    1.136854e-08   -2.573168e+00
    3.553850e+00    4.383199e+01    5.568635e+00    2.632836e+08    1.196311e-08    1.730555e-10    1.135941e-08   -2.568168e+00
    3.591488e+00    4.563398e+01    5.470045e+00    2.615936e+08    1.195249e-08    1.668426e-10    1.135009e-08   -2.563168e+00
    3.629723e+00    4.749147e+01    5.372180e+00    2.598785e+08    1.194191e-08    1.608600e-10    1.134059e-08   -2.558168e+00
    3.668578e+00    4.940541e+01    5.275050e+00    2.581394e+08    1.193136e-08    1.550993e-10    1.133090e-08   -2.553168e+00
    3.708071e+00    5.137675e+01    5.178665e+00    2.563771e+08    1.192084e-08    1.495524e-10    1.132102e-08   -2.548168e+00
    3.748236e+00    5.340650e+01    5.083025e+00    2.545924e+08    1.191033e-08    1.442112e-10    1.131094e-08   -2.543168e+00
    3.789088e+00    5.549570e+01    4.988143e+00    2.527861e+08    1.189983e-08    1.390683e-10    1.130066e-08   -2.538168e+00
    3.830657e+00    5.764539e+01    4.894023e+00    2.509587e+08    1.188932e-08    1.341160e-10    1.129018e-08   -2.533168e+00
    3.872967e+00    5.985674e+01    4.800671e+00    2.491112e+08    1.187880e-08    1.293474e-10    1.127950e-08   -2.528168e+00
    3.916042e+00    6.213086e+01    4.708097e+00    2.472442e+08    1.186825e-08    1.247553e-10    1.126860e-08   -2.523168e+00
    3.959913e+00    6.446897e+01    4.616303e+00    2.453581e+08    1.185768e-08    1.203333e-10    1.125749e-08   -2.518168e+00
    4.004606e+00    6.687240e+01    4.525297e+00    2.434538e+08    1.184706e-08    1.160748e-10    1.124615e-08   -2.513168e+00
    4.050149e+00    6.934242e+01    4.435085e+00    2.415317e+08    1.183638e-08    1.119737e-10    1.123459e-08   -2.508168e+00
    4.096574e+00    7.188044e+01    4.345671e+00    2.395924e+08    1.182565e-08    1.080239e-10    1.122280e-08   -2.503168e+00
    4.143910e+00    7.448787e+01    4.257062e+00    2.376362e+08    1.181484e-08    1.042197e-10    1.121076e-08   -2.498168e+00
    4.192190e+00    7.716629e+01    4.169264e+00    2.356639e+08    1.180395e-08    1.005554e-10    1.119849e-08   -2.493168e+00
    4.241444e+00    7.991722e+01    4.082281e+00    2.336758e+08    1.179297e-08    9.702590e-11    1.118596e-08   -2.488168e+00
    4.291709e+00    8.274238e+01    3.996118e+00    2.316722e+08    1.178189e-08    9.362585e-11    1.117317e-08   -2.483168e+00
    4.343019e+00    8.564349e+01    3.910780e+00    2.296537e+08    1.177069e-08    9.035040e-11    1.116012e-08   -2.478168e+00
    4.395410e+00    8.862235e+01    3.826274e+00    2.276205e+08    1.175937e-08    8.719465e-11    1.114679e-08   -2.473168e+00
    4.448918e+00    9.168082e+01    3.742602e+00    2.255731e+08    1.174792e-08    8.415415e-11    1.113318e-08   -2.468168e+00
    4.503585e+00    9.482097e+01    3.659770e+00    2.235117e+08    1.173632e-08    8.122440e-11    1.111928e-08   -2.463168e+00
    4.559451e+00    9.804487e+01    3.577783e+00    2.214368e+08    1.172457e-08    7.840115e-11    1.110507e-08   -2.458168e+00
    4.616557e+00    1.013546e+02    3.496644e+00    2.193483e+08    1.171265e-08    7.568035e-11    1.109057e-08   -2.453168e+00
    4.674946e+00    1.047526e+02    3.416360e+00    2.172469e+08    1.170056e-08    7.305805e-11    1.107574e-08   -2.448168e+00
    4.734664e+00    1.082411e+02    3.336933e+00    2.151326e+08    1.168828e-08    7.053055e-11    1.106057e-08   -2.443168e+00
    4.795757e+00    1.118226e+02    3.258369e+00    2.130057e+08    1.167579e-08    6.809410e-11    1.104507e-08   -2.438168e+00
    4.858278e+00    1.154998e+02    3.180671e+00    2.108665e+08    1.166309e-08    6.574535e-11    1.102922e-08   -2.433168e+00
    4.922271e+00    1.192753e+02    3.103844e+00    2.087148e+08    1.165017e-08    6.348085e-11    1.101300e-08   -2.428168e+00
    4.987793e+00    1.231520e+02    3.027893e+00    2.065511e+08    1.163701e-08    6.129745e-11    1.099640e-08   -2.423168e+00
    5.054896e+00    1.271328e+02    2.952821e+00    2.043755e+08    1.162360e-08    5.919200e-11    1.097943e-08   -2.418168e+00
    5.123640e+00    1.312208e+02    2.878632e+00    2.021880e+08    1.160993e-08    5.716160e-11    1.096204e-08   -2.413168e+00
    5.194084e+00    1.354193e+02    2.805331e+00    1.999888e+08    1.159598e-08    5.520340e-11    1.094424e-08   -2.408168e+00
    5.266286e+00    1.397316e+02    2.732922e+00    1.977780e+08    1.158174e-08    5.331460e-11    1.092602e-08   -2.403168e+00
    5.340312e+00    1.441612e+02    2.661409e+00    1.955556e+08    1.156720e-08    5.149265e-11    1.090735e-08   -2.398168e+00
    5.416229e+00    1.487117e+02    2.590796e+00    1.933218e+08    1.155233e-08    4.973496e-11    1.088822e-08   -2.393168e+00
    5.494106e+00    1.533870e+02    2.521087e+00    1.910764e+08    1.153714e-08    4.803915e-11    1.086861e-08   -2.388168e+00
    5.574013e+00    1.581909e+02    2.452286e+00    1.888194e+08    1.152160e-08    4.640290e-11    1.084852e-08   -2.383168e+00
    5.656026e+00    1.631276e+02    2.384397e+00    1.865511e+08    1.150569e-08    4.482396e-11    1.082791e-08   -2.378168e+00
    5.740225e+00    1.682015e+02    2.317425e+00    1.842712e+08    1.148940e-08    4.330018e-11    1.080678e-08   -2.373168e+00
    5.826683e+00    1.734167e+02    2.251374e+00    1.819796e+08    1.147272e-08    4.182952e-11    1.078511e-08   -2.368168e+00
    5.915492e+00    1.787782e+02    2.186246e+00    1.796765e+08    1.145562e-08    4.040997e-11    1.076288e-08   -2.363168e+00
    6.006734e+00    1.842905e+02    2.122048e+00    1.773616e+08    1.143810e-08    3.903967e-11    1.074006e-08   -2.358168e+00
    6.100498e+00    1.899589e+02    2.058782e+00    1.750349e+08    1.142014e-08    3.771677e-11    1.071664e-08   -2.353168e+00
    6.196880e+00    1.957879e+02    1.996453e+00    1.726962e+08    1.140170e-08    3.643954e-11    1.069260e-08   -2.348168e+00
    6.295978e+00    2.017835e+02    1.935066e+00    1.703454e+08    1.138279e-08    3.520628e-11    1.066792e-08   -2.343168e+00
    6.397886e+00    2.079506e+02    1.874623e+00    1.679823e+08    1.136337e-08    3.401537e-11    1.064257e-08   -2.338168e+00
    6.502714e+00    2.142954e+02    1.815131e+00    1.656068e+08    1.134344e-08    3.286527e-11    1.061654e-08   -2.333168e+00
    6.610565e+00    2.208232e+02    1.756592e+00    1.632186e+08    1.132296e-08    3.175450e-11    1.058980e-08   -2.328168e+00
    6.721550e+00    2.275404e+02    1.699012e+00    1.608175e+08    1.130193e-08    3.068161e-11    1.056232e-08   -2.323168e+00
    6.835780e+00    2.344526e+02    1.642394e+00    1.584034e+08    1.128031e-08    2.964523e-11    1.053409e-08   -2.318168e+00
    6.953378e+00    2.415666e+02    1.586743e+00    1.559760e+08    1.125809e-08    2.864405e-11    1.050507e-08   -2.313168e+00
    7.074460e+00    2.488884e+02    1.532063e+00    1.535349e+08    1.123526e-08    2.767678e-11    1.047524e-08   -2.308168e+00
    7.199147e+00    2.564246e+02    1.478358e+00    1.510799e+08    1.121177e-08    2.674222e-11    1.044459e-08   -2.303168e+00
    7.327570e+00    2.641821e+02    1.425635e+00    1.486109e+08    1.118762e-08    2.583918e-11    1.041306e-08   -2.298168e+00
    7.459851e+00    2.721670e+02    1.373896e+00    1.461274e+08    1.116279e-08    2.496655e-11    1.038065e-08   -2.293168e+00
    7.596127e+00    2.803863e+02    1.323146e+00    1.436292e+08    1.113723e-08    2.412324e-11    1.034732e-08   -2.288168e+00
    7.736529e+00    2.888468e+02    1.273389e+00    1.411160e+08    1.111095e-08    2.330822e-11    1.031305e-08   -2.283168e+00
    7.881186e+00    2.975547e+02    1.224631e+00    1.385875e+08    1.108391e-08    2.252047e-11    1.027780e-08   -2.278168e+00
    8.030238e+00    3.065171e+02    1.176875e+00    1.360435e+08    1.105608e-08    2.175905e-11    1.024154e-08   -2.273168e+00
    8.183818e+00    3.157400e+02    1.130127e+00    1.334837e+08    1.102745e-08    2.102302e-11    1.020425e-08   -2.268168e+00
    8.342058e+00    3.252298e+02    1.084390e+00    1.309079e+08    1.099798e-08    2.031149e-11    1.016590e-08   -2.263168e+00
    8.505085e+00    3.349921e+02    1.039668e+00    1.283157e+08    1.096765e-08    1.962363e-11    1.012644e-08   -2.258168e+00
    8.673047e+00    3.450329e+02    9.959660e-01    1.257073e+08    1.093644e-08    1.895859e-11    1.008586e-08   -2.253168e+00
    8.846047e+00    3.553568e+02    9.532885e-01    1.230821e+08    1.090433e-08    1.831559e-11    1.004412e-08   -2.248168e+00
    9.024219e+00    3.659686e+02    9.116390e-01    1.204404e+08    1.087128e-08    1.769387e-11    1.000119e-08   -2.243168e+00
    9.207666e+00    3.768718e+02    8.710215e-01    1.177820e+08    1.083726e-08    1.709269e-11    9.957030e-09   -2.238168e+00
    9.396498e+00    3.880695e+02    8.314395e-01    1.151071e+08    1.080226e-08    1.651136e-11    9.911615e-09   -2.233168e+00
    9.590804e+00    3.995637e+02    7.928965e-01    1.124157e+08    1.076626e-08    1.594921e-11    9.864910e-09   -2.228168e+00
    9.790666e+00    4.113553e+02    7.553955e-01    1.097082e+08    1.072921e-08    1.540556e-11    9.816880e-09   -2.223168e+00
    9.996147e+00    4.234435e+02    7.189390e-01    1.069849e+08    1.069110e-08    1.487980e-11    9.767500e-09   -2.218168e+00
    1.020728e+01    4.358265e+02    6.835300e-01    1.042463e+08    1.065191e-08    1.437132e-11    9.716725e-09   -2.213168e+00
    1.042411e+01    4.485004e+02    6.491695e-01    1.014932e+08    1.061159e-08    1.387955e-11    9.664535e-09   -2.208168e+00
    1.064661e+01    4.614595e+02    6.158600e-01    9.872625e+07    1.057014e-08    1.340392e-11    9.610890e-09   -2.203168e+00
    1.087476e+01    4.746957e+02    5.836015e-01    9.594666e+07    1.052752e-08    1.294389e-11    9.555765e-09   -2.198168e+00
    1.110848e+01    4.881987e+02    5.523945e-01    9.315553e+07    1.048372e-08    1.249894e-11    9.499125e-09   -2.193168e+00
    1.134768e+01    5.019553e+02    5.222385e-01    9.035434e+07    1.043872e-08    1.206858e-11    9.440935e-09   -2.188168e+00
    1.159221e+01    5.159499e+02    4.931322e-01    8.754489e+07    1.039247e-08    1.165231e-11    9.381175e-09   -2.183168e+00
    1.184187e+01    5.301627e+02    4.650729e-01    8.472906e+07    1.034497e-08    1.124969e-11    9.319815e-09   -2.178168e+00
    1.209645e+01    5.445710e+02    4.380576e-01    8.190914e+07    1.029619e-08    1.086025e-11    9.256825e-09   -2.173168e+00
    1.235562e+01    5.591485e+02    4.120819e-01    7.908759e+07    1.024612e-08    1.048356e-11    9.192175e-09   -2.168168e+00
    1.261904e+01    5.738652e+02    3.871403e-01    7.626733e+07    1.019474e-08    1.011922e-11    9.125845e-09   -2.163168e+00
    1.288629e+01    5.886861e+02    3.632260e-01    7.345141e+07    1.014203e-08    9.766815e-12    9.057815e-09   -2.158168e+00
    1.315688e+01    6.035728e+02    3.403310e-01    7.064328e+07    1.008796e-08    9.425965e-12    8.988060e-09   -2.153168e+00
    1.343026e+01    6.184829e+02    3.184457e-01    6.784668e+07    1.003255e-08    9.096290e-12    8.916560e-09   -2.148168e+00
    1.370580e+01    6.333692e+02    2.975590e-01    6.506564e+07    9.975755e-09    8.777440e-12    8.843300e-09   -2.143168e+00
    1.398280e+01    6.481802e+02    2.776583e-01    6.230447e+07    9.917580e-09    8.469060e-12    8.768265e-09   -2.138168e+00
    1.426049e+01    6.628615e+02    2.587296e-01    5.956770e+07    9.858020e-09    8.170815e-12    8.691440e-09   -2.133168e+00
    1.453802e+01    6.773541e+02    2.407567e-01    5.686015e+07    9.797060e-09    7.882385e-12    8.612820e-09   -2.128168e+00
    1.481449e+01    6.915966e+02    2.237222e-01    5.418675e+07    9.734700e-09    7.603455e-12    8.532390e-09   -2.123168e+00
    1.508890e+01    7.055243e+02    2.076067e-01    5.155259e+07    9.670940e-09    7.333720e-12    8.450155e-09   -2.118168e+00
    1.536025e+01    7.190713e+02    1.923893e-01    4.896285e+07    9.605780e-09    7.072895e-12    8.366110e-09   -2.113168e+00
    1.562745e+01    7.321705e+02    1.780474e-01    4.642273e+07    9.539225e-09    6.820700e-12    8.280265e-09   -2.108168e+00
    1.588937e+01    7.447546e+02    1.645567e-01    4.393732e+07    9.471285e-09    6.576855e-12    8.192615e-09   -2.103168e+00
    1.614490e+01    7.567574e+02    1.518916e-01    4.151168e+07    9.401970e-09    6.341100e-12    8.103175e-09   -2.098168e+00
    1.639289e+01    7.681150e+02    1.400247e-01    3.915062e+07    9.331290e-09    6.113180e-12    8.011965e-09   -2.093168e+00
    1.663221e+01    7.787666e+02    1.289278e-01    3.685869e+07    9.259265e-09    5.892855e-12    7.918995e-09   -2.088168e+00
    1.686175e+01    7.886566e+02    1.185712e-01    3.464012e+07    9.185915e-09    5.679880e-12    7.824290e-09   -2.083168e+00
    1.708048e+01    7.977345e+02    1.089243e-01    3.249872e+07    9.111260e-09    5.474035e-12    7.727880e-09   -2.078168e+00
    1.728739e+01    8.059572e+02    9.995580e-02    3.043780e+07    9.035335e-09    5.275085e-12    7.629795e-09   -2.073168e+00
