# sky130 pfet_01v8 gm/ID Processed Lookup Table
# Corner: ff
# Temperature: 0C
# W = 2.0 um
# L = 5.4 um (5400 nm)
# Columns: gm/id [1/V]  gm/gds [V/V]  id/W [A/m]  ft [Hz]  Cgg/W [F/m]  Cgd/W [F/m]  Cgs/W [F/m]  Vov [V]
#         gm/id          gm/gds            id/W              ft           Cgg/W           Cgd/W           Cgs/W             Vov
    2.176152e+00    6.122523e+00    4.016765e+00    3.994531e+07    3.482731e-08    3.121533e-09    3.199594e-08   -2.838864e+00
    2.199477e+00    6.380364e+00    3.973065e+00    4.001576e+07    3.475634e-08    3.028317e-09    3.199973e-08   -2.833864e+00
    2.223054e+00    6.654804e+00    3.929380e+00    4.008087e+07    3.468622e-08    2.936773e-09    3.200279e-08   -2.828864e+00
    2.246878e+00    6.947085e+00    3.885715e+00    4.014035e+07    3.461699e-08    2.846941e-09    3.200513e-08   -2.823864e+00
    2.270942e+00    7.258539e+00    3.842075e+00    4.019398e+07    3.454865e-08    2.758854e-09    3.200674e-08   -2.818864e+00
    2.295239e+00    7.590584e+00    3.798466e+00    4.024142e+07    3.448124e-08    2.672542e-09    3.200763e-08   -2.813864e+00
    2.319763e+00    7.944745e+00    3.754893e+00    4.028248e+07    3.441479e-08    2.588032e-09    3.200779e-08   -2.808864e+00
    2.344504e+00    8.322641e+00    3.711363e+00    4.031685e+07    3.434930e-08    2.505346e-09    3.200721e-08   -2.803864e+00
    2.369456e+00    8.726003e+00    3.667882e+00    4.034432e+07    3.428481e-08    2.424504e-09    3.200593e-08   -2.798864e+00
    2.394612e+00    9.156672e+00    3.624456e+00    4.036466e+07    3.422133e-08    2.345522e-09    3.200391e-08   -2.793864e+00
    2.419964e+00    9.616606e+00    3.581092e+00    4.037767e+07    3.415886e-08    2.268408e-09    3.200118e-08   -2.788864e+00
    2.445505e+00    1.010787e+01    3.537797e+00    4.038313e+07    3.409742e-08    2.193174e-09    3.199773e-08   -2.783864e+00
    2.471226e+00    1.063265e+01    3.494578e+00    4.038087e+07    3.403702e-08    2.119820e-09    3.199358e-08   -2.778864e+00
    2.497123e+00    1.119326e+01    3.451441e+00    4.037076e+07    3.397766e-08    2.048349e-09    3.198873e-08   -2.773864e+00
    2.523189e+00    1.179212e+01    3.408394e+00    4.035266e+07    3.391935e-08    1.978757e-09    3.198318e-08   -2.768864e+00
    2.549418e+00    1.243179e+01    3.365443e+00    4.032643e+07    3.386208e-08    1.911038e-09    3.197695e-08   -2.763864e+00
    2.575808e+00    1.311494e+01    3.322597e+00    4.029206e+07    3.380584e-08    1.845181e-09    3.197003e-08   -2.758864e+00
    2.602354e+00    1.384436e+01    3.279861e+00    4.024945e+07    3.375064e-08    1.781176e-09    3.196244e-08   -2.753864e+00
    2.629051e+00    1.462294e+01    3.237246e+00    4.019854e+07    3.369648e-08    1.719005e-09    3.195419e-08   -2.748864e+00
    2.655903e+00    1.545372e+01    3.194755e+00    4.013940e+07    3.364334e-08    1.658652e-09    3.194529e-08   -2.743864e+00
    2.682907e+00    1.633984e+01    3.152398e+00    4.007201e+07    3.359121e-08    1.600094e-09    3.193574e-08   -2.738864e+00
    2.710062e+00    1.728452e+01    3.110182e+00    3.999643e+07    3.354007e-08    1.543309e-09    3.192555e-08   -2.733864e+00
    2.737374e+00    1.829111e+01    3.068113e+00    3.991274e+07    3.348991e-08    1.488273e-09    3.191472e-08   -2.728864e+00
    2.764844e+00    1.936304e+01    3.026198e+00    3.982102e+07    3.344073e-08    1.434957e-09    3.190329e-08   -2.723864e+00
    2.792477e+00    2.050385e+01    2.984445e+00    3.972141e+07    3.339248e-08    1.383332e-09    3.189124e-08   -2.718864e+00
    2.820280e+00    2.171714e+01    2.942861e+00    3.961403e+07    3.334517e-08    1.333369e-09    3.187859e-08   -2.713864e+00
    2.848260e+00    2.300659e+01    2.901451e+00    3.949906e+07    3.329877e-08    1.285034e-09    3.186535e-08   -2.708864e+00
    2.876426e+00    2.437598e+01    2.860221e+00    3.937667e+07    3.325325e-08    1.238296e-09    3.185152e-08   -2.703864e+00
    2.904784e+00    2.582909e+01    2.819181e+00    3.924699e+07    3.320859e-08    1.193118e-09    3.183712e-08   -2.698864e+00
    2.933348e+00    2.736982e+01    2.778332e+00    3.911028e+07    3.316477e-08    1.149467e-09    3.182215e-08   -2.693864e+00
    2.962128e+00    2.900208e+01    2.737684e+00    3.896671e+07    3.312176e-08    1.107305e-09    3.180662e-08   -2.688864e+00
    2.991137e+00    3.072983e+01    2.697241e+00    3.881651e+07    3.307955e-08    1.066597e-09    3.179053e-08   -2.683864e+00
    3.020386e+00    3.255706e+01    2.657008e+00    3.865988e+07    3.303809e-08    1.027306e-09    3.177389e-08   -2.678864e+00
    3.049891e+00    3.448778e+01    2.616990e+00    3.849704e+07    3.299737e-08    9.893930e-10    3.175672e-08   -2.673864e+00
    3.079667e+00    3.652606e+01    2.577194e+00    3.832823e+07    3.295735e-08    9.528215e-10    3.173901e-08   -2.668864e+00
    3.109727e+00    3.867590e+01    2.537623e+00    3.815364e+07    3.291801e-08    9.175545e-10    3.172076e-08   -2.663864e+00
    3.140089e+00    4.094142e+01    2.498283e+00    3.797352e+07    3.287931e-08    8.835530e-10    3.170200e-08   -2.658864e+00
    3.170769e+00    4.332665e+01    2.459176e+00    3.778808e+07    3.284124e-08    8.507810e-10    3.168271e-08   -2.653864e+00
    3.201781e+00    4.583565e+01    2.420309e+00    3.759751e+07    3.280376e-08    8.192000e-10    3.166290e-08   -2.648864e+00
    3.233147e+00    4.847252e+01    2.381685e+00    3.740204e+07    3.276683e-08    7.887745e-10    3.164258e-08   -2.643864e+00
    3.264882e+00    5.124130e+01    2.343307e+00    3.720188e+07    3.273044e-08    7.594670e-10    3.162174e-08   -2.638864e+00
    3.297004e+00    5.414602e+01    2.305180e+00    3.699721e+07    3.269454e-08    7.312420e-10    3.160038e-08   -2.633864e+00
    3.329531e+00    5.719075e+01    2.267306e+00    3.678822e+07    3.265913e-08    7.040645e-10    3.157852e-08   -2.628864e+00
    3.362481e+00    6.037946e+01    2.229690e+00    3.657508e+07    3.262415e-08    6.778990e-10    3.155616e-08   -2.623864e+00
    3.395875e+00    6.371621e+01    2.192334e+00    3.635801e+07    3.258957e-08    6.527120e-10    3.153326e-08   -2.618864e+00
    3.429733e+00    6.720500e+01    2.155242e+00    3.613714e+07    3.255538e-08    6.284690e-10    3.150987e-08   -2.613864e+00
    3.464073e+00    7.084984e+01    2.118416e+00    3.591264e+07    3.252155e-08    6.051385e-10    3.148596e-08   -2.608864e+00
    3.498918e+00    7.465468e+01    2.081860e+00    3.568469e+07    3.248802e-08    5.826880e-10    3.146152e-08   -2.603864e+00
    3.534283e+00    7.862347e+01    2.045575e+00    3.545340e+07    3.245479e-08    5.610860e-10    3.143657e-08   -2.598864e+00
    3.570192e+00    8.276018e+01    2.009564e+00    3.521892e+07    3.242183e-08    5.403020e-10    3.141108e-08   -2.593864e+00
    3.606668e+00    8.706886e+01    1.973830e+00    3.498141e+07    3.238910e-08    5.203070e-10    3.138506e-08   -2.588864e+00
    3.643733e+00    9.155341e+01    1.938375e+00    3.474098e+07    3.235656e-08    5.010715e-10    3.135852e-08   -2.583864e+00
    3.681402e+00    9.621773e+01    1.903201e+00    3.449772e+07    3.232420e-08    4.825684e-10    3.133142e-08   -2.578864e+00
    3.719706e+00    1.010660e+02    1.868312e+00    3.425180e+07    3.229198e-08    4.647697e-10    3.130377e-08   -2.573864e+00
    3.758666e+00    1.061021e+02    1.833707e+00    3.400329e+07    3.225987e-08    4.476493e-10    3.127556e-08   -2.568864e+00
    3.798303e+00    1.113300e+02    1.799389e+00    3.375231e+07    3.222785e-08    4.311818e-10    3.124678e-08   -2.563864e+00
    3.838643e+00    1.167537e+02    1.765361e+00    3.349894e+07    3.219588e-08    4.153424e-10    3.121742e-08   -2.558864e+00
    3.879711e+00    1.223775e+02    1.731624e+00    3.324328e+07    3.216393e-08    4.001073e-10    3.118746e-08   -2.553864e+00
    3.921532e+00    1.282053e+02    1.698180e+00    3.298541e+07    3.213199e-08    3.854532e-10    3.115692e-08   -2.548864e+00
    3.964130e+00    1.342413e+02    1.665030e+00    3.272540e+07    3.210000e-08    3.713580e-10    3.112574e-08   -2.543864e+00
    4.007540e+00    1.404898e+02    1.632176e+00    3.246338e+07    3.206795e-08    3.578000e-10    3.109394e-08   -2.538864e+00
    4.051781e+00    1.469549e+02    1.599620e+00    3.219936e+07    3.203581e-08    3.447585e-10    3.106151e-08   -2.533864e+00
    4.096883e+00    1.536409e+02    1.567364e+00    3.193342e+07    3.200354e-08    3.322134e-10    3.102840e-08   -2.528864e+00
    4.142881e+00    1.605524e+02    1.535408e+00    3.166565e+07    3.197112e-08    3.201453e-10    3.099463e-08   -2.523864e+00
    4.189801e+00    1.676938e+02    1.503754e+00    3.139609e+07    3.193852e-08    3.085357e-10    3.096016e-08   -2.518864e+00
    4.237675e+00    1.750696e+02    1.472404e+00    3.112480e+07    3.190570e-08    2.973666e-10    3.092498e-08   -2.513864e+00
    4.286539e+00    1.826844e+02    1.441359e+00    3.085183e+07    3.187264e-08    2.866208e-10    3.088907e-08   -2.508864e+00
    4.336419e+00    1.905431e+02    1.410620e+00    3.057722e+07    3.183930e-08    2.762815e-10    3.085241e-08   -2.503864e+00
    4.387357e+00    1.986504e+02    1.380189e+00    3.030102e+07    3.180565e-08    2.663329e-10    3.081497e-08   -2.498864e+00
    4.439389e+00    2.070116e+02    1.350067e+00    3.002330e+07    3.177167e-08    2.567596e-10    3.077675e-08   -2.493864e+00
    4.492547e+00    2.156314e+02    1.320255e+00    2.974406e+07    3.173731e-08    2.475467e-10    3.073771e-08   -2.488864e+00
    4.546870e+00    2.245150e+02    1.290754e+00    2.946333e+07    3.170256e-08    2.386801e-10    3.069782e-08   -2.483864e+00
    4.602407e+00    2.336684e+02    1.261566e+00    2.918120e+07    3.166737e-08    2.301462e-10    3.065707e-08   -2.478864e+00
    4.659189e+00    2.430965e+02    1.232692e+00    2.889764e+07    3.163171e-08    2.219317e-10    3.061542e-08   -2.473864e+00
    4.717261e+00    2.528051e+02    1.204133e+00    2.861268e+07    3.159555e-08    2.140243e-10    3.057285e-08   -2.468864e+00
    4.776676e+00    2.628003e+02    1.175890e+00    2.832640e+07    3.155886e-08    2.064116e-10    3.052933e-08   -2.463864e+00
    4.837473e+00    2.730881e+02    1.147965e+00    2.803879e+07    3.152159e-08    1.990821e-10    3.048483e-08   -2.458864e+00
    4.899702e+00    2.836745e+02    1.120358e+00    2.774984e+07    3.148372e-08    1.920246e-10    3.043931e-08   -2.453864e+00
    4.963410e+00    2.945657e+02    1.093071e+00    2.745959e+07    3.144522e-08    1.852285e-10    3.039275e-08   -2.448864e+00
    5.028656e+00    3.057687e+02    1.066105e+00    2.716809e+07    3.140603e-08    1.786836e-10    3.034510e-08   -2.443864e+00
    5.095489e+00    3.172900e+02    1.039461e+00    2.687529e+07    3.136613e-08    1.723799e-10    3.029634e-08   -2.438864e+00
    5.163968e+00    3.291367e+02    1.013140e+00    2.658125e+07    3.132547e-08    1.663079e-10    3.024642e-08   -2.433864e+00
    5.234150e+00    3.413160e+02    9.871430e-01    2.628596e+07    3.128403e-08    1.604586e-10    3.019532e-08   -2.428864e+00
    5.306096e+00    3.538350e+02    9.614715e-01    2.598941e+07    3.124175e-08    1.548235e-10    3.014298e-08   -2.423864e+00
    5.379871e+00    3.667015e+02    9.361265e-01    2.569162e+07    3.119860e-08    1.493939e-10    3.008937e-08   -2.418864e+00
    5.455536e+00    3.799232e+02    9.111095e-01    2.539258e+07    3.115454e-08    1.441620e-10    3.003445e-08   -2.413864e+00
    5.533164e+00    3.935081e+02    8.864210e-01    2.509229e+07    3.110952e-08    1.391201e-10    2.997817e-08   -2.408864e+00
    5.612823e+00    4.074645e+02    8.620625e-01    2.479076e+07    3.106351e-08    1.342608e-10    2.992048e-08   -2.403864e+00
    5.694586e+00    4.218006e+02    8.380355e-01    2.448796e+07    3.101645e-08    1.295770e-10    2.986133e-08   -2.398864e+00
    5.778532e+00    4.365253e+02    8.143405e-01    2.418390e+07    3.096830e-08    1.250621e-10    2.980069e-08   -2.393864e+00
    5.864739e+00    4.516473e+02    7.909790e-01    2.387855e+07    3.091903e-08    1.207094e-10    2.973851e-08   -2.388864e+00
    5.953289e+00    4.671752e+02    7.679520e-01    2.357191e+07    3.086857e-08    1.165127e-10    2.967471e-08   -2.383864e+00
    6.044266e+00    4.831185e+02    7.452610e-01    2.326395e+07    3.081688e-08    1.124660e-10    2.960926e-08   -2.378864e+00
    6.137761e+00    4.994864e+02    7.229070e-01    2.295467e+07    3.076390e-08    1.085637e-10    2.954210e-08   -2.373864e+00
    6.233866e+00    5.162883e+02    7.008910e-01    2.264403e+07    3.070961e-08    1.048001e-10    2.947316e-08   -2.368864e+00
    6.332673e+00    5.335335e+02    6.792145e-01    2.233201e+07    3.065394e-08    1.011702e-10    2.940241e-08   -2.363864e+00
    6.434278e+00    5.512320e+02    6.578790e-01    2.201860e+07    3.059682e-08    9.766870e-11    2.932976e-08   -2.358864e+00
    6.538790e+00    5.693925e+02    6.368850e-01    2.170375e+07    3.053823e-08    9.429080e-11    2.925516e-08   -2.353864e+00
    6.646299e+00    5.880254e+02    6.162350e-01    2.138743e+07    3.047809e-08    9.103190e-11    2.917856e-08   -2.348864e+00
    6.756927e+00    6.071398e+02    5.959290e-01    2.106962e+07    3.041635e-08    8.788745e-11    2.909987e-08   -2.343864e+00
    6.870782e+00    6.267447e+02    5.759685e-01    2.075028e+07    3.035296e-08    8.485325e-11    2.901904e-08   -2.338864e+00
    6.987965e+00    6.468496e+02    5.563560e-01    2.042938e+07    3.028784e-08    8.192510e-11    2.893599e-08   -2.333864e+00
    7.108613e+00    6.674636e+02    5.370910e-01    2.010687e+07    3.022097e-08    7.909905e-11    2.885066e-08   -2.328864e+00
    7.232825e+00    6.885947e+02    5.181765e-01    1.978273e+07    3.015225e-08    7.637140e-11    2.876296e-08   -2.323864e+00
    7.360735e+00    7.102506e+02    4.996128e-01    1.945689e+07    3.008163e-08    7.373845e-11    2.867284e-08   -2.318864e+00
    7.492462e+00    7.324396e+02    4.814017e-01    1.912934e+07    3.000907e-08    7.119670e-11    2.858022e-08   -2.313864e+00
    7.628133e+00    7.551676e+02    4.635445e-01    1.880002e+07    2.993447e-08    6.874280e-11    2.848502e-08   -2.308864e+00
    7.767876e+00    7.784407e+02    4.460424e-01    1.846890e+07    2.985779e-08    6.637360e-11    2.838715e-08   -2.303864e+00
    7.911815e+00    8.022634e+02    4.288969e-01    1.813593e+07    2.977895e-08    6.408590e-11    2.828654e-08   -2.298864e+00
    8.060080e+00    8.266394e+02    4.121093e-01    1.780108e+07    2.969790e-08    6.187680e-11    2.818312e-08   -2.293864e+00
    8.212800e+00    8.515706e+02    3.956810e-01    1.746431e+07    2.961455e-08    5.974350e-11    2.807679e-08   -2.288864e+00
    8.370099e+00    8.770577e+02    3.796133e-01    1.712559e+07    2.952885e-08    5.768315e-11    2.796747e-08   -2.283864e+00
    8.532102e+00    9.030989e+02    3.639075e-01    1.678489e+07    2.944073e-08    5.569320e-11    2.785509e-08   -2.278864e+00
    8.698930e+00    9.296908e+02    3.485648e-01    1.644219e+07    2.935012e-08    5.377110e-11    2.773954e-08   -2.273864e+00
    8.870698e+00    9.568269e+02    3.335865e-01    1.609746e+07    2.925694e-08    5.191445e-11    2.762076e-08   -2.268864e+00
    9.047516e+00    9.844988e+02    3.189737e-01    1.575071e+07    2.916112e-08    5.012090e-11    2.749865e-08   -2.263864e+00
    9.229486e+00    1.012694e+03    3.047276e-01    1.540192e+07    2.906262e-08    4.838822e-11    2.737313e-08   -2.258864e+00
    9.416701e+00    1.041397e+03    2.908492e-01    1.505110e+07    2.896133e-08    4.671425e-11    2.724411e-08   -2.253864e+00
    9.609239e+00    1.070589e+03    2.773395e-01    1.469828e+07    2.885720e-08    4.509692e-11    2.711150e-08   -2.248864e+00
    9.807168e+00    1.100245e+03    2.641992e-01    1.434350e+07    2.875016e-08    4.353424e-11    2.697522e-08   -2.243864e+00
    1.001054e+01    1.130337e+03    2.514292e-01    1.398679e+07    2.864014e-08    4.202431e-11    2.683517e-08   -2.238864e+00
    1.021938e+01    1.160831e+03    2.390300e-01    1.362825e+07    2.852707e-08    4.056529e-11    2.669127e-08   -2.233864e+00
    1.043370e+01    1.191689e+03    2.270020e-01    1.326794e+07    2.841089e-08    3.915541e-11    2.654345e-08   -2.228864e+00
    1.065348e+01    1.222864e+03    2.153454e-01    1.290598e+07    2.829152e-08    3.779297e-11    2.639160e-08   -2.223864e+00
    1.087868e+01    1.254305e+03    2.040602e-01    1.254251e+07    2.816891e-08    3.647634e-11    2.623566e-08   -2.218864e+00
    1.110922e+01    1.285953e+03    1.931461e-01    1.217770e+07    2.804299e-08    3.520394e-11    2.607554e-08   -2.213864e+00
    1.134497e+01    1.317743e+03    1.826029e-01    1.181174e+07    2.791369e-08    3.397425e-11    2.591116e-08   -2.208864e+00
    1.158578e+01    1.349599e+03    1.724296e-01    1.144484e+07    2.778098e-08    3.278583e-11    2.574245e-08   -2.203864e+00
    1.183145e+01    1.381442e+03    1.626252e-01    1.107727e+07    2.764478e-08    3.163727e-11    2.556933e-08   -2.198864e+00
    1.208172e+01    1.413181e+03    1.531881e-01    1.070932e+07    2.750503e-08    3.052721e-11    2.539174e-08   -2.193864e+00
    1.233630e+01    1.444719e+03    1.441168e-01    1.034133e+07    2.736170e-08    2.945436e-11    2.520961e-08   -2.188864e+00
    1.259481e+01    1.475950e+03    1.354087e-01    9.973646e+06    2.721475e-08    2.841748e-11    2.502287e-08   -2.183864e+00
    1.285683e+01    1.506762e+03    1.270613e-01    9.606688e+06    2.706411e-08    2.741533e-11    2.483147e-08   -2.178864e+00
    1.312188e+01    1.537034e+03    1.190715e-01    9.240899e+06    2.690976e-08    2.644679e-11    2.463537e-08   -2.173864e+00
    1.338940e+01    1.566640e+03    1.114356e-01    8.876759e+06    2.675166e-08    2.551071e-11    2.443450e-08   -2.168864e+00
    1.365878e+01    1.595446e+03    1.041495e-01    8.514788e+06    2.658980e-08    2.460602e-11    2.422884e-08   -2.163864e+00
    1.392930e+01    1.623316e+03    9.720840e-02    8.155535e+06    2.642414e-08    2.373169e-11    2.401834e-08   -2.158864e+00
    1.420023e+01    1.650109e+03    9.060715e-02    7.799589e+06    2.625466e-08    2.288670e-11    2.380298e-08   -2.153864e+00
    1.447073e+01    1.675682e+03    8.433995e-02    7.447556e+06    2.608135e-08    2.207010e-11    2.358275e-08   -2.148864e+00
    1.473992e+01    1.699896e+03    7.840035e-02    7.100069e+06    2.590422e-08    2.128096e-11    2.335763e-08   -2.143864e+00
    1.500684e+01    1.722608e+03    7.278140e-02    6.757776e+06    2.572326e-08    2.051836e-11    2.312762e-08   -2.138864e+00
    1.527052e+01    1.743686e+03    6.747555e-02    6.421330e+06    2.553850e-08    1.978145e-11    2.289272e-08   -2.133864e+00
    1.552989e+01    1.762999e+03    6.247475e-02    6.091387e+06    2.534994e-08    1.906939e-11    2.265295e-08   -2.128864e+00
    1.578391e+01    1.780433e+03    5.777030e-02    5.768597e+06    2.515760e-08    1.838137e-11    2.240833e-08   -2.123864e+00
    1.603148e+01    1.795878e+03    5.335320e-02    5.453596e+06    2.496154e-08    1.771662e-11    2.215890e-08   -2.118864e+00
    1.627152e+01    1.809242e+03    4.921374e-02    5.146983e+06    2.476179e-08    1.707436e-11    2.190472e-08   -2.113864e+00
    1.650296e+01    1.820453e+03    4.534196e-02    4.849336e+06    2.455840e-08    1.645390e-11    2.164583e-08   -2.108864e+00
    1.672474e+01    1.829453e+03    4.172746e-02    4.561177e+06    2.435144e-08    1.585451e-11    2.138230e-08   -2.103864e+00
    1.693589e+01    1.836207e+03    3.835954e-02    4.282987e+06    2.414097e-08    1.527552e-11    2.111423e-08   -2.098864e+00
    1.713547e+01    1.840702e+03    3.522724e-02    4.015180e+06    2.392709e-08    1.471628e-11    2.084169e-08   -2.093864e+00
    1.732263e+01    1.842947e+03    3.231945e-02    3.758103e+06    2.370988e-08    1.417614e-11    2.056480e-08   -2.088864e+00
    1.749667e+01    1.842976e+03    2.962490e-02    3.512040e+06    2.348945e-08    1.365450e-11    2.028367e-08   -2.083864e+00
