# sky130 pfet_01v8 gm/ID Processed Lookup Table
# Corner: ff
# Temperature: 0C
# W = 2.0 um
# L = 5.76 um (5760 nm)
# Columns: gm/id [1/V]  gm/gds [V/V]  id/W [A/m]  ft [Hz]  Cgg/W [F/m]  Cgd/W [F/m]  Cgs/W [F/m]  Vov [V]
#         gm/id          gm/gds            id/W              ft           Cgg/W           Cgd/W           Cgs/W             Vov
    2.179271e+00    6.200312e+00    3.756719e+00    3.507510e+07    3.714850e-08    3.370238e-09    3.411055e-08   -2.839374e+00
    2.202616e+00    6.463519e+00    3.715790e+00    3.513700e+07    3.707196e-08    3.269783e-09    3.411465e-08   -2.834374e+00
    2.226211e+00    6.743787e+00    3.674876e+00    3.519418e+07    3.699631e-08    3.171107e-09    3.411799e-08   -2.829374e+00
    2.250050e+00    7.042392e+00    3.633981e+00    3.524639e+07    3.692159e-08    3.074252e-09    3.412055e-08   -2.824374e+00
    2.274128e+00    7.360724e+00    3.593111e+00    3.529342e+07    3.684784e-08    2.979257e-09    3.412233e-08   -2.819374e+00
    2.298437e+00    7.700245e+00    3.552271e+00    3.533501e+07    3.677507e-08    2.886156e-09    3.412334e-08   -2.814374e+00
    2.322968e+00    8.062536e+00    3.511467e+00    3.537094e+07    3.670332e-08    2.794979e-09    3.412358e-08   -2.809374e+00
    2.347718e+00    8.449291e+00    3.470702e+00    3.540100e+07    3.663262e-08    2.705751e-09    3.412304e-08   -2.804374e+00
    2.372674e+00    8.862289e+00    3.429986e+00    3.542495e+07    3.656296e-08    2.618495e-09    3.412172e-08   -2.799374e+00
    2.397833e+00    9.303467e+00    3.389323e+00    3.544262e+07    3.649440e-08    2.533230e-09    3.411963e-08   -2.794374e+00
    2.423186e+00    9.774841e+00    3.348718e+00    3.545382e+07    3.642692e-08    2.449969e-09    3.411678e-08   -2.789374e+00
    2.448725e+00    1.027858e+01    3.308179e+00    3.545837e+07    3.636054e-08    2.368720e-09    3.411316e-08   -2.784374e+00
    2.474444e+00    1.081696e+01    3.267711e+00    3.545613e+07    3.629528e-08    2.289490e-09    3.410880e-08   -2.779374e+00
    2.500337e+00    1.139241e+01    3.227324e+00    3.544697e+07    3.623114e-08    2.212281e-09    3.410367e-08   -2.774374e+00
    2.526395e+00    1.200743e+01    3.187020e+00    3.543074e+07    3.616812e-08    2.137092e-09    3.409780e-08   -2.769374e+00
    2.552618e+00    1.266474e+01    3.146809e+00    3.540742e+07    3.610622e-08    2.063915e-09    3.409120e-08   -2.764374e+00
    2.578997e+00    1.336712e+01    3.106696e+00    3.537687e+07    3.604545e-08    1.992742e-09    3.408388e-08   -2.759374e+00
    2.605531e+00    1.411751e+01    3.066689e+00    3.533907e+07    3.598579e-08    1.923562e-09    3.407583e-08   -2.754374e+00
    2.632218e+00    1.491897e+01    3.026795e+00    3.529402e+07    3.592725e-08    1.856356e-09    3.406707e-08   -2.749374e+00
    2.659057e+00    1.577468e+01    2.987020e+00    3.524170e+07    3.586981e-08    1.791109e-09    3.405760e-08   -2.744374e+00
    2.686046e+00    1.668797e+01    2.947371e+00    3.518214e+07    3.581346e-08    1.727798e-09    3.404746e-08   -2.739374e+00
    2.713189e+00    1.766227e+01    2.907855e+00    3.511539e+07    3.575818e-08    1.666399e-09    3.403662e-08   -2.734374e+00
    2.740487e+00    1.870111e+01    2.868478e+00    3.504151e+07    3.570397e-08    1.606885e-09    3.402511e-08   -2.729374e+00
    2.767944e+00    1.980817e+01    2.829246e+00    3.496060e+07    3.565081e-08    1.549228e-09    3.401294e-08   -2.724374e+00
    2.795563e+00    2.098719e+01    2.790167e+00    3.487274e+07    3.559867e-08    1.493398e-09    3.400011e-08   -2.719374e+00
    2.823354e+00    2.224206e+01    2.751248e+00    3.477808e+07    3.554754e-08    1.439361e-09    3.398664e-08   -2.714374e+00
    2.851321e+00    2.357672e+01    2.712492e+00    3.467674e+07    3.549739e-08    1.387085e-09    3.397252e-08   -2.709374e+00
    2.879475e+00    2.499522e+01    2.673908e+00    3.456891e+07    3.544820e-08    1.336533e-09    3.395780e-08   -2.704374e+00
    2.907823e+00    2.650166e+01    2.635499e+00    3.445469e+07    3.539995e-08    1.287669e-09    3.394244e-08   -2.699374e+00
    2.936377e+00    2.810026e+01    2.597274e+00    3.433430e+07    3.535261e-08    1.240454e-09    3.392648e-08   -2.694374e+00
    2.965149e+00    2.979527e+01    2.559236e+00    3.420791e+07    3.530616e-08    1.194852e-09    3.390991e-08   -2.689374e+00
    2.994151e+00    3.159100e+01    2.521390e+00    3.407571e+07    3.526055e-08    1.150821e-09    3.389276e-08   -2.684374e+00
    3.023397e+00    3.349181e+01    2.483743e+00    3.393787e+07    3.521578e-08    1.108323e-09    3.387501e-08   -2.679374e+00
    3.052900e+00    3.550213e+01    2.446299e+00    3.379462e+07    3.517180e-08    1.067318e-09    3.385670e-08   -2.674374e+00
    3.082673e+00    3.762639e+01    2.409061e+00    3.364610e+07    3.512860e-08    1.027764e-09    3.383779e-08   -2.669374e+00
    3.112737e+00    3.986910e+01    2.372037e+00    3.349257e+07    3.508612e-08    9.896215e-10    3.381833e-08   -2.664374e+00
    3.143101e+00    4.223473e+01    2.335228e+00    3.333416e+07    3.504436e-08    9.528505e-10    3.379830e-08   -2.659374e+00
    3.173787e+00    4.472787e+01    2.298639e+00    3.317112e+07    3.500327e-08    9.174100e-10    3.377771e-08   -2.654374e+00
    3.204807e+00    4.735299e+01    2.262275e+00    3.300357e+07    3.496282e-08    8.832595e-10    3.375657e-08   -2.649374e+00
    3.236182e+00    5.011473e+01    2.226139e+00    3.283174e+07    3.492298e-08    8.503605e-10    3.373488e-08   -2.644374e+00
    3.267929e+00    5.301762e+01    2.190235e+00    3.265580e+07    3.488373e-08    8.186725e-10    3.371263e-08   -2.639374e+00
    3.300066e+00    5.606624e+01    2.154565e+00    3.247593e+07    3.484502e-08    7.881570e-10    3.368983e-08   -2.634374e+00
    3.332607e+00    5.926515e+01    2.119134e+00    3.229224e+07    3.480683e-08    7.587760e-10    3.366649e-08   -2.629374e+00
    3.365578e+00    6.261900e+01    2.083944e+00    3.210496e+07    3.476912e-08    7.304915e-10    3.364260e-08   -2.624374e+00
    3.398996e+00    6.613233e+01    2.048998e+00    3.191423e+07    3.473185e-08    7.032665e-10    3.361816e-08   -2.619374e+00
    3.432879e+00    6.980976e+01    2.014299e+00    3.172018e+07    3.469501e-08    6.770650e-10    3.359317e-08   -2.614374e+00
    3.467245e+00    7.365580e+01    1.979850e+00    3.152293e+07    3.465854e-08    6.518515e-10    3.356763e-08   -2.609374e+00
    3.502119e+00    7.767521e+01    1.945654e+00    3.132268e+07    3.462244e-08    6.275910e-10    3.354153e-08   -2.604374e+00
    3.537519e+00    8.187242e+01    1.911712e+00    3.111951e+07    3.458665e-08    6.042500e-10    3.351488e-08   -2.599374e+00
    3.573463e+00    8.625210e+01    1.878027e+00    3.091354e+07    3.455115e-08    5.817960e-10    3.348766e-08   -2.594374e+00
    3.609977e+00    9.081885e+01    1.844602e+00    3.070491e+07    3.451591e-08    5.601960e-10    3.345987e-08   -2.589374e+00
    3.647080e+00    9.557722e+01    1.811438e+00    3.049372e+07    3.448089e-08    5.394190e-10    3.343150e-08   -2.584374e+00
    3.684793e+00    1.005319e+02    1.778538e+00    3.028007e+07    3.444606e-08    5.194345e-10    3.340256e-08   -2.579374e+00
    3.723145e+00    1.056876e+02    1.745903e+00    3.006408e+07    3.441140e-08    5.002135e-10    3.337302e-08   -2.574374e+00
    3.762150e+00    1.110488e+02    1.713536e+00    2.984581e+07    3.437686e-08    4.817272e-10    3.334287e-08   -2.569374e+00
    3.801841e+00    1.166205e+02    1.681438e+00    2.962540e+07    3.434241e-08    4.639480e-10    3.331213e-08   -2.564374e+00
    3.842236e+00    1.224072e+02    1.649611e+00    2.940289e+07    3.430803e-08    4.468489e-10    3.328076e-08   -2.559374e+00
    3.883363e+00    1.284136e+02    1.618057e+00    2.917837e+07    3.427368e-08    4.304041e-10    3.324876e-08   -2.554374e+00
    3.925244e+00    1.346445e+02    1.586777e+00    2.895192e+07    3.423933e-08    4.145884e-10    3.321611e-08   -2.549374e+00
    3.967907e+00    1.411048e+02    1.555773e+00    2.872359e+07    3.420495e-08    3.993779e-10    3.318280e-08   -2.544374e+00
    4.011382e+00    1.477995e+02    1.525046e+00    2.849348e+07    3.417051e-08    3.847489e-10    3.314882e-08   -2.539374e+00
    4.055694e+00    1.547335e+02    1.494598e+00    2.826164e+07    3.413597e-08    3.706789e-10    3.311415e-08   -2.534374e+00
    4.100873e+00    1.619117e+02    1.464430e+00    2.802812e+07    3.410131e-08    3.571462e-10    3.307878e-08   -2.529374e+00
    4.146946e+00    1.693391e+02    1.434544e+00    2.779298e+07    3.406647e-08    3.441299e-10    3.304268e-08   -2.524374e+00
    4.193946e+00    1.770211e+02    1.404941e+00    2.755626e+07    3.403146e-08    3.316096e-10    3.300584e-08   -2.519374e+00
    4.241908e+00    1.849630e+02    1.375622e+00    2.731806e+07    3.399622e-08    3.195660e-10    3.296824e-08   -2.514374e+00
    4.290860e+00    1.931699e+02    1.346588e+00    2.707836e+07    3.396071e-08    3.079802e-10    3.292986e-08   -2.509374e+00
    4.340833e+00    2.016472e+02    1.317842e+00    2.683722e+07    3.392492e-08    2.968343e-10    3.289068e-08   -2.504374e+00
    4.391868e+00    2.104007e+02    1.289383e+00    2.659470e+07    3.388880e-08    2.861110e-10    3.285067e-08   -2.499374e+00
    4.443996e+00    2.194359e+02    1.261214e+00    2.635082e+07    3.385232e-08    2.757935e-10    3.280982e-08   -2.494374e+00
    4.497260e+00    2.287588e+02    1.233335e+00    2.610563e+07    3.381545e-08    2.658659e-10    3.276808e-08   -2.489374e+00
    4.551693e+00    2.383749e+02    1.205748e+00    2.585912e+07    3.377815e-08    2.563126e-10    3.272545e-08   -2.484374e+00
    4.607343e+00    2.482908e+02    1.178454e+00    2.561138e+07    3.374039e-08    2.471189e-10    3.268188e-08   -2.479374e+00
    4.664242e+00    2.585121e+02    1.151453e+00    2.536237e+07    3.370214e-08    2.382706e-10    3.263736e-08   -2.474374e+00
    4.722442e+00    2.690457e+02    1.124748e+00    2.511219e+07    3.366335e-08    2.297541e-10    3.259185e-08   -2.469374e+00
    4.781980e+00    2.798977e+02    1.098338e+00    2.486078e+07    3.362399e-08    2.215561e-10    3.254532e-08   -2.464374e+00
    4.842909e+00    2.910750e+02    1.072226e+00    2.460820e+07    3.358401e-08    2.136642e-10    3.249774e-08   -2.459374e+00
    4.905279e+00    3.025847e+02    1.046412e+00    2.435450e+07    3.354340e-08    2.060663e-10    3.244908e-08   -2.454374e+00
    4.969133e+00    3.144332e+02    1.020897e+00    2.409963e+07    3.350209e-08    1.987506e-10    3.239929e-08   -2.449374e+00
    5.034529e+00    3.266283e+02    9.956820e-01    2.384365e+07    3.346008e-08    1.917062e-10    3.234835e-08   -2.444374e+00
    5.101516e+00    3.391768e+02    9.707690e-01    2.358653e+07    3.341729e-08    1.849223e-10    3.229621e-08   -2.439374e+00
    5.170155e+00    3.520868e+02    9.461585e-01    2.332831e+07    3.337369e-08    1.783887e-10    3.224284e-08   -2.434374e+00
    5.240506e+00    3.653659e+02    9.218515e-01    2.306900e+07    3.332925e-08    1.720956e-10    3.218820e-08   -2.429374e+00
    5.312627e+00    3.790220e+02    8.978490e-01    2.280858e+07    3.328393e-08    1.660335e-10    3.213223e-08   -2.424374e+00
    5.386581e+00    3.930635e+02    8.741525e-01    2.254706e+07    3.323767e-08    1.601934e-10    3.207490e-08   -2.419374e+00
    5.462436e+00    4.074985e+02    8.507625e-01    2.228445e+07    3.319043e-08    1.545666e-10    3.201617e-08   -2.414374e+00
    5.540258e+00    4.223358e+02    8.276805e-01    2.202073e+07    3.314218e-08    1.491449e-10    3.195598e-08   -2.409374e+00
    5.620120e+00    4.375841e+02    8.049075e-01    2.175592e+07    3.309286e-08    1.439201e-10    3.189428e-08   -2.404374e+00
    5.702098e+00    4.532522e+02    7.824440e-01    2.148999e+07    3.304242e-08    1.388848e-10    3.183103e-08   -2.399374e+00
    5.786262e+00    4.693493e+02    7.602920e-01    2.122294e+07    3.299081e-08    1.340314e-10    3.176618e-08   -2.394374e+00
    5.872697e+00    4.858846e+02    7.384520e-01    2.095477e+07    3.293800e-08    1.293531e-10    3.169966e-08   -2.389374e+00
    5.961487e+00    5.028678e+02    7.169250e-01    2.068545e+07    3.288392e-08    1.248431e-10    3.163143e-08   -2.384374e+00
    6.052709e+00    5.203080e+02    6.957130e-01    2.041497e+07    3.282852e-08    1.204949e-10    3.156143e-08   -2.379374e+00
    6.146461e+00    5.382148e+02    6.748160e-01    2.014332e+07    3.277176e-08    1.163022e-10    3.148959e-08   -2.374374e+00
    6.242829e+00    5.565985e+02    6.542360e-01    1.987047e+07    3.271357e-08    1.122592e-10    3.141586e-08   -2.369374e+00
    6.341913e+00    5.754683e+02    6.339735e-01    1.959640e+07    3.265391e-08    1.083601e-10    3.134017e-08   -2.364374e+00
    6.443802e+00    5.948341e+02    6.140305e-01    1.932110e+07    3.259271e-08    1.045995e-10    3.126247e-08   -2.359374e+00
    6.548611e+00    6.147060e+02    5.944070e-01    1.904453e+07    3.252991e-08    1.009720e-10    3.118267e-08   -2.354374e+00
    6.656429e+00    6.350933e+02    5.751055e-01    1.876667e+07    3.246548e-08    9.747270e-11    3.110072e-08   -2.349374e+00
    6.767379e+00    6.560053e+02    5.561260e-01    1.848749e+07    3.239932e-08    9.409675e-11    3.101655e-08   -2.344374e+00
    6.881563e+00    6.774513e+02    5.374705e-01    1.820696e+07    3.233140e-08    9.083950e-11    3.093008e-08   -2.339374e+00
    6.999096e+00    6.994400e+02    5.191400e-01    1.792504e+07    3.226164e-08    8.769650e-11    3.084124e-08   -2.334374e+00
    7.120091e+00    7.219809e+02    5.011360e-01    1.764171e+07    3.218998e-08    8.466345e-11    3.074995e-08   -2.329374e+00
    7.244676e+00    7.450811e+02    4.834592e-01    1.735692e+07    3.211636e-08    8.173630e-11    3.065614e-08   -2.324374e+00
    7.372968e+00    7.687482e+02    4.661113e-01    1.707065e+07    3.204071e-08    7.891110e-11    3.055973e-08   -2.319374e+00
    7.505090e+00    7.929889e+02    4.490934e-01    1.678285e+07    3.196296e-08    7.618410e-11    3.046064e-08   -2.314374e+00
    7.641171e+00    8.178091e+02    4.324069e-01    1.649350e+07    3.188304e-08    7.355165e-11    3.035878e-08   -2.309374e+00
    7.781334e+00    8.432132e+02    4.160529e-01    1.620255e+07    3.180090e-08    7.101030e-11    3.025408e-08   -2.304374e+00
    7.925710e+00    8.692047e+02    4.000328e-01    1.590997e+07    3.171644e-08    6.855670e-11    3.014645e-08   -2.299374e+00
    8.074425e+00    8.957854e+02    3.843479e-01    1.561573e+07    3.162961e-08    6.618765e-11    3.003579e-08   -2.294374e+00
    8.227608e+00    9.229558e+02    3.689994e-01    1.531979e+07    3.154034e-08    6.390010e-11    2.992204e-08   -2.289374e+00
    8.385384e+00    9.507139e+02    3.539885e-01    1.502213e+07    3.144854e-08    6.169105e-11    2.980509e-08   -2.284374e+00
    8.547878e+00    9.790562e+02    3.393164e-01    1.472273e+07    3.135416e-08    5.955770e-11    2.968485e-08   -2.279374e+00
    8.715208e+00    1.007976e+03    3.249845e-01    1.442155e+07    3.125710e-08    5.749735e-11    2.956124e-08   -2.274374e+00
    8.887491e+00    1.037464e+03    3.109938e-01    1.411859e+07    3.115729e-08    5.550730e-11    2.943416e-08   -2.269374e+00
    9.064836e+00    1.067507e+03    2.973453e-01    1.381383e+07    3.105468e-08    5.358510e-11    2.930353e-08   -2.264374e+00
    9.247343e+00    1.098090e+03    2.840402e-01    1.350728e+07    3.094917e-08    5.172835e-11    2.916924e-08   -2.259374e+00
    9.435105e+00    1.129193e+03    2.710794e-01    1.319895e+07    3.084069e-08    4.993468e-11    2.903120e-08   -2.254374e+00
    9.628198e+00    1.160791e+03    2.584639e-01    1.288885e+07    3.072918e-08    4.820190e-11    2.888933e-08   -2.249374e+00
    9.826690e+00    1.192856e+03    2.461943e-01    1.257701e+07    3.061454e-08    4.652784e-11    2.874353e-08   -2.244374e+00
    1.003063e+01    1.225351e+03    2.342713e-01    1.226350e+07    3.049673e-08    4.491045e-11    2.859371e-08   -2.239374e+00
    1.024004e+01    1.258239e+03    2.226956e-01    1.194835e+07    3.037565e-08    4.334775e-11    2.843977e-08   -2.234374e+00
    1.045494e+01    1.291470e+03    2.114673e-01    1.163166e+07    3.025124e-08    4.183784e-11    2.828163e-08   -2.229374e+00
    1.067529e+01    1.324994e+03    2.005868e-01    1.131352e+07    3.012342e-08    4.037887e-11    2.811920e-08   -2.224374e+00
    1.090105e+01    1.358749e+03    1.900541e-01    1.099406e+07    2.999214e-08    3.896909e-11    2.795237e-08   -2.219374e+00
    1.113214e+01    1.392669e+03    1.798688e-01    1.067343e+07    2.985732e-08    3.760682e-11    2.778109e-08   -2.214374e+00
    1.136844e+01    1.426677e+03    1.700306e-01    1.035179e+07    2.971889e-08    3.629041e-11    2.760526e-08   -2.209374e+00
    1.160977e+01    1.460691e+03    1.605387e-01    1.002934e+07    2.957681e-08    3.501829e-11    2.742479e-08   -2.204374e+00
    1.185595e+01    1.494617e+03    1.513920e-01    9.706319e+06    2.943099e-08    3.378895e-11    2.723962e-08   -2.199374e+00
    1.210670e+01    1.528356e+03    1.425892e-01    9.382982e+06    2.928139e-08    3.260094e-11    2.704966e-08   -2.194374e+00
    1.236172e+01    1.561799e+03    1.341285e-01    9.059618e+06    2.912797e-08    3.145287e-11    2.685486e-08   -2.189374e+00
    1.262063e+01    1.594830e+03    1.260079e-01    8.736561e+06    2.897066e-08    3.034337e-11    2.665514e-08   -2.184374e+00
    1.288302e+01    1.627322e+03    1.182246e-01    8.414167e+06    2.880943e-08    2.927117e-11    2.645044e-08   -2.179374e+00
    1.314838e+01    1.659146e+03    1.107759e-01    8.092830e+06    2.864423e-08    2.823500e-11    2.624071e-08   -2.174374e+00
    1.341615e+01    1.690162e+03    1.036582e-01    7.772978e+06    2.847503e-08    2.723366e-11    2.602590e-08   -2.169374e+00
    1.368570e+01    1.720227e+03    9.686755e-02    7.455067e+06    2.830179e-08    2.626599e-11    2.580597e-08   -2.164374e+00
    1.395634e+01    1.749192e+03    9.039960e-02    7.139589e+06    2.812451e-08    2.533087e-11    2.558088e-08   -2.159374e+00
    1.422731e+01    1.776908e+03    8.424930e-02    6.827060e+06    2.794315e-08    2.442722e-11    2.535060e-08   -2.154374e+00
    1.449775e+01    1.803222e+03    7.841125e-02    6.518015e+06    2.775772e-08    2.355401e-11    2.511512e-08   -2.149374e+00
    1.476678e+01    1.827987e+03    7.287935e-02    6.213012e+06    2.756820e-08    2.271023e-11    2.487442e-08   -2.144374e+00
    1.503346e+01    1.851056e+03    6.764705e-02    5.912622e+06    2.737460e-08    2.189491e-11    2.462850e-08   -2.139374e+00
    1.529678e+01    1.872288e+03    6.270720e-02    5.617423e+06    2.717693e-08    2.110712e-11    2.437738e-08   -2.134374e+00
    1.555568e+01    1.891552e+03    5.805225e-02    5.327991e+06    2.697521e-08    2.034596e-11    2.412106e-08   -2.129374e+00
    1.580913e+01    1.908730e+03    5.367400e-02    5.044894e+06    2.676948e-08    1.961058e-11    2.385958e-08   -2.124374e+00
    1.605602e+01    1.923717e+03    4.956390e-02    4.768691e+06    2.655977e-08    1.890010e-11    2.359297e-08   -2.119374e+00
    1.629526e+01    1.936423e+03    4.571294e-02    4.499908e+06    2.634613e-08    1.821376e-11    2.332129e-08   -2.114374e+00
    1.652578e+01    1.946777e+03    4.211167e-02    4.239045e+06    2.612862e-08    1.755074e-11    2.304460e-08   -2.109374e+00
    1.674655e+01    1.954733e+03    3.875035e-02    3.986565e+06    2.590730e-08    1.691030e-11    2.276298e-08   -2.104374e+00
    1.695657e+01    1.960264e+03    3.561893e-02    3.742880e+06    2.568225e-08    1.629172e-11    2.247651e-08   -2.099374e+00
    1.715494e+01    1.963368e+03    3.270714e-02    3.508351e+06    2.545358e-08    1.569427e-11    2.218529e-08   -2.094374e+00
    1.734081e+01    1.964068e+03    3.000454e-02    3.283281e+06    2.522136e-08    1.511729e-11    2.188945e-08   -2.089374e+00
    1.751348e+01    1.962413e+03    2.750059e-02    3.067912e+06    2.498571e-08    1.456012e-11    2.158909e-08   -2.084374e+00
