# sky130 pfet_01v8 gm/ID Processed Lookup Table
# Corner: ff
# Temperature: 0C
# W = 2.0 um
# L = 1.26 um (1260 nm)
# Columns: gm/id [1/V]  gm/gds [V/V]  id/W [A/m]  ft [Hz]  Cgg/W [F/m]  Cgd/W [F/m]  Cgs/W [F/m]  Vov [V]
#         gm/id          gm/gds            id/W              ft           Cgg/W           Cgd/W           Cgs/W             Vov
    1.989889e+00    3.993842e+00    1.806102e+01    7.044315e+08    8.119935e-09    5.814010e-10    7.493565e-09   -2.813799e+00
    2.011632e+00    4.121742e+00    1.788124e+01    7.061581e+08    8.107080e-09    5.639695e-10    7.494425e-09   -2.808799e+00
    2.033677e+00    4.256297e+00    1.770132e+01    7.078194e+08    8.094410e-09    5.469080e-10    7.495130e-09   -2.803799e+00
    2.056023e+00    4.397936e+00    1.752126e+01    7.094112e+08    8.081935e-09    5.302195e-10    7.495670e-09   -2.798799e+00
    2.078669e+00    4.547107e+00    1.734109e+01    7.109302e+08    8.069650e-09    5.139050e-10    7.496060e-09   -2.793799e+00
    2.101614e+00    4.704286e+00    1.716080e+01    7.123725e+08    8.057560e-09    4.979660e-10    7.496290e-09   -2.788799e+00
    2.124856e+00    4.869978e+00    1.698043e+01    7.137343e+08    8.045665e-09    4.824024e-10    7.496365e-09   -2.783799e+00
    2.148393e+00    5.044722e+00    1.680000e+01    7.150121e+08    8.033960e-09    4.672141e-10    7.496285e-09   -2.778799e+00
    2.172220e+00    5.229078e+00    1.661951e+01    7.162011e+08    8.022455e-09    4.524004e-10    7.496050e-09   -2.773799e+00
    2.196335e+00    5.423642e+00    1.643899e+01    7.172972e+08    8.011150e-09    4.379599e-10    7.495665e-09   -2.768799e+00
    2.220733e+00    5.629041e+00    1.625847e+01    7.182971e+08    8.000035e-09    4.238907e-10    7.495130e-09   -2.763799e+00
    2.245410e+00    5.845926e+00    1.607794e+01    7.191966e+08    7.989115e-09    4.101902e-10    7.494450e-09   -2.758799e+00
    2.270360e+00    6.074979e+00    1.589745e+01    7.199911e+08    7.978390e-09    3.968557e-10    7.493620e-09   -2.753799e+00
    2.295577e+00    6.316920e+00    1.571702e+01    7.206767e+08    7.967860e-09    3.838836e-10    7.492645e-09   -2.748799e+00
    2.321055e+00    6.572486e+00    1.553667e+01    7.212501e+08    7.957515e-09    3.712703e-10    7.491530e-09   -2.743799e+00
    2.346788e+00    6.842442e+00    1.535641e+01    7.217071e+08    7.947360e-09    3.590114e-10    7.490275e-09   -2.738799e+00
    2.372770e+00    7.127565e+00    1.517630e+01    7.220436e+08    7.937395e-09    3.471023e-10    7.488875e-09   -2.733799e+00
    2.398993e+00    7.428683e+00    1.499633e+01    7.222570e+08    7.927610e-09    3.355381e-10    7.487345e-09   -2.728799e+00
    2.425452e+00    7.746607e+00    1.481654e+01    7.223437e+08    7.918005e-09    3.243135e-10    7.485680e-09   -2.723799e+00
    2.452139e+00    8.082178e+00    1.463697e+01    7.223007e+08    7.908575e-09    3.134229e-10    7.483880e-09   -2.718799e+00
    2.479048e+00    8.436247e+00    1.445763e+01    7.221248e+08    7.899325e-09    3.028606e-10    7.481950e-09   -2.713799e+00
    2.506173e+00    8.809664e+00    1.427857e+01    7.218145e+08    7.890240e-09    2.926205e-10    7.479895e-09   -2.708799e+00
    2.533510e+00    9.203279e+00    1.409980e+01    7.213669e+08    7.881325e-09    2.826962e-10    7.477710e-09   -2.703799e+00
    2.561051e+00    9.617938e+00    1.392136e+01    7.207810e+08    7.872570e-09    2.730814e-10    7.475400e-09   -2.698799e+00
    2.588794e+00    1.005447e+01    1.374328e+01    7.200551e+08    7.863975e-09    2.637695e-10    7.472970e-09   -2.693799e+00
    2.616736e+00    1.051370e+01    1.356558e+01    7.191887e+08    7.855530e-09    2.547539e-10    7.470420e-09   -2.688799e+00
    2.644872e+00    1.099642e+01    1.338831e+01    7.181805e+08    7.847240e-09    2.460276e-10    7.467750e-09   -2.683799e+00
    2.673203e+00    1.150338e+01    1.321149e+01    7.170311e+08    7.839095e-09    2.375838e-10    7.464965e-09   -2.678799e+00
    2.701729e+00    1.203533e+01    1.303515e+01    7.157407e+08    7.831090e-09    2.294157e-10    7.462060e-09   -2.673799e+00
    2.730449e+00    1.259295e+01    1.285933e+01    7.143101e+08    7.823220e-09    2.215162e-10    7.459045e-09   -2.668799e+00
    2.759367e+00    1.317690e+01    1.268404e+01    7.127402e+08    7.815485e-09    2.138783e-10    7.455920e-09   -2.663799e+00
    2.788484e+00    1.378777e+01    1.250934e+01    7.110327e+08    7.807875e-09    2.064951e-10    7.452685e-09   -2.658799e+00
    2.817806e+00    1.442613e+01    1.233523e+01    7.091897e+08    7.800385e-09    1.993597e-10    7.449335e-09   -2.653799e+00
    2.847338e+00    1.509247e+01    1.216176e+01    7.072127e+08    7.793015e-09    1.924652e-10    7.445885e-09   -2.648799e+00
    2.877086e+00    1.578724e+01    1.198896e+01    7.051047e+08    7.785755e-09    1.858047e-10    7.442325e-09   -2.643799e+00
    2.907061e+00    1.651084e+01    1.181684e+01    7.028686e+08    7.778600e-09    1.793713e-10    7.438660e-09   -2.638799e+00
    2.937270e+00    1.726362e+01    1.164544e+01    7.005067e+08    7.771550e-09    1.731584e-10    7.434890e-09   -2.633799e+00
    2.967723e+00    1.804586e+01    1.147479e+01    6.980221e+08    7.764600e-09    1.671594e-10    7.431015e-09   -2.628799e+00
    2.998433e+00    1.885781e+01    1.130491e+01    6.954186e+08    7.757740e-09    1.613677e-10    7.427040e-09   -2.623799e+00
    3.029410e+00    1.969967e+01    1.113583e+01    6.926995e+08    7.750965e-09    1.557768e-10    7.422960e-09   -2.618799e+00
    3.060667e+00    2.057159e+01    1.096757e+01    6.898683e+08    7.744270e-09    1.503805e-10    7.418780e-09   -2.613799e+00
    3.092222e+00    2.147369e+01    1.080016e+01    6.869283e+08    7.737655e-09    1.451726e-10    7.414495e-09   -2.608799e+00
    3.124085e+00    2.240606e+01    1.063361e+01    6.838827e+08    7.731115e-09    1.401470e-10    7.410115e-09   -2.603799e+00
    3.156274e+00    2.336874e+01    1.046796e+01    6.807358e+08    7.724640e-09    1.352978e-10    7.405630e-09   -2.598799e+00
    3.188804e+00    2.436178e+01    1.030322e+01    6.774910e+08    7.718225e-09    1.306190e-10    7.401045e-09   -2.593799e+00
    3.221692e+00    2.538518e+01    1.013941e+01    6.741513e+08    7.711870e-09    1.261051e-10    7.396355e-09   -2.588799e+00
    3.254956e+00    2.643895e+01    9.976565e+00    6.707208e+08    7.705565e-09    1.217506e-10    7.391570e-09   -2.583799e+00
    3.288612e+00    2.752308e+01    9.814690e+00    6.672027e+08    7.699305e-09    1.175500e-10    7.386680e-09   -2.578799e+00
    3.322680e+00    2.863759e+01    9.653805e+00    6.636000e+08    7.693090e-09    1.134981e-10    7.381685e-09   -2.573799e+00
    3.357178e+00    2.978244e+01    9.493930e+00    6.599157e+08    7.686915e-09    1.095896e-10    7.376590e-09   -2.568799e+00
    3.392125e+00    3.095766e+01    9.335085e+00    6.561540e+08    7.680765e-09    1.058198e-10    7.371390e-09   -2.563799e+00
    3.427542e+00    3.216328e+01    9.177280e+00    6.523164e+08    7.674650e-09    1.021838e-10    7.366085e-09   -2.558799e+00
    3.463448e+00    3.339933e+01    9.020535e+00    6.484071e+08    7.668550e-09    9.867670e-11    7.360675e-09   -2.553799e+00
    3.499865e+00    3.466586e+01    8.864860e+00    6.444277e+08    7.662475e-09    9.529420e-11    7.355160e-09   -2.548799e+00
    3.536811e+00    3.596298e+01    8.710280e+00    6.403820e+08    7.656405e-09    9.203180e-11    7.349530e-09   -2.543799e+00
    3.574310e+00    3.729079e+01    8.556800e+00    6.362715e+08    7.650350e-09    8.888520e-11    7.343795e-09   -2.538799e+00
    3.612385e+00    3.864945e+01    8.404435e+00    6.320996e+08    7.644290e-09    8.585030e-11    7.337945e-09   -2.533799e+00
    3.651054e+00    4.003914e+01    8.253205e+00    6.278675e+08    7.638235e-09    8.292310e-11    7.331980e-09   -2.528799e+00
    3.690346e+00    4.146007e+01    8.103110e+00    6.235786e+08    7.632165e-09    8.009965e-11    7.325900e-09   -2.523799e+00
    3.730278e+00    4.291252e+01    7.954175e+00    6.192337e+08    7.626090e-09    7.737625e-11    7.319700e-09   -2.518799e+00
    3.770879e+00    4.439683e+01    7.806405e+00    6.148362e+08    7.619990e-09    7.474930e-11    7.313380e-09   -2.513799e+00
    3.812172e+00    4.591326e+01    7.659810e+00    6.103865e+08    7.613875e-09    7.221530e-11    7.306935e-09   -2.508799e+00
    3.854185e+00    4.746229e+01    7.514400e+00    6.058878e+08    7.607725e-09    6.977080e-11    7.300365e-09   -2.503799e+00
    3.896938e+00    4.904429e+01    7.370195e+00    6.013405e+08    7.601550e-09    6.741265e-11    7.293665e-09   -2.498799e+00
    3.940463e+00    5.065978e+01    7.227195e+00    5.967474e+08    7.595330e-09    6.513755e-11    7.286835e-09   -2.493799e+00
    3.984788e+00    5.230929e+01    7.085410e+00    5.921092e+08    7.589070e-09    6.294260e-11    7.279865e-09   -2.488799e+00
    4.029938e+00    5.399343e+01    6.944855e+00    5.874276e+08    7.582760e-09    6.082480e-11    7.272760e-09   -2.483799e+00
    4.075943e+00    5.571280e+01    6.805540e+00    5.827042e+08    7.576395e-09    5.878130e-11    7.265510e-09   -2.478799e+00
    4.122832e+00    5.746811e+01    6.667470e+00    5.779396e+08    7.569975e-09    5.680945e-11    7.258115e-09   -2.473799e+00
    4.170639e+00    5.926010e+01    6.530655e+00    5.731358e+08    7.563485e-09    5.490660e-11    7.250565e-09   -2.468799e+00
    4.219394e+00    6.108956e+01    6.395105e+00    5.682936e+08    7.556925e-09    5.307015e-11    7.242860e-09   -2.463799e+00
    4.269131e+00    6.295737e+01    6.260825e+00    5.634139e+08    7.550290e-09    5.129775e-11    7.235000e-09   -2.458799e+00
    4.319885e+00    6.486439e+01    6.127825e+00    5.584982e+08    7.543570e-09    4.958702e-11    7.226970e-09   -2.453799e+00
    4.371693e+00    6.681163e+01    5.996110e+00    5.535468e+08    7.536765e-09    4.793568e-11    7.218775e-09   -2.448799e+00
    4.424585e+00    6.880009e+01    5.865695e+00    5.485614e+08    7.529860e-09    4.634157e-11    7.210405e-09   -2.443799e+00
    4.478607e+00    7.083087e+01    5.736580e+00    5.435420e+08    7.522860e-09    4.480259e-11    7.201850e-09   -2.438799e+00
    4.533790e+00    7.290508e+01    5.608780e+00    5.384899e+08    7.515750e-09    4.331672e-11    7.193110e-09   -2.433799e+00
    4.590183e+00    7.502397e+01    5.482295e+00    5.334056e+08    7.508530e-09    4.188202e-11    7.184180e-09   -2.428799e+00
    4.647825e+00    7.718878e+01    5.357135e+00    5.282903e+08    7.501185e-09    4.049661e-11    7.175055e-09   -2.423799e+00
    4.706762e+00    7.940087e+01    5.233305e+00    5.231440e+08    7.493715e-09    3.915871e-11    7.165720e-09   -2.418799e+00
    4.767037e+00    8.166164e+01    5.110815e+00    5.179676e+08    7.486110e-09    3.786658e-11    7.156175e-09   -2.413799e+00
    4.828697e+00    8.397254e+01    4.989673e+00    5.127615e+08    7.478365e-09    3.661855e-11    7.146410e-09   -2.408799e+00
    4.891793e+00    8.633512e+01    4.869882e+00    5.075262e+08    7.470475e-09    3.541301e-11    7.136420e-09   -2.403799e+00
    4.956376e+00    8.875101e+01    4.751450e+00    5.022623e+08    7.462425e-09    3.424843e-11    7.126195e-09   -2.398799e+00
    5.022500e+00    9.122191e+01    4.634385e+00    4.969700e+08    7.454215e-09    3.312332e-11    7.115730e-09   -2.393799e+00
    5.090220e+00    9.374956e+01    4.518691e+00    4.916502e+08    7.445830e-09    3.203626e-11    7.105020e-09   -2.388799e+00
    5.159594e+00    9.633581e+01    4.404375e+00    4.863023e+08    7.437270e-09    3.098587e-11    7.094045e-09   -2.383799e+00
    5.230680e+00    9.898260e+01    4.291445e+00    4.809274e+08    7.428520e-09    2.997083e-11    7.082805e-09   -2.378799e+00
    5.303542e+00    1.016919e+02    4.179905e+00    4.755256e+08    7.419570e-09    2.898987e-11    7.071285e-09   -2.373799e+00
    5.378246e+00    1.044659e+02    4.069764e+00    4.700967e+08    7.410420e-09    2.804176e-11    7.059480e-09   -2.368799e+00
    5.454857e+00    1.073067e+02    3.961026e+00    4.646410e+08    7.401055e-09    2.712535e-11    7.047385e-09   -2.363799e+00
    5.533445e+00    1.102166e+02    3.853697e+00    4.591584e+08    7.391470e-09    2.623948e-11    7.034975e-09   -2.358799e+00
    5.614086e+00    1.131979e+02    3.747785e+00    4.536498e+08    7.381645e-09    2.538308e-11    7.022255e-09   -2.353799e+00
    5.696855e+00    1.162532e+02    3.643296e+00    4.481143e+08    7.371585e-09    2.455509e-11    7.009200e-09   -2.348799e+00
    5.781827e+00    1.193849e+02    3.540234e+00    4.425522e+08    7.361270e-09    2.375451e-11    6.995810e-09   -2.343799e+00
    5.869088e+00    1.225958e+02    3.438608e+00    4.369636e+08    7.350690e-09    2.298037e-11    6.982065e-09   -2.338799e+00
    5.958722e+00    1.258885e+02    3.338422e+00    4.313480e+08    7.339840e-09    2.223174e-11    6.967960e-09   -2.333799e+00
    6.050817e+00    1.292660e+02    3.239683e+00    4.257056e+08    7.328705e-09    2.150772e-11    6.953475e-09   -2.328799e+00
    6.145466e+00    1.327311e+02    3.142397e+00    4.200360e+08    7.317275e-09    2.080745e-11    6.938600e-09   -2.323799e+00
    6.242763e+00    1.362870e+02    3.046570e+00    4.143389e+08    7.305540e-09    2.013011e-11    6.923325e-09   -2.318799e+00
    6.342806e+00    1.399368e+02    2.952208e+00    4.086142e+08    7.293485e-09    1.947488e-11    6.907635e-09   -2.313799e+00
    6.445697e+00    1.436837e+02    2.859319e+00    4.028614e+08    7.281100e-09    1.884101e-11    6.891510e-09   -2.308799e+00
    6.551545e+00    1.475312e+02    2.767908e+00    3.970803e+08    7.268370e-09    1.822774e-11    6.874940e-09   -2.303799e+00
    6.660457e+00    1.514826e+02    2.677980e+00    3.912704e+08    7.255285e-09    1.763438e-11    6.857905e-09   -2.298799e+00
    6.772547e+00    1.555416e+02    2.589544e+00    3.854311e+08    7.241835e-09    1.706024e-11    6.840400e-09   -2.293799e+00
    6.887928e+00    1.597117e+02    2.502605e+00    3.795621e+08    7.228000e-09    1.650466e-11    6.822400e-09   -2.288799e+00
    7.006723e+00    1.639966e+02    2.417169e+00    3.736627e+08    7.213770e-09    1.596699e-11    6.803885e-09   -2.283799e+00
    7.129057e+00    1.684002e+02    2.333242e+00    3.677325e+08    7.199130e-09    1.544663e-11    6.784850e-09   -2.278799e+00
    7.255053e+00    1.729263e+02    2.250833e+00    3.617707e+08    7.184070e-09    1.494301e-11    6.765270e-09   -2.273799e+00
    7.384844e+00    1.775788e+02    2.169945e+00    3.557771e+08    7.168565e-09    1.445553e-11    6.745130e-09   -2.268799e+00
    7.518556e+00    1.823617e+02    2.090587e+00    3.497505e+08    7.152610e-09    1.398367e-11    6.724405e-09   -2.263799e+00
    7.656332e+00    1.872790e+02    2.012765e+00    3.436906e+08    7.136190e-09    1.352689e-11    6.703085e-09   -2.258799e+00
    7.798305e+00    1.923345e+02    1.936486e+00    3.375967e+08    7.119285e-09    1.308469e-11    6.681150e-09   -2.253799e+00
    7.944614e+00    1.975321e+02    1.861755e+00    3.314683e+08    7.101880e-09    1.265658e-11    6.658575e-09   -2.248799e+00
    8.095398e+00    2.028761e+02    1.788579e+00    3.253049e+08    7.083955e-09    1.224210e-11    6.635345e-09   -2.243799e+00
    8.250796e+00    2.083698e+02    1.716964e+00    3.191053e+08    7.065505e-09    1.184079e-11    6.611435e-09   -2.238799e+00
    8.410950e+00    2.140171e+02    1.646918e+00    3.128695e+08    7.046505e-09    1.145221e-11    6.586835e-09   -2.233799e+00
    8.575994e+00    2.198213e+02    1.578445e+00    3.065968e+08    7.026940e-09    1.107595e-11    6.561510e-09   -2.228799e+00
    8.746064e+00    2.257860e+02    1.511552e+00    3.002869e+08    7.006795e-09    1.071161e-11    6.535450e-09   -2.223799e+00
    8.921290e+00    2.319138e+02    1.446246e+00    2.939396e+08    6.986050e-09    1.035878e-11    6.508630e-09   -2.218799e+00
    9.101806e+00    2.382081e+02    1.382530e+00    2.875549e+08    6.964685e-09    1.001710e-11    6.481025e-09   -2.213799e+00
    9.287715e+00    2.446701e+02    1.320412e+00    2.811321e+08    6.942695e-09    9.686205e-12    6.452620e-09   -2.208799e+00
    9.479143e+00    2.513023e+02    1.259896e+00    2.746721e+08    6.920050e-09    9.365745e-12    6.423390e-09   -2.203799e+00
    9.676179e+00    2.581056e+02    1.200986e+00    2.681749e+08    6.896740e-09    9.055385e-12    6.393310e-09   -2.198799e+00
    9.878905e+00    2.650804e+02    1.143687e+00    2.616414e+08    6.872740e-09    8.754800e-12    6.362360e-09   -2.193799e+00
    1.008739e+01    2.722266e+02    1.088004e+00    2.550720e+08    6.848045e-09    8.463675e-12    6.330525e-09   -2.188799e+00
    1.030170e+01    2.795429e+02    1.033937e+00    2.484687e+08    6.822625e-09    8.181715e-12    6.297770e-09   -2.183799e+00
    1.052184e+01    2.870270e+02    9.814910e-01    2.418323e+08    6.796475e-09    7.908615e-12    6.264085e-09   -2.178799e+00
    1.074782e+01    2.946756e+02    9.306665e-01    2.351656e+08    6.769565e-09    7.644110e-12    6.229440e-09   -2.173799e+00
    1.097960e+01    3.024837e+02    8.814645e-01    2.284704e+08    6.741890e-09    7.387915e-12    6.193820e-09   -2.168799e+00
    1.121713e+01    3.104453e+02    8.338850e-01    2.217501e+08    6.713425e-09    7.139780e-12    6.157200e-09   -2.163799e+00
    1.146030e+01    3.185528e+02    7.879260e-01    2.150079e+08    6.684165e-09    6.899445e-12    6.119560e-09   -2.158799e+00
    1.170896e+01    3.267961e+02    7.435850e-01    2.082482e+08    6.654080e-09    6.666665e-12    6.080885e-09   -2.153799e+00
    1.196292e+01    3.351641e+02    7.008585e-01    2.014753e+08    6.623170e-09    6.441215e-12    6.041145e-09   -2.148799e+00
    1.222194e+01    3.436432e+02    6.597400e-01    1.946950e+08    6.591410e-09    6.222860e-12    6.000335e-09   -2.143799e+00
    1.248571e+01    3.522174e+02    6.202225e-01    1.879132e+08    6.558790e-09    6.011380e-12    5.958425e-09   -2.138799e+00
    1.275386e+01    3.608687e+02    5.822975e-01    1.811366e+08    6.525300e-09    5.806565e-12    5.915405e-09   -2.133799e+00
    1.302597e+01    3.695767e+02    5.459530e-01    1.743729e+08    6.490925e-09    5.608210e-12    5.871255e-09   -2.128799e+00
    1.330152e+01    3.783178e+02    5.111770e-01    1.676301e+08    6.455660e-09    5.416120e-12    5.825965e-09   -2.123799e+00
    1.357994e+01    3.870668e+02    4.779535e-01    1.609176e+08    6.419485e-09    5.230100e-12    5.779520e-09   -2.118799e+00
    1.386059e+01    3.957956e+02    4.462649e-01    1.542448e+08    6.382400e-09    5.049965e-12    5.731910e-09   -2.113799e+00
    1.414274e+01    4.044734e+02    4.160914e-01    1.476224e+08    6.344390e-09    4.875538e-12    5.683115e-09   -2.108799e+00
    1.442557e+01    4.130675e+02    3.874103e-01    1.410612e+08    6.305460e-09    4.706646e-12    5.633140e-09   -2.103799e+00
    1.470821e+01    4.215422e+02    3.601964e-01    1.345727e+08    6.265595e-09    4.543124e-12    5.581965e-09   -2.098799e+00
    1.498971e+01    4.298609e+02    3.344221e-01    1.281690e+08    6.224800e-09    4.384807e-12    5.529595e-09   -2.093799e+00
    1.526905e+01    4.379855e+02    3.100570e-01    1.218623e+08    6.183070e-09    4.231540e-12    5.476020e-09   -2.088799e+00
    1.554515e+01    4.458756e+02    2.870680e-01    1.156651e+08    6.140410e-09    4.083172e-12    5.421245e-09   -2.083799e+00
    1.581689e+01    4.534913e+02    2.654196e-01    1.095901e+08    6.096815e-09    3.939556e-12    5.365270e-09   -2.078799e+00
    1.608311e+01    4.607928e+02    2.450738e-01    1.036495e+08    6.052290e-09    3.800551e-12    5.308095e-09   -2.073799e+00
    1.634261e+01    4.677398e+02    2.259903e-01    9.785535e+07    6.006850e-09    3.666019e-12    5.249730e-09   -2.068799e+00
    1.659423e+01    4.742952e+02    2.081265e-01    9.221932e+07    5.960500e-09    3.535827e-12    5.190180e-09   -2.063799e+00
    1.683677e+01    4.804220e+02    1.914381e-01    8.675232e+07    5.913250e-09    3.409846e-12    5.129465e-09   -2.058799e+00
