# sky130 pfet_01v8 gm/ID Processed Lookup Table
# Corner: tt
# Temperature: 25C
# W = 2.0 um
# L = 0.18 um (180 nm)
# Columns: gm/id [1/V]  gm/gds [V/V]  id/W [A/m]  ft [Hz]  Cgg/W [F/m]  Cgd/W [F/m]  Cgs/W [F/m]  Cdb/W [F/m]  vgs [V]  vth [V]  vdsat [V]
# vdsat = BSIM4 saturation voltage (|VDS|_sat, positive); use for headroom / saturation / cascode-bias calculations
#           gm/id          gm/gds            id/W              ft           Cgg/W           Cgd/W           Cgs/W           Cdb/W             vgs             vth           vdsat
    1.232952e+00    1.447336e+00    1.109337e+02    1.772717e+10    1.227977e-09    3.189206e-11    9.608825e-10    1.029713e-10   -1.800000e+00    8.004315e-01    7.232484e-01
    1.257592e+00    1.493744e+00    1.095659e+02    1.788501e+10    1.226158e-09    2.881310e-11    9.615525e-10    1.025856e-10   -1.790000e+00    8.004315e-01    7.173834e-01
    1.282916e+00    1.542263e+00    1.081780e+02    1.804006e+10    1.224388e-09    2.585374e-11    9.621570e-10    1.022100e-10   -1.780000e+00    8.004315e-01    7.115156e-01
    1.308762e+00    1.593017e+00    1.067853e+02    1.819214e+10    1.222668e-09    2.301277e-11    9.626970e-10    1.018445e-10   -1.770000e+00    8.004315e-01    7.056445e-01
    1.335205e+00    1.646132e+00    1.053829e+02    1.834104e+10    1.220996e-09    2.028866e-11    9.631735e-10    1.014890e-10   -1.760000e+00    8.004315e-01    6.997696e-01
    1.362259e+00    1.701740e+00    1.039711e+02    1.848657e+10    1.219373e-09    1.767950e-11    9.635870e-10    1.011436e-10   -1.750000e+00    8.004315e-01    6.938905e-01
    1.389939e+00    1.759983e+00    1.025503e+02    1.862850e+10    1.217796e-09    1.518313e-11    9.639400e-10    1.008082e-10   -1.740000e+00    8.004315e-01    6.880067e-01
    1.418259e+00    1.821002e+00    1.011205e+02    1.876661e+10    1.216267e-09    1.279712e-11    9.642335e-10    1.004827e-10   -1.730000e+00    8.004315e-01    6.821177e-01
    1.447232e+00    1.884946e+00    9.968205e+01    1.890066e+10    1.214782e-09    1.051880e-11    9.644685e-10    1.001669e-10   -1.720000e+00    8.004315e-01    6.762230e-01
    1.476874e+00    1.951967e+00    9.823530e+01    1.903041e+10    1.213342e-09    8.345330e-12    9.646475e-10    9.986085e-11   -1.710000e+00    8.004315e-01    6.703220e-01
    1.507196e+00    2.022215e+00    9.678055e+01    1.915558e+10    1.211944e-09    6.273695e-12    9.647715e-10    9.956425e-11   -1.700000e+00    8.004315e-01    6.644144e-01
    1.538212e+00    2.095846e+00    9.531810e+01    1.927593e+10    1.210588e-09    4.300758e-12    9.648425e-10    9.927695e-11   -1.690000e+00    8.004315e-01    6.584995e-01
    1.569933e+00    2.173010e+00    9.384825e+01    1.939116e+10    1.209271e-09    2.423279e-12    9.648615e-10    9.899875e-11   -1.680000e+00    8.004315e-01    6.525769e-01
    1.602370e+00    2.253857e+00    9.237150e+01    1.950100e+10    1.207993e-09    6.379435e-13    9.648300e-10    9.872940e-11   -1.670000e+00    8.004315e-01    6.466460e-01
    1.635534e+00    2.338531e+00    9.088815e+01    1.960512e+10    1.206751e-09    1.058605e-12    9.647505e-10    9.846875e-11   -1.660000e+00    8.004315e-01    6.407064e-01
    1.669436e+00    2.427168e+00    8.939860e+01    1.970323e+10    1.205544e-09    2.669749e-12    9.646240e-10    9.821645e-11   -1.650000e+00    8.004315e-01    6.347575e-01
    1.704081e+00    2.519893e+00    8.790340e+01    1.979503e+10    1.204370e-09    4.198873e-12    9.644515e-10    9.797235e-11   -1.640000e+00    8.004315e-01    6.287988e-01
    1.739483e+00    2.616821e+00    8.640290e+01    1.988020e+10    1.203228e-09    5.649340e-12    9.642355e-10    9.773610e-11   -1.630000e+00    8.004315e-01    6.228298e-01
    1.775647e+00    2.718052e+00    8.489760e+01    1.995843e+10    1.202114e-09    7.024490e-12    9.639760e-10    9.750750e-11   -1.620000e+00    8.004315e-01    6.168499e-01
    1.812582e+00    2.823665e+00    8.338810e+01    2.002942e+10    1.201029e-09    8.327595e-12    9.636755e-10    9.728620e-11   -1.610000e+00    8.004315e-01    6.108586e-01
    1.850298e+00    2.933725e+00    8.187485e+01    2.009287e+10    1.199969e-09    9.561885e-12    9.633345e-10    9.707195e-11   -1.600000e+00    8.004315e-01    6.048553e-01
    1.888802e+00    3.048275e+00    8.035845e+01    2.014850e+10    1.198934e-09    1.073051e-11    9.629545e-10    9.686455e-11   -1.590000e+00    8.004315e-01    5.988396e-01
    1.928107e+00    3.167336e+00    7.883940e+01    2.019605e+10    1.197921e-09    1.183652e-11    9.625360e-10    9.666355e-11   -1.580000e+00    8.004315e-01    5.928109e-01
    1.968221e+00    3.290906e+00    7.731840e+01    2.023525e+10    1.196929e-09    1.288290e-11    9.620800e-10    9.646880e-11   -1.570000e+00    8.004315e-01    5.867686e-01
    2.009158e+00    3.418968e+00    7.579605e+01    2.026592e+10    1.195954e-09    1.387253e-11    9.615880e-10    9.628000e-11   -1.560000e+00    8.004315e-01    5.807123e-01
    2.050936e+00    3.551479e+00    7.427290e+01    2.028785e+10    1.194997e-09    1.480820e-11    9.610600e-10    9.609680e-11   -1.550000e+00    8.004315e-01    5.746413e-01
    2.093567e+00    3.688380e+00    7.274970e+01    2.030085e+10    1.194054e-09    1.569257e-11    9.604970e-10    9.591895e-11   -1.540000e+00    8.004315e-01    5.685551e-01
    2.137077e+00    3.829595e+00    7.122700e+01    2.030483e+10    1.193124e-09    1.652822e-11    9.598990e-10    9.574615e-11   -1.530000e+00    8.004315e-01    5.624532e-01
    2.181486e+00    3.975035e+00    6.970555e+01    2.029966e+10    1.192205e-09    1.731762e-11    9.592670e-10    9.557815e-11   -1.520000e+00    8.004315e-01    5.563351e-01
    2.226819e+00    4.124600e+00    6.818600e+01    2.028525e+10    1.191297e-09    1.806312e-11    9.586010e-10    9.541465e-11   -1.510000e+00    8.004315e-01    5.502002e-01
    2.273111e+00    4.278184e+00    6.666900e+01    2.026160e+10    1.190395e-09    1.876697e-11    9.579010e-10    9.525535e-11   -1.500000e+00    8.004315e-01    5.440479e-01
    2.320391e+00    4.435671e+00    6.515530e+01    2.022865e+10    1.189499e-09    1.943133e-11    9.571670e-10    9.510000e-11   -1.490000e+00    8.004315e-01    5.378777e-01
    2.368697e+00    4.596949e+00    6.364555e+01    2.018643e+10    1.188607e-09    2.005822e-11    9.563995e-10    9.494835e-11   -1.480000e+00    8.004315e-01    5.316892e-01
    2.418075e+00    4.761902e+00    6.214040e+01    2.013498e+10    1.187717e-09    2.064959e-11    9.555980e-10    9.480005e-11   -1.470000e+00    8.004315e-01    5.254816e-01
    2.468567e+00    4.930416e+00    6.064055e+01    2.007432e+10    1.186827e-09    2.120730e-11    9.547615e-10    9.465490e-11   -1.460000e+00    8.004315e-01    5.192546e-01
    2.520223e+00    5.102385e+00    5.914670e+01    2.000454e+10    1.185935e-09    2.173306e-11    9.538905e-10    9.451260e-11   -1.450000e+00    8.004315e-01    5.130075e-01
    2.573097e+00    5.277702e+00    5.765950e+01    1.992574e+10    1.185039e-09    2.222854e-11    9.529840e-10    9.437280e-11   -1.440000e+00    8.004315e-01    5.067400e-01
    2.627247e+00    5.456272e+00    5.617965e+01    1.983799e+10    1.184138e-09    2.269529e-11    9.520410e-10    9.423535e-11   -1.430000e+00    8.004315e-01    5.004513e-01
    2.682734e+00    5.638000e+00    5.470780e+01    1.974142e+10    1.183228e-09    2.313479e-11    9.510610e-10    9.409990e-11   -1.420000e+00    8.004315e-01    4.941410e-01
    2.739628e+00    5.822803e+00    5.324455e+01    1.963612e+10    1.182310e-09    2.354841e-11    9.500425e-10    9.396620e-11   -1.410000e+00    8.004315e-01    4.878087e-01
    2.797998e+00    6.010603e+00    5.179060e+01    1.952223e+10    1.181379e-09    2.393747e-11    9.489845e-10    9.383395e-11   -1.400000e+00    8.004315e-01    4.814537e-01
    2.857924e+00    6.201330e+00    5.034655e+01    1.939988e+10    1.180434e-09    2.430318e-11    9.478860e-10    9.370285e-11   -1.390000e+00    8.004315e-01    4.750756e-01
    2.919482e+00    6.394911e+00    4.891307e+01    1.926918e+10    1.179472e-09    2.464670e-11    9.467455e-10    9.357265e-11   -1.380000e+00    8.004315e-01    4.686739e-01
    2.982761e+00    6.591289e+00    4.749075e+01    1.913026e+10    1.178492e-09    2.496909e-11    9.455605e-10    9.344305e-11   -1.370000e+00    8.004315e-01    4.622481e-01
    3.047852e+00    6.790399e+00    4.608020e+01    1.898328e+10    1.177490e-09    2.527139e-11    9.443300e-10    9.331370e-11   -1.360000e+00    8.004315e-01    4.557978e-01
    3.114856e+00    6.992195e+00    4.468203e+01    1.882834e+10    1.176465e-09    2.555450e-11    9.430510e-10    9.318435e-11   -1.350000e+00    8.004315e-01    4.493224e-01
    3.183875e+00    7.196619e+00    4.329683e+01    1.866558e+10    1.175414e-09    2.581932e-11    9.417220e-10    9.305460e-11   -1.340000e+00    8.004315e-01    4.428215e-01
    3.255019e+00    7.403622e+00    4.192519e+01    1.849514e+10    1.174332e-09    2.606666e-11    9.403405e-10    9.292420e-11   -1.330000e+00    8.004315e-01    4.362948e-01
    3.328407e+00    7.613149e+00    4.056768e+01    1.831712e+10    1.173220e-09    2.629728e-11    9.389035e-10    9.279280e-11   -1.320000e+00    8.004315e-01    4.297416e-01
    3.404165e+00    7.825157e+00    3.922486e+01    1.813167e+10    1.172072e-09    2.651186e-11    9.374080e-10    9.265995e-11   -1.310000e+00    8.004315e-01    4.231618e-01
    3.482427e+00    8.039589e+00    3.789731e+01    1.793890e+10    1.170886e-09    2.671108e-11    9.358505e-10    9.252540e-11   -1.300000e+00    8.004315e-01    4.165548e-01
    3.563336e+00    8.256396e+00    3.658555e+01    1.773894e+10    1.169658e-09    2.689550e-11    9.342285e-10    9.238870e-11   -1.290000e+00    8.004315e-01    4.099203e-01
    3.647042e+00    8.475516e+00    3.529015e+01    1.753187e+10    1.168386e-09    2.706568e-11    9.325375e-10    9.224945e-11   -1.280000e+00    8.004315e-01    4.032579e-01
    3.733711e+00    8.696896e+00    3.401164e+01    1.731784e+10    1.167064e-09    2.722210e-11    9.307740e-10    9.210720e-11   -1.270000e+00    8.004315e-01    3.965674e-01
    3.823513e+00    8.920465e+00    3.275053e+01    1.709693e+10    1.165690e-09    2.736523e-11    9.289335e-10    9.196150e-11   -1.260000e+00    8.004315e-01    3.898485e-01
    3.916638e+00    9.146166e+00    3.150737e+01    1.686926e+10    1.164259e-09    2.749545e-11    9.270115e-10    9.181195e-11   -1.250000e+00    8.004315e-01    3.831008e-01
    4.013281e+00    9.373911e+00    3.028265e+01    1.663492e+10    1.162767e-09    2.761312e-11    9.250025e-10    9.165800e-11   -1.240000e+00    8.004315e-01    3.763243e-01
    4.113655e+00    9.603634e+00    2.907688e+01    1.639402e+10    1.161209e-09    2.771857e-11    9.229020e-10    9.149915e-11   -1.230000e+00    8.004315e-01    3.695186e-01
    4.217989e+00    9.835235e+00    2.789057e+01    1.614663e+10    1.159581e-09    2.781207e-11    9.207040e-10    9.133475e-11   -1.220000e+00    8.004315e-01    3.626838e-01
    4.326524e+00    1.006863e+01    2.672420e+01    1.589284e+10    1.157877e-09    2.789384e-11    9.184030e-10    9.116435e-11   -1.210000e+00    8.004315e-01    3.558197e-01
    4.439518e+00    1.030370e+01    2.557827e+01    1.563273e+10    1.156092e-09    2.796411e-11    9.159915e-10    9.098725e-11   -1.200000e+00    8.004315e-01    3.489263e-01
    4.557254e+00    1.054035e+01    2.445325e+01    1.536636e+10    1.154221e-09    2.802300e-11    9.134635e-10    9.080280e-11   -1.190000e+00    8.004315e-01    3.420038e-01
    4.680024e+00    1.077843e+01    2.334963e+01    1.509381e+10    1.152257e-09    2.807065e-11    9.108120e-10    9.061035e-11   -1.180000e+00    8.004315e-01    3.350522e-01
    4.808146e+00    1.101781e+01    2.226788e+01    1.481512e+10    1.150195e-09    2.810714e-11    9.080285e-10    9.040910e-11   -1.170000e+00    8.004315e-01    3.280718e-01
    4.941961e+00    1.125835e+01    2.120845e+01    1.453036e+10    1.148027e-09    2.813252e-11    9.051060e-10    9.019825e-11   -1.160000e+00    8.004315e-01    3.210630e-01
    5.081830e+00    1.149987e+01    2.017180e+01    1.423956e+10    1.145746e-09    2.814681e-11    9.020350e-10    8.997705e-11   -1.150000e+00    8.004315e-01    3.140262e-01
    5.228135e+00    1.174220e+01    1.915840e+01    1.394275e+10    1.143347e-09    2.814998e-11    8.988065e-10    8.974460e-11   -1.140000e+00    8.004315e-01    3.069621e-01
    5.381284e+00    1.198514e+01    1.816870e+01    1.363995e+10    1.140820e-09    2.814199e-11    8.954115e-10    8.949995e-11   -1.130000e+00    8.004315e-01    2.998715e-01
    5.541712e+00    1.222846e+01    1.720313e+01    1.333119e+10    1.138158e-09    2.812275e-11    8.918400e-10    8.924215e-11   -1.120000e+00    8.004315e-01    2.927552e-01
    5.709875e+00    1.247193e+01    1.626215e+01    1.301649e+10    1.135352e-09    2.809214e-11    8.880810e-10    8.897010e-11   -1.110000e+00    8.004315e-01    2.856146e-01
    5.886256e+00    1.271529e+01    1.534618e+01    1.269584e+10    1.132396e-09    2.805001e-11    8.841240e-10    8.868285e-11   -1.100000e+00    8.004315e-01    2.784509e-01
    6.071355e+00    1.295826e+01    1.445566e+01    1.236924e+10    1.129278e-09    2.799621e-11    8.799570e-10    8.837915e-11   -1.090000e+00    8.004315e-01    2.712659e-01
    6.265704e+00    1.320054e+01    1.359101e+01    1.203669e+10    1.125990e-09    2.793052e-11    8.755680e-10    8.805785e-11   -1.080000e+00    8.004315e-01    2.640616e-01
    6.469844e+00    1.344177e+01    1.275265e+01    1.169821e+10    1.122522e-09    2.785270e-11    8.709455e-10    8.771765e-11   -1.070000e+00    8.004315e-01    2.568404e-01
    6.684326e+00    1.368160e+01    1.194099e+01    1.135379e+10    1.118864e-09    2.776251e-11    8.660760e-10    8.735730e-11   -1.060000e+00    8.004315e-01    2.496049e-01
    6.909721e+00    1.391965e+01    1.115644e+01    1.100343e+10    1.115008e-09    2.765969e-11    8.609465e-10    8.697545e-11   -1.050000e+00    8.004315e-01    2.423584e-01
    7.146585e+00    1.415547e+01    1.039937e+01    1.064718e+10    1.110941e-09    2.754391e-11    8.555430e-10    8.657060e-11   -1.040000e+00    8.004315e-01    2.351046e-01
    7.395476e+00    1.438861e+01    9.670155e+00    1.028510e+10    1.106653e-09    2.741487e-11    8.498525e-10    8.614135e-11   -1.030000e+00    8.004315e-01    2.278477e-01
    7.656913e+00    1.461857e+01    8.969170e+00    9.917268e+09    1.102133e-09    2.727223e-11    8.438595e-10    8.568615e-11   -1.020000e+00    8.004315e-01    2.205929e-01
    7.931380e+00    1.484484e+01    8.296740e+00    9.543826e+09    1.097372e-09    2.711566e-11    8.375515e-10    8.520345e-11   -1.010000e+00    8.004315e-01    2.133456e-01
    8.219276e+00    1.506684e+01    7.653180e+00    9.164961e+09    1.092358e-09    2.694480e-11    8.309125e-10    8.469170e-11   -1.000000e+00    8.004315e-01    2.061124e-01
    8.520946e+00    1.528397e+01    7.038755e+00    8.780962e+09    1.087081e-09    2.675930e-11    8.239290e-10    8.414920e-11   -9.900000e-01    8.004315e-01    1.989006e-01
    8.836568e+00    1.549560e+01    6.453710e+00    8.392185e+09    1.081529e-09    2.655879e-11    8.165865e-10    8.357440e-11   -9.800000e-01    8.004315e-01    1.917185e-01
    9.166174e+00    1.570107e+01    5.898235e+00    7.999112e+09    1.075694e-09    2.634292e-11    8.088715e-10    8.296560e-11   -9.700000e-01    8.004315e-01    1.845754e-01
    9.509592e+00    1.589967e+01    5.372460e+00    7.602360e+09    1.069564e-09    2.611136e-11    8.007700e-10    8.232115e-11   -9.600000e-01    8.004315e-01    1.774818e-01
    9.866382e+00    1.609069e+01    4.876448e+00    7.202686e+09    1.063132e-09    2.586378e-11    7.922695e-10    8.163945e-11   -9.500000e-01    8.004315e-01    1.704491e-01
    1.023581e+01    1.627339e+01    4.410183e+00    6.801047e+09    1.056388e-09    2.559988e-11    7.833575e-10    8.091895e-11   -9.400000e-01    8.004315e-01    1.634902e-01
    1.061677e+01    1.644701e+01    3.973560e+00    6.398565e+09    1.049324e-09    2.531939e-11    7.740230e-10    8.015800e-11   -9.300000e-01    8.004315e-01    1.566189e-01
    1.100773e+01    1.661079e+01    3.566367e+00    5.996577e+09    1.041934e-09    2.502206e-11    7.642560e-10    7.935520e-11   -9.200000e-01    8.004315e-01    1.498504e-01
    1.140670e+01    1.676397e+01    3.188279e+00    5.596626e+09    1.034213e-09    2.470772e-11    7.540470e-10    7.850920e-11   -9.100000e-01    8.004315e-01    1.432008e-01
    1.181118e+01    1.690583e+01    2.838839e+00    5.200450e+09    1.026155e-09    2.437623e-11    7.433905e-10    7.761870e-11   -9.000000e-01    8.004315e-01    1.366870e-01
    1.221815e+01    1.703566e+01    2.517456e+00    4.809972e+09    1.017759e-09    2.402751e-11    7.322800e-10    7.668260e-11   -8.900000e-01    8.004315e-01    1.303269e-01
    1.262405e+01    1.715279e+01    2.223396e+00    4.427255e+09    1.009023e-09    2.366157e-11    7.207125e-10    7.569990e-11   -8.800000e-01    8.004315e-01    1.241388e-01
    1.302486e+01    1.725664e+01    1.955772e+00    4.054472e+09    9.999475e-10    2.327846e-11    7.086880e-10    7.466990e-11   -8.700000e-01    8.004315e-01    1.181410e-01
    1.341614e+01    1.734670e+01    1.713555e+00    3.693819e+09    9.905355e-10    2.287836e-11    6.962070e-10    7.359200e-11   -8.600000e-01    8.004315e-01    1.123516e-01
    1.379315e+01    1.742257e+01    1.495573e+00    3.347452e+09    9.807925e-10    2.246152e-11    6.832750e-10    7.246590e-11   -8.500000e-01    8.004315e-01    1.067880e-01
    1.415106e+01    1.748398e+01    1.300528e+00    3.017400e+09    9.707250e-10    2.202828e-11    6.698985e-10    7.129155e-11   -8.400000e-01    8.004315e-01    1.014664e-01
    1.448510e+01    1.753083e+01    1.127010e+00    2.705472e+09    9.603430e-10    2.157910e-11    6.560890e-10    7.006925e-11   -8.300000e-01    8.004315e-01    9.640111e-02
    1.479084e+01    1.756315e+01    9.735200e-01    2.413181e+09    9.496595e-10    2.111455e-11    6.418595e-10    6.879950e-11   -8.200000e-01    8.004315e-01    9.160451e-02
    1.506438e+01    1.758121e+01    8.384995e-01    2.141671e+09    9.386885e-10    2.063531e-11    6.272270e-10    6.748320e-11   -8.100000e-01    8.004315e-01    8.708623e-02
    1.530266e+01    1.758544e+01    7.203580e-01    1.891673e+09    9.274475e-10    2.014216e-11    6.122125e-10    6.612160e-11   -8.000000e-01    8.004315e-01    8.285295e-02
    1.550357e+01    1.757653e+01    6.175040e-01    1.663475e+09    9.159575e-10    1.963601e-11    5.968400e-10    6.471630e-11   -7.900000e-01    8.004315e-01    7.890820e-02
    1.566615e+01    1.755533e+01    5.283745e-01    1.456936e+09    9.042405e-10    1.911788e-11    5.811360e-10    6.326920e-11   -7.800000e-01    8.004315e-01    7.525222e-02
    1.579064e+01    1.752294e+01    4.514615e-01    1.271508e+09    8.923215e-10    1.858889e-11    5.651320e-10    6.178265e-11   -7.700000e-01    8.004315e-01    7.188203e-02
    1.587844e+01    1.748062e+01    3.853357e-01    1.106298e+09    8.802280e-10    1.805025e-11    5.488605e-10    6.025930e-11   -7.600000e-01    8.004315e-01    6.879157e-02
    1.593199e+01    1.742979e+01    3.286639e-01    9.601243e+08    8.679900e-10    1.750330e-11    5.323585e-10    5.870220e-11   -7.500000e-01    8.004315e-01    6.597202e-02
    1.595463e+01    1.737196e+01    2.802209e-01    8.316047e+08    8.556385e-10    1.694942e-11    5.156650e-10    5.711455e-11   -7.400000e-01    8.004315e-01    6.341216e-02
    1.595033e+01    1.730874e+01    2.388971e-01    7.192281e+08    8.432065e-10    1.639009e-11    4.988214e-10    5.550005e-11   -7.300000e-01    8.004315e-01    6.109886e-02
    1.592348e+01    1.724171e+01    2.036997e-01    6.214260e+08    8.307285e-10    1.582681e-11    4.818701e-10    5.386260e-11   -7.200000e-01    8.004315e-01    5.901748e-02
