# sky130 pfet_01v8 gm/ID Processed Lookup Table
# Corner: tt
# Temperature: 25C
# W = 2.0 um
# L = 6 um (6000 nm)
# Columns: gm/id [1/V]  gm/gds [V/V]  id/W [A/m]  ft [Hz]  Cgg/W [F/m]  Cgd/W [F/m]  Cgs/W [F/m]  Cdb/W [F/m]  vgs [V]  vth [V]  vdsat [V]
# vdsat = BSIM4 saturation voltage (|VDS|_sat, positive); use for headroom / saturation / cascode-bias calculations
#           gm/id          gm/gds            id/W              ft           Cgg/W           Cgd/W           Cgs/W           Cdb/W             vgs             vth           vdsat
    2.145238e+00    5.863664e+00    3.176393e+00    2.959292e+07    3.664731e-08    3.339506e-09    3.370196e-08    3.553076e-09   -1.800000e+00    1.025866e+00    6.647539e-01
    2.190330e+00    6.354955e+00    3.108252e+00    2.968653e+07    3.649945e-08    3.145365e-09    3.370809e-08    3.526468e-09   -1.790000e+00    1.025866e+00    6.564876e-01
    2.236359e+00    6.910997e+00    3.040241e+00    2.976495e+07    3.635503e-08    2.958181e-09    3.371113e-08    3.500496e-09   -1.780000e+00    1.025866e+00    6.482270e-01
    2.283341e+00    7.541793e+00    2.972309e+00    2.982669e+07    3.621427e-08    2.778234e-09    3.371107e-08    3.475199e-09   -1.770000e+00    1.025866e+00    6.399721e-01
    2.331202e+00    8.258821e+00    2.904517e+00    2.987028e+07    3.607735e-08    2.605742e-09    3.370792e-08    3.450613e-09   -1.760000e+00    1.025866e+00    6.317230e-01
    2.379886e+00    9.075207e+00    2.836901e+00    2.989435e+07    3.594441e-08    2.440862e-09    3.370166e-08    3.426765e-09   -1.750000e+00    1.025866e+00    6.234796e-01
    2.429334e+00    1.000582e+01    2.769500e+00    2.989766e+07    3.581554e-08    2.283691e-09    3.369233e-08    3.403679e-09   -1.740000e+00    1.025866e+00    6.152419e-01
    2.479494e+00    1.106746e+01    2.702354e+00    2.987920e+07    3.569082e-08    2.134263e-09    3.367997e-08    3.381370e-09   -1.730000e+00    1.025866e+00    6.070099e-01
    2.530316e+00    1.227887e+01    2.635505e+00    2.983815e+07    3.557024e-08    1.992562e-09    3.366462e-08    3.359849e-09   -1.720000e+00    1.025866e+00    5.987835e-01
    2.581759e+00    1.366084e+01    2.568995e+00    2.977394e+07    3.545380e-08    1.858512e-09    3.364633e-08    3.339119e-09   -1.710000e+00    1.025866e+00    5.905628e-01
    2.633800e+00    1.523626e+01    2.502868e+00    2.968635e+07    3.534144e-08    1.731993e-09    3.362518e-08    3.319179e-09   -1.700000e+00    1.025866e+00    5.823476e-01
    2.686429e+00    1.702998e+01    2.437168e+00    2.957541e+07    3.523305e-08    1.612842e-09    3.360121e-08    3.300021e-09   -1.690000e+00    1.025866e+00    5.741381e-01
    2.739653e+00    1.906886e+01    2.371937e+00    2.944142e+07    3.512854e-08    1.500857e-09    3.357449e-08    3.281632e-09   -1.680000e+00    1.025866e+00    5.659342e-01
    2.793501e+00    2.138158e+01    2.307216e+00    2.928499e+07    3.502774e-08    1.395807e-09    3.354510e-08    3.263996e-09   -1.670000e+00    1.025866e+00    5.577359e-01
    2.848013e+00    2.399849e+01    2.243046e+00    2.910689e+07    3.493048e-08    1.297436e-09    3.351309e-08    3.247089e-09   -1.660000e+00    1.025866e+00    5.495432e-01
    2.903257e+00    2.695151e+01    2.179464e+00    2.890812e+07    3.483658e-08    1.205466e-09    3.347852e-08    3.230888e-09   -1.650000e+00    1.025866e+00    5.413560e-01
    2.959308e+00    3.027381e+01    2.116506e+00    2.868979e+07    3.474582e-08    1.119606e-09    3.344145e-08    3.215363e-09   -1.640000e+00    1.025866e+00    5.331744e-01
    3.016261e+00    3.399973e+01    2.054207e+00    2.845312e+07    3.465799e-08    1.039556e-09    3.340192e-08    3.200485e-09   -1.630000e+00    1.025866e+00    5.249984e-01
    3.074221e+00    3.816448e+01    1.992596e+00    2.819936e+07    3.457286e-08    9.650125e-10    3.335997e-08    3.186221e-09   -1.620000e+00    1.025866e+00    5.168279e-01
    3.133301e+00    4.280403e+01    1.931702e+00    2.792976e+07    3.449017e-08    8.956685e-10    3.331564e-08    3.172536e-09   -1.610000e+00    1.025866e+00    5.086629e-01
    3.193628e+00    4.795487e+01    1.871552e+00    2.764556e+07    3.440970e-08    8.312215e-10    3.326892e-08    3.159396e-09   -1.600000e+00    1.025866e+00    5.005035e-01
    3.255328e+00    5.365389e+01    1.812169e+00    2.734795e+07    3.433120e-08    7.713735e-10    3.321985e-08    3.146762e-09   -1.590000e+00    1.025866e+00    4.923497e-01
    3.318541e+00    5.993829e+01    1.753575e+00    2.703804e+07    3.425441e-08    7.158340e-10    3.316843e-08    3.134601e-09   -1.580000e+00    1.025866e+00    4.842015e-01
    3.383407e+00    6.684548e+01    1.695789e+00    2.671690e+07    3.417907e-08    6.643235e-10    3.311462e-08    3.122873e-09   -1.570000e+00    1.025866e+00    4.760588e-01
    3.450072e+00    7.441292e+01    1.638829e+00    2.638546e+07    3.410495e-08    6.165715e-10    3.305840e-08    3.111541e-09   -1.560000e+00    1.025866e+00    4.679218e-01
    3.518690e+00    8.267838e+01    1.582712e+00    2.604465e+07    3.403179e-08    5.723210e-10    3.299975e-08    3.100570e-09   -1.550000e+00    1.025866e+00    4.597904e-01
    3.589413e+00    9.167952e+01    1.527453e+00    2.569522e+07    3.395934e-08    5.313270e-10    3.293861e-08    3.089922e-09   -1.540000e+00    1.025866e+00    4.516647e-01
    3.662408e+00    1.014543e+02    1.473064e+00    2.533792e+07    3.388734e-08    4.933582e-10    3.287492e-08    3.079562e-09   -1.530000e+00    1.025866e+00    4.435447e-01
    3.737844e+00    1.120410e+02    1.419558e+00    2.497341e+07    3.381556e-08    4.581956e-10    3.280859e-08    3.069452e-09   -1.520000e+00    1.025866e+00    4.354306e-01
    3.815895e+00    1.234780e+02    1.366946e+00    2.460223e+07    3.374373e-08    4.256342e-10    3.273955e-08    3.059558e-09   -1.510000e+00    1.025866e+00    4.273223e-01
    3.896742e+00    1.358041e+02    1.315238e+00    2.422491e+07    3.367163e-08    3.954815e-10    3.266767e-08    3.049844e-09   -1.500000e+00    1.025866e+00    4.192199e-01
    3.980581e+00    1.490588e+02    1.264446e+00    2.384189e+07    3.359899e-08    3.675581e-10    3.259286e-08    3.040275e-09   -1.490000e+00    1.025866e+00    4.111236e-01
    4.067621e+00    1.632825e+02    1.214577e+00    2.345360e+07    3.352557e-08    3.416963e-10    3.251497e-08    3.030817e-09   -1.480000e+00    1.025866e+00    4.030335e-01
    4.158073e+00    1.785160e+02    1.165640e+00    2.306036e+07    3.345111e-08    3.177405e-10    3.243387e-08    3.021435e-09   -1.470000e+00    1.025866e+00    3.949497e-01
    4.252167e+00    1.948013e+02    1.117643e+00    2.266248e+07    3.337537e-08    2.955458e-10    3.234938e-08    3.012095e-09   -1.460000e+00    1.025866e+00    3.868724e-01
    4.350143e+00    2.121819e+02    1.070594e+00    2.226022e+07    3.329809e-08    2.749783e-10    3.226133e-08    3.002763e-09   -1.450000e+00    1.025866e+00    3.788018e-01
    4.452264e+00    2.307021e+02    1.024501e+00    2.185380e+07    3.321900e-08    2.559138e-10    3.216953e-08    2.993405e-09   -1.440000e+00    1.025866e+00    3.707381e-01
    4.558806e+00    2.504081e+02    9.793695e-01    2.144341e+07    3.313783e-08    2.382373e-10    3.207377e-08    2.983985e-09   -1.430000e+00    1.025866e+00    3.626817e-01
    4.670061e+00    2.713479e+02    9.352080e-01    2.102919e+07    3.305433e-08    2.218430e-10    3.197383e-08    2.974468e-09   -1.420000e+00    1.025866e+00    3.546329e-01
    4.786346e+00    2.935709e+02    8.920225e-01    2.061127e+07    3.296820e-08    2.066328e-10    3.186945e-08    2.964821e-09   -1.410000e+00    1.025866e+00    3.465920e-01
    4.908002e+00    3.171290e+02    8.498195e-01    2.018974e+07    3.287917e-08    1.925163e-10    3.176038e-08    2.955005e-09   -1.400000e+00    1.025866e+00    3.385596e-01
    5.035386e+00    3.420754e+02    8.086060e-01    1.976465e+07    3.278694e-08    1.794102e-10    3.164634e-08    2.944987e-09   -1.390000e+00    1.025866e+00    3.305361e-01
    5.168885e+00    3.684659e+02    7.683890e-01    1.933603e+07    3.269120e-08    1.672377e-10    3.152704e-08    2.934726e-09   -1.380000e+00    1.025866e+00    3.225223e-01
    5.308919e+00    3.963582e+02    7.291740e-01    1.890389e+07    3.259165e-08    1.559282e-10    3.140214e-08    2.924185e-09   -1.370000e+00    1.025866e+00    3.145188e-01
    5.455925e+00    4.258117e+02    6.909685e-01    1.846820e+07    3.248795e-08    1.454165e-10    3.127132e-08    2.913323e-09   -1.360000e+00    1.025866e+00    3.065264e-01
    5.610378e+00    4.568872e+02    6.537790e-01    1.802891e+07    3.237978e-08    1.356425e-10    3.113423e-08    2.902103e-09   -1.350000e+00    1.025866e+00    2.985463e-01
    5.772785e+00    4.896475e+02    6.176120e-01    1.758594e+07    3.226679e-08    1.265510e-10    3.099049e-08    2.890480e-09   -1.340000e+00    1.025866e+00    2.905796e-01
    5.943682e+00    5.241549e+02    5.824745e-01    1.713919e+07    3.214861e-08    1.180911e-10    3.083970e-08    2.878411e-09   -1.330000e+00    1.025866e+00    2.826275e-01
    6.123637e+00    5.604726e+02    5.483735e-01    1.668854e+07    3.202490e-08    1.102159e-10    3.068144e-08    2.865852e-09   -1.320000e+00    1.025866e+00    2.746917e-01
    6.313255e+00    5.986621e+02    5.153160e-01    1.623383e+07    3.189526e-08    1.028824e-10    3.051528e-08    2.852756e-09   -1.310000e+00    1.025866e+00    2.667740e-01
    6.513165e+00    6.387830e+02    4.833094e-01    1.577490e+07    3.175929e-08    9.605065e-11    3.034077e-08    2.839076e-09   -1.300000e+00    1.025866e+00    2.588766e-01
    6.724032e+00    6.808897e+02    4.523610e-01    1.531157e+07    3.161660e-08    8.968415e-11    3.015743e-08    2.824762e-09   -1.290000e+00    1.025866e+00    2.510017e-01
    6.946538e+00    7.250304e+02    4.224781e-01    1.484364e+07    3.146677e-08    8.374905e-11    2.996478e-08    2.809762e-09   -1.280000e+00    1.025866e+00    2.431524e-01
    7.181389e+00    7.712443e+02    3.936683e-01    1.437091e+07    3.130939e-08    7.821425e-11    2.976230e-08    2.794025e-09   -1.270000e+00    1.025866e+00    2.353317e-01
    7.429301e+00    8.195571e+02    3.659389e-01    1.389319e+07    3.114401e-08    7.305110e-11    2.954947e-08    2.777497e-09   -1.260000e+00    1.025866e+00    2.275435e-01
    7.690985e+00    8.699780e+02    3.392972e-01    1.341030e+07    3.097020e-08    6.823310e-11    2.932578e-08    2.760121e-09   -1.250000e+00    1.025866e+00    2.197920e-01
    7.967137e+00    9.224937e+02    3.137506e-01    1.292207e+07    3.078753e-08    6.373585e-11    2.909066e-08    2.741842e-09   -1.240000e+00    1.025866e+00    2.120822e-01
    8.258411e+00    9.770627e+02    2.893056e-01    1.242840e+07    3.059553e-08    5.953675e-11    2.884358e-08    2.722602e-09   -1.230000e+00    1.025866e+00    2.044196e-01
    8.565403e+00    1.033609e+03    2.659684e-01    1.192925e+07    3.039379e-08    5.561500e-11    2.858398e-08    2.702341e-09   -1.220000e+00    1.025866e+00    1.968106e-01
    8.888610e+00    1.092012e+03    2.437447e-01    1.142466e+07    3.018184e-08    5.195130e-11    2.831132e-08    2.681001e-09   -1.210000e+00    1.025866e+00    1.892626e-01
    9.228395e+00    1.152102e+03    2.226386e-01    1.091479e+07    2.995928e-08    4.852797e-11    2.802505e-08    2.658523e-09   -1.200000e+00    1.025866e+00    1.817836e-01
    9.584937e+00    1.213646e+03    2.026535e-01    1.039996e+07    2.972568e-08    4.532847e-11    2.772464e-08    2.634849e-09   -1.190000e+00    1.025866e+00    1.743829e-01
    9.958170e+00    1.276342e+03    1.837904e-01    9.880645e+06    2.948065e-08    4.233762e-11    2.740958e-08    2.609920e-09   -1.180000e+00    1.025866e+00    1.670708e-01
    1.034774e+01    1.339807e+03    1.660485e-01    9.357579e+06    2.922382e-08    3.954131e-11    2.707941e-08    2.583680e-09   -1.170000e+00    1.025866e+00    1.598585e-01
    1.075291e+01    1.403571e+03    1.494242e-01    8.831727e+06    2.895484e-08    3.692648e-11    2.673365e-08    2.556073e-09   -1.160000e+00    1.025866e+00    1.527587e-01
    1.117249e+01    1.467071e+03    1.339108e-01    8.304359e+06    2.867342e-08    3.448104e-11    2.637191e-08    2.527049e-09   -1.150000e+00    1.025866e+00    1.457850e-01
    1.160479e+01    1.529648e+03    1.194977e-01    7.777060e+06    2.837929e-08    3.219376e-11    2.599383e-08    2.496560e-09   -1.140000e+00    1.025866e+00    1.389522e-01
    1.204753e+01    1.590555e+03    1.061701e-01    7.251754e+06    2.807225e-08    3.005423e-11    2.559912e-08    2.464561e-09   -1.130000e+00    1.025866e+00    1.322760e-01
    1.249774e+01    1.648958e+03    9.390855e-02    6.730697e+06    2.775215e-08    2.805278e-11    2.518756e-08    2.431014e-09   -1.120000e+00    1.025866e+00    1.257729e-01
    1.295184e+01    1.703971e+03    8.268805e-02    6.216472e+06    2.741893e-08    2.618043e-11    2.475901e-08    2.395887e-09   -1.110000e+00    1.025866e+00    1.194602e-01
    1.340555e+01    1.754665e+03    7.247820e-02    5.711927e+06    2.707257e-08    2.442883e-11    2.431343e-08    2.359157e-09   -1.100000e+00    1.025866e+00    1.133551e-01
    1.385396e+01    1.800126e+03    6.324280e-02    5.220113e+06    2.671316e-08    2.279020e-11    2.385086e-08    2.320805e-09   -1.090000e+00    1.025866e+00    1.074750e-01
    1.429168e+01    1.839488e+03    5.494000e-02    4.744186e+06    2.634089e-08    2.125732e-11    2.337149e-08    2.280826e-09   -1.080000e+00    1.025866e+00    1.018366e-01
    1.471295e+01    1.871990e+03    4.752247e-02    4.287267e+06    2.595603e-08    1.982344e-11    2.287559e-08    2.239223e-09   -1.070000e+00    1.025866e+00    9.645551e-02
    1.511191e+01    1.897033e+03    4.093795e-02    3.852320e+06    2.555895e-08    1.848228e-11    2.236360e-08    2.196010e-09   -1.060000e+00    1.025866e+00    9.134571e-02
    1.548293e+01    1.914228e+03    3.513007e-02    3.442006e+06    2.515016e-08    1.722799e-11    2.183606e-08    2.151215e-09   -1.050000e+00    1.025866e+00    8.651910e-02
    1.582084e+01    1.923433e+03    3.003939e-02    3.058526e+06    2.473025e-08    1.605509e-11    2.129368e-08    2.104876e-09   -1.040000e+00    1.025866e+00    8.198496e-02
    1.612137e+01    1.924783e+03    2.560443e-02    2.703534e+06    2.429995e-08    1.495847e-11    2.073730e-08    2.057047e-09   -1.030000e+00    1.025866e+00    7.774953e-02
    1.638137e+01    1.918687e+03    2.176313e-02    2.378042e+06    2.386010e-08    1.393334e-11    2.016790e-08    2.007794e-09   -1.020000e+00    1.025866e+00    7.381579e-02
    1.659914e+01    1.905811e+03    1.845396e-02    2.082398e+06    2.341163e-08    1.297525e-11    1.958661e-08    1.957198e-09   -1.010000e+00    1.025866e+00    7.018325e-02
    1.677452e+01    1.887042e+03    1.561725e-02    1.816293e+06    2.295562e-08    1.207999e-11    1.899471e-08    1.905354e-09   -1.000000e+00    1.025866e+00    6.684803e-02
    1.690897e+01    1.863428e+03    1.319615e-02    1.578822e+06    2.249322e-08    1.124365e-11    1.839359e-08    1.852367e-09   -9.900000e-01    1.025866e+00    6.380299e-02
    1.700546e+01    1.836119e+03    1.113756e-02    1.368577e+06    2.202568e-08    1.046256e-11    1.778476e-08    1.798360e-09   -9.800000e-01    1.025866e+00    6.103807e-02
    1.706830e+01    1.806295e+03    9.392660e-03    1.183762e+06    2.155433e-08    9.733250e-12    1.716986e-08    1.743464e-09   -9.700000e-01    1.025866e+00    5.854067e-02
    1.710284e+01    1.775109e+03    7.917310e-03    1.022312e+06    2.108059e-08    9.052495e-12    1.655058e-08    1.687822e-09   -9.600000e-01    1.025866e+00    5.629619e-02
    1.711518e+01    1.743640e+03    6.672175e-03    8.820176e+05    2.060590e-08    8.417250e-12    1.592873e-08    1.631587e-09   -9.500000e-01    1.025866e+00    5.428852e-02
    1.711178e+01    1.712846e+03    5.622635e-03    7.606299e+05    2.013176e-08    7.824660e-12    1.530613e-08    1.574918e-09   -9.400000e-01    1.025866e+00    5.250059e-02
    1.709920e+01    1.683558e+03    4.738595e-03    6.559476e+05    1.965968e-08    7.272035e-12    1.468465e-08    1.517981e-09   -9.300000e-01    1.025866e+00    5.091486e-02
    1.708382e+01    1.656460e+03    3.994131e-03    5.658823e+05    1.919116e-08    6.756850e-12    1.406615e-08    1.460945e-09   -9.200000e-01    1.025866e+00    4.951377e-02
    1.707165e+01    1.632104e+03    3.367106e-03    4.885040e+05    1.872769e-08    6.276730e-12    1.345248e-08    1.403982e-09   -9.100000e-01    1.025866e+00    4.828012e-02
    1.706820e+01    1.610911e+03    2.838750e-03    4.220648e+05    1.827073e-08    5.829440e-12    1.284545e-08    1.347262e-09   -9.000000e-01    1.025866e+00    4.719734e-02
    1.707846e+01    1.593203e+03    2.393230e-03    3.650104e+05    1.782165e-08    5.412870e-12    1.224681e-08    1.290952e-09   -8.900000e-01    1.025866e+00    4.624974e-02
    1.710686e+01    1.579210e+03    2.017248e-03    3.159767e+05    1.738179e-08    5.025050e-12    1.165821e-08    1.235217e-09   -8.800000e-01    1.025866e+00    4.542265e-02
    1.715731e+01    1.569096e+03    1.699669e-03    2.737809e+05    1.695237e-08    4.664109e-12    1.108119e-08    1.180212e-09   -8.700000e-01    1.025866e+00    4.470252e-02
    1.723329e+01    1.562977e+03    1.431185e-03    2.374063e+05    1.653454e-08    4.328302e-12    1.051720e-08    1.126086e-09   -8.600000e-01    1.025866e+00    4.407696e-02
    1.733783e+01    1.560931e+03    1.204028e-03    2.059851e+05    1.612929e-08    4.015980e-12    9.967515e-09    1.072977e-09   -8.500000e-01    1.025866e+00    4.353473e-02
    1.747361e+01    1.563016e+03    1.011710e-03    1.787811e+05    1.573755e-08    3.725592e-12    9.433295e-09    1.021012e-09   -8.400000e-01    1.025866e+00    4.306572e-02
    1.764296e+01    1.569265e+03    8.488165e-04    1.551713e+05    1.536010e-08    3.455682e-12    8.915540e-09    9.703045e-10   -8.300000e-01    1.025866e+00    4.266088e-02
    1.784781e+01    1.579699e+03    7.108205e-04    1.346308e+05    1.499757e-08    3.204883e-12    8.415080e-09    9.209575e-10   -8.200000e-01    1.025866e+00    4.231219e-02
    1.808975e+01    1.594319e+03    5.939310e-04    1.167177e+05    1.465049e-08    2.971908e-12    7.932605e-09    8.730580e-10   -8.100000e-01    1.025866e+00    4.201251e-02
    1.836984e+01    1.613100e+03    4.949702e-04    1.010611e+05    1.431926e-08    2.755551e-12    7.468635e-09    8.266800e-10   -8.000000e-01    1.025866e+00    4.175557e-02
    1.868857e+01    1.635986e+03    4.112650e-04    8.734957e+04    1.400417e-08    2.554682e-12    7.023545e-09    7.818835e-10   -7.900000e-01    1.025866e+00    4.153585e-02
    1.904577e+01    1.662877e+03    3.405622e-04    7.532250e+04    1.370536e-08    2.368237e-12    6.597565e-09    7.387160e-10   -7.800000e-01    1.025866e+00    4.134850e-02
    1.944039e+01    1.693617e+03    2.809558e-04    6.476147e+04    1.342290e-08    2.195224e-12    6.190780e-09    6.972105e-10   -7.700000e-01    1.025866e+00    4.118927e-02
    1.987047e+01    1.727987e+03    2.308276e-04    5.548398e+04    1.315675e-08    2.034711e-12    5.803165e-09    6.573890e-10   -7.600000e-01    1.025866e+00    4.105443e-02
    2.033296e+01    1.765692e+03    1.887984e-04    4.733713e+04    1.290675e-08    1.885826e-12    5.434570e-09    6.192605e-10   -7.500000e-01    1.025866e+00    4.094070e-02
    2.082373e+01    1.806363e+03    1.536870e-04    4.019257e+04    1.267272e-08    1.747754e-12    5.084740e-09    5.828245e-10   -7.400000e-01    1.025866e+00    4.084522e-02
    2.133751e+01    1.849550e+03    1.244780e-04    3.394181e+04    1.245436e-08    1.619734e-12    4.753333e-09    5.480705e-10   -7.300000e-01    1.025866e+00    4.076545e-02
    2.186797e+01    1.894737e+03    1.002946e-04    2.849204e+04    1.225131e-08    1.501054e-12    4.439929e-09    5.149790e-10   -7.200000e-01    1.025866e+00    4.069918e-02
