# sky130 pfet_01v8 gm/ID Processed Lookup Table
# Corner: tt
# Temperature: 25C
# W = 2.0 um
# L = 2 um (2000 nm)
# Columns: gm/id [1/V]  gm/gds [V/V]  id/W [A/m]  ft [Hz]  Cgg/W [F/m]  Cgd/W [F/m]  Cgs/W [F/m]  Cdb/W [F/m]  vgs [V]  vth [V]  vdsat [V]
# vdsat = BSIM4 saturation voltage (|VDS|_sat, positive); use for headroom / saturation / cascode-bias calculations
#           gm/id          gm/gds            id/W              ft           Cgg/W           Cgd/W           Cgs/W           Cdb/W             vgs             vth           vdsat
    2.030051e+00    4.469474e+00    9.672595e+00    2.532925e+08    1.233808e-08    1.037561e-09    1.117466e-08    1.242079e-09   -1.800000e+00    1.015466e+00    6.734182e-01
    2.073091e+00    4.775597e+00    9.476235e+00    2.543320e+08    1.229344e-08    9.773700e-10    1.117703e-08    1.233595e-09   -1.790000e+00    1.015466e+00    6.653576e-01
    2.117260e+00    5.115560e+00    9.279715e+00    2.552673e+08    1.224993e-08    9.194665e-10    1.117839e-08    1.225326e-09   -1.780000e+00    1.015466e+00    6.572994e-01
    2.162504e+00    5.493752e+00    9.083260e+00    2.560872e+08    1.220762e-08    8.639135e-10    1.117875e-08    1.217284e-09   -1.770000e+00    1.015466e+00    6.492435e-01
    2.208810e+00    5.915074e+00    8.886890e+00    2.567802e+08    1.216653e-08    8.107570e-10    1.117809e-08    1.209476e-09   -1.760000e+00    1.015466e+00    6.411898e-01
    2.256142e+00    6.384958e+00    8.690700e+00    2.573349e+08    1.212670e-08    7.600235e-10    1.117643e-08    1.201910e-09   -1.750000e+00    1.015466e+00    6.331381e-01
    2.304462e+00    6.909383e+00    8.494775e+00    2.577400e+08    1.208815e-08    7.117225e-10    1.117379e-08    1.194591e-09   -1.740000e+00    1.015466e+00    6.250885e-01
    2.353729e+00    7.494863e+00    8.299215e+00    2.579854e+08    1.205088e-08    6.658470e-10    1.117017e-08    1.187521e-09   -1.730000e+00    1.015466e+00    6.170408e-01
    2.403898e+00    8.148421e+00    8.104130e+00    2.580615e+08    1.201488e-08    6.223750e-10    1.116560e-08    1.180701e-09   -1.720000e+00    1.015466e+00    6.089949e-01
    2.454929e+00    8.877549e+00    7.909625e+00    2.579603e+08    1.198015e-08    5.812695e-10    1.116009e-08    1.174132e-09   -1.710000e+00    1.015466e+00    6.009508e-01
    2.506785e+00    9.690136e+00    7.715815e+00    2.576755e+08    1.194665e-08    5.424810e-10    1.115368e-08    1.167811e-09   -1.700000e+00    1.015466e+00    5.929083e-01
    2.559435e+00    1.059440e+01    7.522825e+00    2.572024e+08    1.191435e-08    5.059495e-10    1.114637e-08    1.161734e-09   -1.690000e+00    1.015466e+00    5.848674e-01
    2.612859e+00    1.159875e+01    7.330775e+00    2.565385e+08    1.188321e-08    4.716049e-10    1.113820e-08    1.155897e-09   -1.680000e+00    1.015466e+00    5.768280e-01
    2.667056e+00    1.271175e+01    7.139780e+00    2.556833e+08    1.185318e-08    4.393704e-10    1.112919e-08    1.150294e-09   -1.670000e+00    1.015466e+00    5.687899e-01
    2.722032e+00    1.394195e+01    6.949970e+00    2.546388e+08    1.182420e-08    4.091625e-10    1.111935e-08    1.144916e-09   -1.660000e+00    1.015466e+00    5.607532e-01
    2.777811e+00    1.529778e+01    6.761460e+00    2.534079e+08    1.179623e-08    3.808933e-10    1.110871e-08    1.139758e-09   -1.650000e+00    1.015466e+00    5.527177e-01
    2.834436e+00    1.678750e+01    6.574365e+00    2.519964e+08    1.176918e-08    3.544721e-10    1.109729e-08    1.134808e-09   -1.640000e+00    1.015466e+00    5.446833e-01
    2.891959e+00    1.841912e+01    6.388805e+00    2.504104e+08    1.174301e-08    3.298064e-10    1.108511e-08    1.130057e-09   -1.630000e+00    1.015466e+00    5.366500e-01
    2.950454e+00    2.020031e+01    6.204880e+00    2.486580e+08    1.171764e-08    3.068031e-10    1.107217e-08    1.125495e-09   -1.620000e+00    1.015466e+00    5.286177e-01
    3.010005e+00    2.213843e+01    6.022695e+00    2.467475e+08    1.169298e-08    2.853696e-10    1.105849e-08    1.121112e-09   -1.610000e+00    1.015466e+00    5.205863e-01
    3.070707e+00    2.424050e+01    5.842345e+00    2.446877e+08    1.166900e-08    2.654147e-10    1.104408e-08    1.116897e-09   -1.600000e+00    1.015466e+00    5.125558e-01
    3.132669e+00    2.651323e+01    5.663920e+00    2.424879e+08    1.164560e-08    2.468490e-10    1.102895e-08    1.112838e-09   -1.590000e+00    1.015466e+00    5.045261e-01
    3.196005e+00    2.896307e+01    5.487505e+00    2.401570e+08    1.162271e-08    2.295859e-10    1.101308e-08    1.108925e-09   -1.580000e+00    1.015466e+00    4.964970e-01
    3.260837e+00    3.159632e+01    5.313185e+00    2.377041e+08    1.160026e-08    2.135419e-10    1.099649e-08    1.105146e-09   -1.570000e+00    1.015466e+00    4.884687e-01
    3.327306e+00    3.441909e+01    5.141020e+00    2.351377e+08    1.157817e-08    1.986370e-10    1.097916e-08    1.101490e-09   -1.560000e+00    1.015466e+00    4.804409e-01
    3.395541e+00    3.743751e+01    4.971090e+00    2.324657e+08    1.155638e-08    1.847945e-10    1.096110e-08    1.097946e-09   -1.550000e+00    1.015466e+00    4.724137e-01
    3.465695e+00    4.065781e+01    4.803451e+00    2.296960e+08    1.153481e-08    1.719417e-10    1.094227e-08    1.094502e-09   -1.540000e+00    1.015466e+00    4.643871e-01
    3.537918e+00    4.408631e+01    4.638162e+00    2.268353e+08    1.151339e-08    1.600101e-10    1.092268e-08    1.091148e-09   -1.530000e+00    1.015466e+00    4.563609e-01
    3.612372e+00    4.772966e+01    4.475280e+00    2.238904e+08    1.149205e-08    1.489346e-10    1.090229e-08    1.087871e-09   -1.520000e+00    1.015466e+00    4.483352e-01
    3.689224e+00    5.159484e+01    4.314851e+00    2.208671e+08    1.147071e-08    1.386542e-10    1.088108e-08    1.084663e-09   -1.510000e+00    1.015466e+00    4.403099e-01
    3.768651e+00    5.568928e+01    4.156925e+00    2.177706e+08    1.144930e-08    1.291119e-10    1.085902e-08    1.081511e-09   -1.500000e+00    1.015466e+00    4.322851e-01
    3.850838e+00    6.002102e+01    4.001546e+00    2.146062e+08    1.142776e-08    1.202539e-10    1.083608e-08    1.078405e-09   -1.490000e+00    1.015466e+00    4.242608e-01
    3.935979e+00    6.459867e+01    3.848753e+00    2.113780e+08    1.140600e-08    1.120304e-10    1.081222e-08    1.075334e-09   -1.480000e+00    1.015466e+00    4.162370e-01
    4.024283e+00    6.943163e+01    3.698586e+00    2.080901e+08    1.138395e-08    1.043948e-10    1.078738e-08    1.072288e-09   -1.470000e+00    1.015466e+00    4.082137e-01
    4.115966e+00    7.453011e+01    3.551082e+00    2.047460e+08    1.136154e-08    9.730365e-11    1.076154e-08    1.069254e-09   -1.460000e+00    1.015466e+00    4.001911e-01
    4.211262e+00    7.990530e+01    3.406275e+00    2.013488e+08    1.133870e-08    9.071690e-11    1.073464e-08    1.066225e-09   -1.450000e+00    1.015466e+00    3.921691e-01
    4.310417e+00    8.556929e+01    3.264198e+00    1.979012e+08    1.131533e-08    8.459710e-11    1.070661e-08    1.063186e-09   -1.440000e+00    1.015466e+00    3.841481e-01
    4.413693e+00    9.153534e+01    3.124884e+00    1.944059e+08    1.129138e-08    7.890965e-11    1.067740e-08    1.060129e-09   -1.430000e+00    1.015466e+00    3.761280e-01
    4.521374e+00    9.781795e+01    2.988363e+00    1.908646e+08    1.126675e-08    7.362245e-11    1.064693e-08    1.057042e-09   -1.420000e+00    1.015466e+00    3.681092e-01
    4.633760e+00    1.044329e+02    2.854664e+00    1.872794e+08    1.124136e-08    6.870595e-11    1.061514e-08    1.053912e-09   -1.410000e+00    1.015466e+00    3.600919e-01
    4.751170e+00    1.113972e+02    2.723816e+00    1.836516e+08    1.121512e-08    6.413260e-11    1.058193e-08    1.050730e-09   -1.400000e+00    1.015466e+00    3.520763e-01
    4.873952e+00    1.187296e+02    2.595846e+00    1.799824e+08    1.118795e-08    5.987705e-11    1.054724e-08    1.047484e-09   -1.390000e+00    1.015466e+00    3.440629e-01
    5.002473e+00    1.264501e+02    2.470784e+00    1.762728e+08    1.115975e-08    5.591595e-11    1.051097e-08    1.044160e-09   -1.380000e+00    1.015466e+00    3.360522e-01
    5.137133e+00    1.345809e+02    2.348655e+00    1.725235e+08    1.113043e-08    5.222755e-11    1.047301e-08    1.040746e-09   -1.370000e+00    1.015466e+00    3.280446e-01
    5.278352e+00    1.431453e+02    2.229486e+00    1.687348e+08    1.109988e-08    4.879196e-11    1.043326e-08    1.037229e-09   -1.360000e+00    1.015466e+00    3.200408e-01
    5.426587e+00    1.521690e+02    2.113304e+00    1.649070e+08    1.106802e-08    4.559066e-11    1.039163e-08    1.033596e-09   -1.350000e+00    1.015466e+00    3.120415e-01
    5.582326e+00    1.616794e+02    2.000134e+00    1.610398e+08    1.103471e-08    4.260664e-11    1.034797e-08    1.029834e-09   -1.340000e+00    1.015466e+00    3.040477e-01
    5.746088e+00    1.717057e+02    1.890004e+00    1.571330e+08    1.099987e-08    3.982417e-11    1.030218e-08    1.025926e-09   -1.330000e+00    1.015466e+00    2.960604e-01
    5.918430e+00    1.822795e+02    1.782940e+00    1.531860e+08    1.096338e-08    3.722872e-11    1.025412e-08    1.021860e-09   -1.320000e+00    1.015466e+00    2.880809e-01
    6.099940e+00    1.934339e+02    1.678969e+00    1.491981e+08    1.092509e-08    3.480688e-11    1.020364e-08    1.017618e-09   -1.310000e+00    1.015466e+00    2.801107e-01
    6.291241e+00    2.052042e+02    1.578117e+00    1.451680e+08    1.088491e-08    3.254630e-11    1.015061e-08    1.013186e-09   -1.300000e+00    1.015466e+00    2.721514e-01
    6.493002e+00    2.176275e+02    1.480412e+00    1.410948e+08    1.084269e-08    3.043550e-11    1.009488e-08    1.008545e-09   -1.290000e+00    1.015466e+00    2.642050e-01
    6.705905e+00    2.307422e+02    1.385880e+00    1.369770e+08    1.079830e-08    2.846395e-11    1.003628e-08    1.003678e-09   -1.280000e+00    1.015466e+00    2.562739e-01
    6.930684e+00    2.445883e+02    1.294549e+00    1.328131e+08    1.075162e-08    2.662186e-11    9.974635e-09    9.985680e-10   -1.270000e+00    1.015466e+00    2.483608e-01
    7.168080e+00    2.592060e+02    1.206446e+00    1.286016e+08    1.070249e-08    2.490023e-11    9.909795e-09    9.931955e-10   -1.260000e+00    1.015466e+00    2.404689e-01
    7.418853e+00    2.746359e+02    1.121600e+00    1.243408e+08    1.065077e-08    2.329072e-11    9.841570e-09    9.875415e-10   -1.250000e+00    1.015466e+00    2.326017e-01
    7.683772e+00    2.909174e+02    1.040036e+00    1.200295e+08    1.059632e-08    2.178559e-11    9.769785e-09    9.815855e-10   -1.240000e+00    1.015466e+00    2.247636e-01
    7.963595e+00    3.080878e+02    9.617805e-01    1.156663e+08    1.053898e-08    2.037772e-11    9.694245e-09    9.753075e-10   -1.230000e+00    1.015466e+00    2.169594e-01
    8.259037e+00    3.261807e+02    8.868595e-01    1.112503e+08    1.047860e-08    1.906050e-11    9.614760e-09    9.686860e-10   -1.220000e+00    1.015466e+00    2.091948e-01
    8.570777e+00    3.452242e+02    8.152960e-01    1.067812e+08    1.041504e-08    1.782780e-11    9.531145e-09    9.617005e-10   -1.210000e+00    1.015466e+00    2.014760e-01
    8.899395e+00    3.652382e+02    7.471115e-01    1.022596e+08    1.034813e-08    1.667397e-11    9.443210e-09    9.543285e-10   -1.200000e+00    1.015466e+00    1.938105e-01
    9.245316e+00    3.862308e+02    6.823250e-01    9.768672e+07    1.027774e-08    1.559374e-11    9.350755e-09    9.465490e-10   -1.190000e+00    1.015466e+00    1.862065e-01
    9.608841e+00    4.081967e+02    6.209495e-01    9.306558e+07    1.020372e-08    1.458224e-11    9.253600e-09    9.383400e-10   -1.180000e+00    1.015466e+00    1.786734e-01
    9.989982e+00    4.311106e+02    5.629945e-01    8.840050e+07    1.012592e-08    1.363497e-11    9.151560e-09    9.296800e-10   -1.170000e+00    1.015466e+00    1.712218e-01
    1.038845e+01    4.549241e+02    5.084630e-01    8.369788e+07    1.004420e-08    1.274772e-11    9.044455e-09    9.205475e-10   -1.160000e+00    1.015466e+00    1.638635e-01
    1.080361e+01    4.795620e+02    4.573485e-01    7.896667e+07    9.958465e-09    1.191659e-11    8.932130e-09    9.109225e-10   -1.150000e+00    1.015466e+00    1.566115e-01
    1.123433e+01    5.049140e+02    4.096357e-01    7.421821e+07    9.868580e-09    1.113798e-11    8.814430e-09    9.007855e-10   -1.140000e+00    1.015466e+00    1.494801e-01
    1.167895e+01    5.308322e+02    3.652977e-01    6.946695e+07    9.774455e-09    1.040851e-11    8.691215e-09    8.901170e-10   -1.130000e+00    1.015466e+00    1.424849e-01
    1.213518e+01    5.571267e+02    3.242940e-01    6.473052e+07    9.676005e-09    9.725055e-12    8.562380e-09    8.789015e-10   -1.120000e+00    1.015466e+00    1.356425e-01
    1.260004e+01    5.835632e+02    2.865692e-01    6.002964e+07    9.573170e-09    9.084700e-12    8.427825e-09    8.671230e-10   -1.110000e+00    1.015466e+00    1.289706e-01
    1.306982e+01    6.098627e+02    2.520515e-01    5.538816e+07    9.465905e-09    8.484740e-12    8.287485e-09    8.547695e-10   -1.100000e+00    1.015466e+00    1.224876e-01
    1.354010e+01    6.357027e+02    2.206510e-01    5.083246e+07    9.354200e-09    7.922635e-12    8.141335e-09    8.418300e-10   -1.090000e+00    1.015466e+00    1.162125e-01
    1.400575e+01    6.607276e+02    1.922596e-01    4.639095e+07    9.238070e-09    7.396035e-12    7.989365e-09    8.282975e-10   -1.080000e+00    1.015466e+00    1.101639e-01
    1.446107e+01    6.845572e+02    1.667510e-01    4.209308e+07    9.117550e-09    6.902735e-12    7.831620e-09    8.141685e-10   -1.070000e+00    1.015466e+00    1.043602e-01
    1.489998e+01    7.068042e+02    1.439808e-01    3.796811e+07    8.992725e-09    6.440685e-12    7.668175e-09    7.994425e-10   -1.060000e+00    1.015466e+00    9.881866e-02
    1.531625e+01    7.270940e+02    1.237889e-01    3.404383e+07    8.863710e-09    6.007960e-12    7.499155e-09    7.841245e-10   -1.050000e+00    1.015466e+00    9.355500e-02
    1.570382e+01    7.450885e+02    1.060013e-01    3.034521e+07    8.730645e-09    5.602760e-12    7.324735e-09    7.682215e-10   -1.040000e+00    1.015466e+00    8.858262e-02
    1.605720e+01    7.605094e+02    9.043355e-02    2.689291e+07    8.593730e-09    5.223410e-12    7.145130e-09    7.517480e-10   -1.030000e+00    1.015466e+00    8.391216e-02
    1.637178e+01    7.731610e+02    7.689465e-02    2.370236e+07    8.453190e-09    4.868333e-12    6.960610e-09    7.347215e-10   -1.020000e+00    1.015466e+00    7.955101e-02
    1.664424e+01    7.829479e+02    6.519090e-02    2.078294e+07    8.309295e-09    4.536053e-12    6.771495e-09    7.171655e-10   -1.010000e+00    1.015466e+00    7.550302e-02
    1.687276e+01    7.898836e+02    5.513020e-02    1.813763e+07    8.162350e-09    4.225184e-12    6.578165e-09    6.991085e-10   -1.000000e+00    1.015466e+00    7.176826e-02
    1.705724e+01    7.940943e+02    4.652603e-02    1.576325e+07    8.012705e-09    3.934426e-12    6.381030e-09    6.805845e-10   -9.900000e-01    1.015466e+00    6.834307e-02
    1.719936e+01    7.958087e+02    3.920070e-02    1.365094e+07    7.860745e-09    3.662561e-12    6.180560e-09    6.616315e-10   -9.800000e-01    1.015466e+00    6.522023e-02
    1.730242e+01    7.953433e+02    3.298837e-02    1.178715e+07    7.706885e-09    3.408438e-12    5.977265e-09    6.422935e-10   -9.700000e-01    1.015466e+00    6.238926e-02
    1.737115e+01    7.930780e+02    2.773682e-02    1.015473e+07    7.551570e-09    3.170979e-12    5.771695e-09    6.226180e-10   -9.600000e-01    1.015466e+00    5.983695e-02
    1.741145e+01    7.894353e+02    2.330870e-02    8.734123e+06    7.395270e-09    2.949168e-12    5.564425e-09    6.026585e-10   -9.500000e-01    1.015466e+00    5.754785e-02
    1.742995e+01    7.848499e+02    1.958188e-02    7.504525e+06    7.238480e-09    2.742047e-12    5.356070e-09    5.824695e-10   -9.400000e-01    1.015466e+00    5.550489e-02
    1.743366e+01    7.797496e+02    1.644921e-02    6.444898e+06    7.081700e-09    2.548715e-12    5.147255e-09    5.621100e-10   -9.300000e-01    1.015466e+00    5.368996e-02
    1.742966e+01    7.745370e+02    1.381779e-02    5.534779e+06    6.925440e-09    2.368324e-12    4.938618e-09    5.416415e-10   -9.200000e-01    1.015466e+00    5.208445e-02
    1.742481e+01    7.695768e+02    1.160791e-02    4.754878e+06    6.770220e-09    2.200071e-12    4.730801e-09    5.211255e-10   -9.100000e-01    1.015466e+00    5.066976e-02
    1.742553e+01    7.651906e+02    9.751710e-03    4.087484e+06    6.616540e-09    2.043203e-12    4.524442e-09    5.006265e-10   -9.000000e-01    1.015466e+00    4.942770e-02
    1.743775e+01    7.616543e+02    8.191835e-03    3.516655e+06    6.464905e-09    1.897005e-12    4.320166e-09    4.802063e-10   -8.900000e-01    1.015466e+00    4.834078e-02
    1.746677e+01    7.592004e+02    6.880085e-03    3.028302e+06    6.315785e-09    1.760808e-12    4.118575e-09    4.599278e-10   -8.800000e-01    1.015466e+00    4.739251e-02
    1.751728e+01    7.580219e+02    5.776110e-03    2.610134e+06    6.169635e-09    1.633976e-12    3.920246e-09    4.398514e-10   -8.700000e-01    1.015466e+00    4.656749e-02
    1.759347e+01    7.582792e+02    4.846225e-03    2.251553e+06    6.026885e-09    1.515913e-12    3.725717e-09    4.200350e-10   -8.600000e-01    1.015466e+00    4.585157e-02
    1.769899e+01    7.601045e+02    4.062358e-03    1.943504e+06    5.887915e-09    1.406055e-12    3.535487e-09    4.005336e-10   -8.500000e-01    1.015466e+00    4.523183e-02
    1.783705e+01    7.636054e+02    3.401144e-03    1.678289e+06    5.753090e-09    1.303872e-12    3.350009e-09    3.813986e-10   -8.400000e-01    1.015466e+00    4.469661e-02
    1.801039e+01    7.688716e+02    2.843128e-03    1.449417e+06    5.622720e-09    1.208862e-12    3.169686e-09    3.626770e-10   -8.300000e-01    1.015466e+00    4.423545e-02
    1.822136e+01    7.759728e+02    2.372107e-03    1.251422e+06    5.497070e-09    1.120555e-12    2.994868e-09    3.444113e-10   -8.200000e-01    1.015466e+00    4.383902e-02
    1.847178e+01    7.849599e+02    1.974561e-03    1.079718e+06    5.376370e-09    1.038506e-12    2.825850e-09    3.266392e-10   -8.100000e-01    1.015466e+00    4.349906e-02
    1.876297e+01    7.958636e+02    1.639197e-03    9.304656e+05    5.260810e-09    9.623000e-13    2.662876e-09    3.093933e-10   -8.000000e-01    1.015466e+00    4.320828e-02
    1.909557e+01    8.086893e+02    1.356555e-03    8.004583e+05    5.150525e-09    8.915430e-13    2.506134e-09    2.927009e-10   -7.900000e-01    1.015466e+00    4.296025e-02
    1.946947e+01    8.234129e+02    1.118689e-03    6.870202e+05    5.045615e-09    8.258665e-13    2.355757e-09    2.765845e-10   -7.800000e-01    1.015466e+00    4.274936e-02
    1.988364e+01    8.399753e+02    9.189025e-04    5.879203e+05    4.946147e-09    7.649245e-13    2.211833e-09    2.610612e-10   -7.700000e-01    1.015466e+00    4.257065e-02
    2.033605e+01    8.582779e+02    7.515310e-04    5.013032e+05    4.852140e-09    7.083925e-13    2.074399e-09    2.461437e-10   -7.600000e-01    1.015466e+00    4.241981e-02
    2.082358e+01    8.781791e+02    6.117610e-04    4.256216e+05    4.763582e-09    6.559655e-13    1.943450e-09    2.318397e-10   -7.500000e-01    1.015466e+00    4.229303e-02
    2.134191e+01    8.994921e+02    4.954854e-04    3.595822e+05    4.680434e-09    6.073585e-13    1.818940e-09    2.181528e-10   -7.400000e-01    1.015466e+00    4.218699e-02
    2.188565e+01    9.219879e+02    3.991826e-04    3.020964e+05    4.602625e-09    5.623045e-13    1.700790e-09    2.050826e-10   -7.300000e-01    1.015466e+00    4.209877e-02
    2.244840e+01    9.453992e+02    3.198210e-04    2.522367e+05    4.530064e-09    5.205525e-13    1.588886e-09    1.926251e-10   -7.200000e-01    1.015466e+00    4.202579e-02
