# sky130 pfet_01v8 gm/ID Processed Lookup Table
# Corner: tt
# Temperature: 25C
# W = 2.0 um
# L = 4.5 um (4500 nm)
# Columns: gm/id [1/V]  gm/gds [V/V]  id/W [A/m]  ft [Hz]  Cgg/W [F/m]  Cgd/W [F/m]  Cgs/W [F/m]  Cdb/W [F/m]  vgs [V]  vth [V]  vdsat [V]
# vdsat = BSIM4 saturation voltage (|VDS|_sat, positive); use for headroom / saturation / cascode-bias calculations
#           gm/id          gm/gds            id/W              ft           Cgg/W           Cgd/W           Cgs/W           Cdb/W             vgs             vth           vdsat
    2.126108e+00    5.532149e+00    4.275570e+00    5.255526e+07    2.752855e-08    2.398394e-09    2.533134e-08    2.673240e-09   -1.800000e+00    1.023744e+00    6.672811e-01
    2.170913e+00    5.977187e+00    4.184667e+00    5.272555e+07    2.742221e-08    2.258170e-09    2.533565e-08    2.654049e-09   -1.790000e+00    1.023744e+00    6.589944e-01
    2.216701e+00    6.478774e+00    4.093892e+00    5.286973e+07    2.731848e-08    2.123196e-09    2.533764e-08    2.635337e-09   -1.780000e+00    1.023744e+00    6.507140e-01
    2.263468e+00    7.045291e+00    4.003208e+00    5.298518e+07    2.721751e-08    1.993641e-09    2.533732e-08    2.617131e-09   -1.770000e+00    1.023744e+00    6.424398e-01
    2.311152e+00    7.686281e+00    3.912685e+00    5.306933e+07    2.711939e-08    1.869636e-09    2.533468e-08    2.599452e-09   -1.760000e+00    1.023744e+00    6.341719e-01
    2.359698e+00    8.412544e+00    3.822368e+00    5.311974e+07    2.702422e-08    1.751261e-09    2.532973e-08    2.582316e-09   -1.750000e+00    1.023744e+00    6.259102e-01
    2.409050e+00    9.236214e+00    3.732309e+00    5.313422e+07    2.693204e-08    1.638556e-09    2.532250e-08    2.565740e-09   -1.740000e+00    1.023744e+00    6.176547e-01
    2.459154e+00    1.017080e+01    3.642560e+00    5.311088e+07    2.684288e-08    1.531521e-09    2.531302e-08    2.549728e-09   -1.730000e+00    1.023744e+00    6.094053e-01
    2.509958e+00    1.123124e+01    3.553175e+00    5.304816e+07    2.675672e-08    1.430116e-09    2.530133e-08    2.534288e-09   -1.720000e+00    1.023744e+00    6.011620e-01
    2.561419e+00    1.243379e+01    3.464212e+00    5.294496e+07    2.667354e-08    1.334264e-09    2.528747e-08    2.519418e-09   -1.710000e+00    1.023744e+00    5.929249e-01
    2.613508e+00    1.379609e+01    3.375729e+00    5.280069e+07    2.659329e-08    1.243858e-09    2.527149e-08    2.505115e-09   -1.700000e+00    1.023744e+00    5.846938e-01
    2.666210e+00    1.533696e+01    3.287781e+00    5.261522e+07    2.651588e-08    1.158763e-09    2.525344e-08    2.491371e-09   -1.690000e+00    1.023744e+00    5.764687e-01
    2.719524e+00    1.707627e+01    3.200429e+00    5.238898e+07    2.644121e-08    1.078819e-09    2.523337e-08    2.478176e-09   -1.680000e+00    1.023744e+00    5.682497e-01
    2.773469e+00    1.903475e+01    3.113727e+00    5.212276e+07    2.636917e-08    1.003846e-09    2.521133e-08    2.465515e-09   -1.670000e+00    1.023744e+00    5.600366e-01
    2.828085e+00    2.123390e+01    3.027731e+00    5.181793e+07    2.629964e-08    9.336515e-10    2.518736e-08    2.453371e-09   -1.660000e+00    1.023744e+00    5.518295e-01
    2.883426e+00    2.369557e+01    2.942491e+00    5.147602e+07    2.623247e-08    8.680265e-10    2.516151e-08    2.441727e-09   -1.650000e+00    1.023744e+00    5.436284e-01
    2.939565e+00    2.644188e+01    2.858057e+00    5.109895e+07    2.616750e-08    8.067570e-10    2.513382e-08    2.430561e-09   -1.640000e+00    1.023744e+00    5.354332e-01
    2.996587e+00    2.949495e+01    2.774477e+00    5.068875e+07    2.610457e-08    7.496240e-10    2.510432e-08    2.419850e-09   -1.630000e+00    1.023744e+00    5.272439e-01
    3.054595e+00    3.287679e+01    2.691792e+00    5.024765e+07    2.604351e-08    6.964055e-10    2.507305e-08    2.409570e-09   -1.620000e+00    1.023744e+00    5.190605e-01
    3.113696e+00    3.660901e+01    2.610043e+00    4.977776e+07    2.598416e-08    6.468810e-10    2.504002e-08    2.399697e-09   -1.610000e+00    1.023744e+00    5.108830e-01
    3.174014e+00    4.071287e+01    2.529266e+00    4.928133e+07    2.592633e-08    6.008330e-10    2.500524e-08    2.390207e-09   -1.600000e+00    1.023744e+00    5.027114e-01
    3.235675e+00    4.520907e+01    2.449495e+00    4.876045e+07    2.586985e-08    5.580485e-10    2.496873e-08    2.381071e-09   -1.590000e+00    1.023744e+00    4.945456e-01
    3.298811e+00    5.011775e+01    2.370760e+00    4.821707e+07    2.581454e-08    5.183205e-10    2.493048e-08    2.372265e-09   -1.580000e+00    1.023744e+00    4.863857e-01
    3.363562e+00    5.545853e+01    2.293090e+00    4.765309e+07    2.576022e-08    4.814499e-10    2.489048e-08    2.363762e-09   -1.570000e+00    1.023744e+00    4.782317e-01
    3.430076e+00    6.125060e+01    2.216509e+00    4.707029e+07    2.570672e-08    4.472454e-10    2.484872e-08    2.355534e-09   -1.560000e+00    1.023744e+00    4.700836e-01
    3.498501e+00    6.751269e+01    2.141042e+00    4.647024e+07    2.565384e-08    4.155249e-10    2.480515e-08    2.347559e-09   -1.550000e+00    1.023744e+00    4.619413e-01
    3.568989e+00    7.426320e+01    2.066707e+00    4.585433e+07    2.560142e-08    3.861151e-10    2.475976e-08    2.339806e-09   -1.540000e+00    1.023744e+00    4.538050e-01
    3.641707e+00    8.152054e+01    1.993527e+00    4.522398e+07    2.554927e-08    3.588525e-10    2.471247e-08    2.332253e-09   -1.530000e+00    1.023744e+00    4.456747e-01
    3.716820e+00    8.930293e+01    1.921516e+00    4.458029e+07    2.549722e-08    3.335830e-10    2.466326e-08    2.324872e-09   -1.520000e+00    1.023744e+00    4.375504e-01
    3.794503e+00    9.762881e+01    1.850693e+00    4.392436e+07    2.544509e-08    3.101616e-10    2.461205e-08    2.317639e-09   -1.510000e+00    1.023744e+00    4.294321e-01
    3.874936e+00    1.065171e+02    1.781072e+00    4.325708e+07    2.539270e-08    2.884530e-10    2.455874e-08    2.310528e-09   -1.500000e+00    1.023744e+00    4.213199e-01
    3.958316e+00    1.159872e+02    1.712667e+00    4.257932e+07    2.533989e-08    2.683303e-10    2.450329e-08    2.303514e-09   -1.490000e+00    1.023744e+00    4.132140e-01
    4.044843e+00    1.260591e+02    1.645491e+00    4.189182e+07    2.528645e-08    2.496756e-10    2.444556e-08    2.296573e-09   -1.480000e+00    1.023744e+00    4.051144e-01
    4.134730e+00    1.367540e+02    1.579556e+00    4.119520e+07    2.523223e-08    2.323791e-10    2.438546e-08    2.289681e-09   -1.470000e+00    1.023744e+00    3.970213e-01
    4.228205e+00    1.480941e+02    1.514873e+00    4.049004e+07    2.517702e-08    2.163386e-10    2.432287e-08    2.282811e-09   -1.460000e+00    1.023744e+00    3.889348e-01
    4.325503e+00    1.601027e+02    1.451456e+00    3.977678e+07    2.512065e-08    2.014595e-10    2.425766e-08    2.275940e-09   -1.450000e+00    1.023744e+00    3.808551e-01
    4.426891e+00    1.728053e+02    1.389312e+00    3.905591e+07    2.506293e-08    1.876543e-10    2.418969e-08    2.269042e-09   -1.440000e+00    1.023744e+00    3.727824e-01
    4.532633e+00    1.862282e+02    1.328452e+00    3.832771e+07    2.500367e-08    1.748416e-10    2.411880e-08    2.262092e-09   -1.430000e+00    1.023744e+00    3.647169e-01
    4.643026e+00    2.004004e+02    1.268887e+00    3.759252e+07    2.494266e-08    1.629468e-10    2.404483e-08    2.255066e-09   -1.420000e+00    1.023744e+00    3.566591e-01
    4.758383e+00    2.153525e+02    1.210626e+00    3.685057e+07    2.487970e-08    1.519002e-10    2.396759e-08    2.247937e-09   -1.410000e+00    1.023744e+00    3.486093e-01
    4.879032e+00    2.311173e+02    1.153678e+00    3.610198e+07    2.481460e-08    1.416382e-10    2.388690e-08    2.240679e-09   -1.400000e+00    1.023744e+00    3.405678e-01
    5.005337e+00    2.477302e+02    1.098052e+00    3.534693e+07    2.474712e-08    1.321015e-10    2.380254e-08    2.233264e-09   -1.390000e+00    1.023744e+00    3.325353e-01
    5.137680e+00    2.652288e+02    1.043758e+00    3.458548e+07    2.467705e-08    1.232357e-10    2.371430e-08    2.225666e-09   -1.380000e+00    1.023744e+00    3.245122e-01
    5.276464e+00    2.836533e+02    9.908055e-01    3.381762e+07    2.460416e-08    1.149907e-10    2.362194e-08    2.217857e-09   -1.370000e+00    1.023744e+00    3.164993e-01
    5.422143e+00    3.030467e+02    9.392025e-01    3.304338e+07    2.452821e-08    1.073201e-10    2.352521e-08    2.209806e-09   -1.360000e+00    1.023744e+00    3.084975e-01
    5.575173e+00    3.234539e+02    8.889585e-01    3.226262e+07    2.444896e-08    1.001812e-10    2.342385e-08    2.201484e-09   -1.350000e+00    1.023744e+00    3.005076e-01
    5.736059e+00    3.449228e+02    8.400835e-01    3.147527e+07    2.436614e-08    9.353480e-11    2.331758e-08    2.192859e-09   -1.340000e+00    1.023744e+00    2.925307e-01
    5.905333e+00    3.675036e+02    7.925865e-01    3.068113e+07    2.427951e-08    8.734455e-11    2.320610e-08    2.183901e-09   -1.330000e+00    1.023744e+00    2.845682e-01
    6.083565e+00    3.912482e+02    7.464770e-01    2.988003e+07    2.418877e-08    8.157705e-11    2.308912e-08    2.174574e-09   -1.320000e+00    1.023744e+00    2.766216e-01
    6.271349e+00    4.162100e+02    7.017650e-01    2.907168e+07    2.409365e-08    7.620145e-11    2.296629e-08    2.164845e-09   -1.310000e+00    1.023744e+00    2.686926e-01
    6.469320e+00    4.424435e+02    6.584600e-01    2.825583e+07    2.399386e-08    7.118935e-11    2.283728e-08    2.154678e-09   -1.300000e+00    1.023744e+00    2.607831e-01
    6.678135e+00    4.700029e+02    6.165725e-01    2.743214e+07    2.388910e-08    6.651455e-11    2.270175e-08    2.144036e-09   -1.290000e+00    1.023744e+00    2.528957e-01
    6.898482e+00    4.989419e+02    5.761125e-01    2.660028e+07    2.377906e-08    6.215290e-11    2.255932e-08    2.132881e-09   -1.280000e+00    1.023744e+00    2.450329e-01
    7.131070e+00    5.293108e+02    5.370900e-01    2.575991e+07    2.366343e-08    5.808205e-11    2.240961e-08    2.121173e-09   -1.270000e+00    1.023744e+00    2.371979e-01
    7.376623e+00    5.611564e+02    4.995152e-01    2.491067e+07    2.354187e-08    5.428145e-11    2.225223e-08    2.108872e-09   -1.260000e+00    1.023744e+00    2.293943e-01
    7.635855e+00    5.945170e+02    4.633985e-01    2.405223e+07    2.341408e-08    5.073205e-11    2.208678e-08    2.095935e-09   -1.250000e+00    1.023744e+00    2.216262e-01
    7.909481e+00    6.294223e+02    4.287495e-01    2.318433e+07    2.327970e-08    4.741629e-11    2.191287e-08    2.082320e-09   -1.240000e+00    1.023744e+00    2.138985e-01
    8.198176e+00    6.658885e+02    3.955778e-01    2.230672e+07    2.313841e-08    4.431797e-11    2.173006e-08    2.067984e-09   -1.230000e+00    1.023744e+00    2.062165e-01
    8.502561e+00    7.039129e+02    3.638920e-01    2.141933e+07    2.298987e-08    4.142207e-11    2.153794e-08    2.052882e-09   -1.220000e+00    1.023744e+00    1.985864e-01
    8.823169e+00    7.434702e+02    3.336999e-01    2.052217e+07    2.283376e-08    3.871471e-11    2.133611e-08    2.036970e-09   -1.210000e+00    1.023744e+00    1.910153e-01
    9.160406e+00    7.845058e+02    3.050081e-01    1.961550e+07    2.266975e-08    3.618305e-11    2.112414e-08    2.020201e-09   -1.200000e+00    1.023744e+00    1.835112e-01
    9.514506e+00    8.269294e+02    2.778212e-01    1.869981e+07    2.249752e-08    3.381522e-11    2.090163e-08    2.002533e-09   -1.190000e+00    1.023744e+00    1.760830e-01
    9.885477e+00    8.706071e+02    2.521419e-01    1.777590e+07    2.231676e-08    3.160021e-11    2.066819e-08    1.983919e-09   -1.180000e+00    1.023744e+00    1.687408e-01
    1.027304e+01    9.153544e+02    2.279697e-01    1.684495e+07    2.212720e-08    2.952780e-11    2.042345e-08    1.964317e-09   -1.170000e+00    1.023744e+00    1.614957e-01
    1.067655e+01    9.609276e+02    2.053012e-01    1.590860e+07    2.192857e-08    2.758856e-11    2.016706e-08    1.943684e-09   -1.160000e+00    1.023744e+00    1.543601e-01
    1.109493e+01    1.007018e+03    1.841282e-01    1.496900e+07    2.172062e-08    2.577370e-11    1.989870e-08    1.921981e-09   -1.150000e+00    1.023744e+00    1.473474e-01
    1.152660e+01    1.053245e+03    1.644382e-01    1.402885e+07    2.150315e-08    2.407508e-11    1.961809e-08    1.899170e-09   -1.140000e+00    1.023744e+00    1.404722e-01
    1.196940e+01    1.099157e+03    1.462128e-01    1.309146e+07    2.127599e-08    2.248515e-11    1.932499e-08    1.875218e-09   -1.130000e+00    1.023744e+00    1.337501e-01
    1.242052e+01    1.144226e+03    1.294272e-01    1.216074e+07    2.103904e-08    2.099686e-11    1.901922e-08    1.850092e-09   -1.120000e+00    1.023744e+00    1.271977e-01
    1.287647e+01    1.187862e+03    1.140499e-01    1.124118e+07    2.079219e-08    1.960368e-11    1.870065e-08    1.823768e-09   -1.110000e+00    1.023744e+00    1.208320e-01
    1.333309e+01    1.229422e+03    1.000417e-01    1.033780e+07    2.053544e-08    1.829955e-11    1.836923e-08    1.796224e-09   -1.100000e+00    1.023744e+00    1.146706e-01
    1.378555e+01    1.268229e+03    8.735570e-02    9.455984e+06    2.026884e-08    1.707878e-11    1.802498e-08    1.767449e-09   -1.090000e+00    1.023744e+00    1.087309e-01
    1.422850e+01    1.303607e+03    7.593730e-02    8.601367e+06    1.999249e-08    1.593610e-11    1.766799e-08    1.737432e-09   -1.080000e+00    1.023744e+00    1.030299e-01
    1.465617e+01    1.334907e+03    6.572435e-02    7.779575e+06    1.970658e-08    1.486661e-11    1.729847e-08    1.706176e-09   -1.070000e+00    1.023744e+00    9.758378e-02
    1.506267e+01    1.361552e+03    5.664790e-02    6.995996e+06    1.941138e-08    1.386569e-11    1.691669e-08    1.673689e-09   -1.060000e+00    1.023744e+00    9.240696e-02
    1.544218e+01    1.383080e+03    4.863318e-02    6.255527e+06    1.910723e-08    1.292909e-11    1.652306e-08    1.639989e-09   -1.050000e+00    1.023744e+00    8.751196e-02
    1.578939e+01    1.399176e+03    4.160079e-02    5.562304e+06    1.879457e-08    1.205277e-11    1.611806e-08    1.605104e-09   -1.040000e+00    1.023744e+00    8.290876e-02
    1.609973e+01    1.409707e+03    3.546837e-02    4.919502e+06    1.847391e-08    1.123301e-11    1.570230e-08    1.569071e-09   -1.030000e+00    1.023744e+00    7.860436e-02
    1.636976e+01    1.414736e+03    3.015224e-02    4.329167e+06    1.814586e-08    1.046630e-11    1.527650e-08    1.531939e-09   -1.020000e+00    1.023744e+00    7.460249e-02
    1.659743e+01    1.414529e+03    2.556917e-02    3.792158e+06    1.781112e-08    9.749355e-12    1.484149e-08    1.493766e-09   -1.010000e+00    1.023744e+00    7.090341e-02
    1.678227e+01    1.409537e+03    2.163805e-02    3.308145e+06    1.747046e-08    9.079105e-12    1.439820e-08    1.454622e-09   -1.000000e+00    1.023744e+00    6.750394e-02
    1.692540e+01    1.400373e+03    1.828135e-02    2.875699e+06    1.712474e-08    8.452665e-12    1.394764e-08    1.414585e-09   -9.900000e-01    1.023744e+00    6.439754e-02
    1.702954e+01    1.387763e+03    1.542633e-02    2.492450e+06    1.677487e-08    7.867325e-12    1.349096e-08    1.373747e-09   -9.800000e-01    1.023744e+00    6.157465e-02
    1.709879e+01    1.372512e+03    1.300595e-02    2.155288e+06    1.642186e-08    7.320555e-12    1.302936e-08    1.332206e-09   -9.700000e-01    1.023744e+00    5.902306e-02
    1.713840e+01    1.355444e+03    1.095941e-02    1.860585e+06    1.606675e-08    6.809965e-12    1.256410e-08    1.290069e-09   -9.600000e-01    1.023744e+00    5.672842e-02
    1.715436e+01    1.337369e+03    9.232390e-03    1.604409e+06    1.571063e-08    6.333305e-12    1.209653e-08    1.247450e-09   -9.500000e-01    1.023744e+00    5.467476e-02
    1.715317e+01    1.319043e+03    7.776985e-03    1.382730e+06    1.535460e-08    5.888470e-12    1.162803e-08    1.204469e-09   -9.400000e-01    1.023744e+00    5.284503e-02
    1.714146e+01    1.301144e+03    6.551470e-03    1.191573e+06    1.499982e-08    5.473480e-12    1.115999e-08    1.161254e-09   -9.300000e-01    1.023744e+00    5.122163e-02
    1.712570e+01    1.284260e+03    5.519860e-03    1.027154e+06    1.464742e-08    5.086455e-12    1.069384e-08    1.117932e-09   -9.200000e-01    1.023744e+00    4.978684e-02
    1.711201e+01    1.268885e+03    4.651401e-03    8.859595e+05    1.429851e-08    4.725648e-12    1.023097e-08    1.074634e-09   -9.100000e-01    1.023744e+00    4.852324e-02
    1.710607e+01    1.255418e+03    3.919981e-03    7.648014e+05    1.395422e-08    4.389396e-12    9.772750e-09    1.031489e-09   -9.000000e-01    1.023744e+00    4.741400e-02
    1.711298e+01    1.244178e+03    3.303572e-03    6.608347e+05    1.361560e-08    4.076142e-12    9.320520e-09    9.886270e-10   -8.900000e-01    1.023744e+00    4.644317e-02
    1.713730e+01    1.235411e+03    2.783667e-03    5.715613e+05    1.328364e-08    3.784415e-12    8.875535e-09    9.461730e-10   -8.800000e-01    1.023744e+00    4.559577e-02
    1.718308e+01    1.229309e+03    2.344768e-03    4.948109e+05    1.295931e-08    3.512834e-12    8.439000e-09    9.042480e-10   -8.700000e-01    1.023744e+00    4.485796e-02
    1.725387e+01    1.226015e+03    1.973925e-03    4.287174e+05    1.264347e-08    3.260094e-12    8.012005e-09    8.629660e-10   -8.600000e-01    1.023744e+00    4.421706e-02
    1.735282e+01    1.225644e+03    1.660328e-03    3.716871e+05    1.233691e-08    3.024971e-12    7.595555e-09    8.224350e-10   -8.500000e-01    1.023744e+00    4.366156e-02
    1.748268e+01    1.228281e+03    1.394959e-03    3.223670e+05    1.204034e-08    2.806310e-12    7.190550e-09    7.827525e-10   -8.400000e-01    1.023744e+00    4.318111e-02
    1.764591e+01    1.233995e+03    1.170289e-03    2.796132e+05    1.175437e-08    2.603025e-12    6.797765e-09    7.440085e-10   -8.300000e-01    1.023744e+00    4.276642e-02
    1.784454e+01    1.242835e+03    9.800305e-04    2.424611e+05    1.147950e-08    2.414096e-12    6.417865e-09    7.062830e-10   -8.200000e-01    1.023744e+00    4.240925e-02
    1.808026e+01    1.254835e+03    8.189240e-04    2.100993e+05    1.121615e-08    2.238562e-12    6.051390e-09    6.696450e-10   -8.100000e-01    1.023744e+00    4.210230e-02
    1.835432e+01    1.270006e+03    6.825600e-04    1.818463e+05    1.096465e-08    2.075524e-12    5.698770e-09    6.341530e-10   -8.000000e-01    1.023744e+00    4.183911e-02
    1.866737e+01    1.288329e+03    5.672355e-04    1.571303e+05    1.072523e-08    1.924134e-12    5.360305e-09    5.998555e-10   -7.900000e-01    1.023744e+00    4.161403e-02
    1.901943e+01    1.309752e+03    4.698311e-04    1.354727e+05    1.049803e-08    1.783598e-12    5.036200e-09    5.667905e-10   -7.800000e-01    1.023744e+00    4.142209e-02
    1.940972e+01    1.334178e+03    3.877104e-04    1.164723e+05    1.028311e-08    1.653172e-12    4.726543e-09    5.349850e-10   -7.700000e-01    1.023744e+00    4.125891e-02
    1.983651e+01    1.361457e+03    3.186384e-04    9.979388e+04    1.008045e-08    1.532157e-12    4.431336e-09    5.044585e-10   -7.600000e-01    1.023744e+00    4.112069e-02
    2.029709e+01    1.391379e+03    2.607118e-04    8.515684e+04    9.889970e-09    1.419900e-12    4.150485e-09    4.752193e-10   -7.500000e-01    1.023744e+00    4.100406e-02
    2.078759e+01    1.423670e+03    2.123032e-04    7.232585e+04    9.711520e-09    1.315791e-12    3.883818e-09    4.472688e-10   -7.400000e-01    1.023744e+00    4.090610e-02
    2.130308e+01    1.457994e+03    1.720148e-04    6.110219e+04    9.544905e-09    1.219256e-12    3.631093e-09    4.206005e-10   -7.300000e-01    1.023744e+00    4.082423e-02
    2.183757e+01    1.493956e+03    1.386413e-04    5.131659e+04    9.389865e-09    1.129761e-12    3.392006e-09    3.952008e-10   -7.200000e-01    1.023744e+00    4.075616e-02
