# sky130 pfet_01v8 gm/ID Processed Lookup Table
# Corner: tt
# Temperature: 25C
# W = 2.0 um
# L = 1 um (1000 nm)
# Columns: gm/id [1/V]  gm/gds [V/V]  id/W [A/m]  ft [Hz]  Cgg/W [F/m]  Cgd/W [F/m]  Cgs/W [F/m]  Cdb/W [F/m]  vgs [V]  vth [V]  vdsat [V]
# vdsat = BSIM4 saturation voltage (|VDS|_sat, positive); use for headroom / saturation / cascode-bias calculations
#           gm/id          gm/gds            id/W              ft           Cgg/W           Cgd/W           Cgs/W           Cdb/W             vgs             vth           vdsat
    1.931388e+00    3.669097e+00    1.963907e+01    9.715837e+08    6.213415e-09    3.974390e-10    5.799500e-09    5.914525e-10   -1.800000e+00    9.937808e-01    7.082402e-01
    1.973097e+00    3.894994e+00    1.925977e+01    9.761072e+08    6.196150e-09    3.740975e-10    5.800225e-09    5.880470e-10   -1.790000e+00    9.937808e-01    6.997709e-01
    2.016041e+00    4.144090e+00    1.887908e+01    9.802881e+08    6.179405e-09    3.518118e-10    5.800485e-09    5.847470e-10   -1.780000e+00    9.937808e-01    6.913085e-01
    2.060111e+00    4.419348e+00    1.849823e+01    9.840916e+08    6.163185e-09    3.305778e-10    5.800285e-09    5.815540e-10   -1.770000e+00    9.937808e-01    6.828531e-01
    2.105335e+00    4.724101e+00    1.811696e+01    9.874820e+08    6.147485e-09    3.103855e-10    5.799625e-09    5.784680e-10   -1.760000e+00    9.937808e-01    6.744044e-01
    2.151699e+00    5.062066e+00    1.773543e+01    9.904218e+08    6.132295e-09    2.912196e-10    5.798525e-09    5.754895e-10   -1.750000e+00    9.937808e-01    6.659625e-01
    2.199177e+00    5.437379e+00    1.735378e+01    9.928699e+08    6.117615e-09    2.730603e-10    5.796995e-09    5.726170e-10   -1.740000e+00    9.937808e-01    6.575271e-01
    2.247737e+00    5.854560e+00    1.697221e+01    9.947872e+08    6.103425e-09    2.558833e-10    5.795035e-09    5.698495e-10   -1.730000e+00    9.937808e-01    6.490983e-01
    2.297338e+00    6.318531e+00    1.659087e+01    9.961327e+08    6.089715e-09    2.396610e-10    5.792665e-09    5.671855e-10   -1.720000e+00    9.937808e-01    6.406759e-01
    2.347934e+00    6.834549e+00    1.620998e+01    9.968685e+08    6.076460e-09    2.243627e-10    5.789900e-09    5.646230e-10   -1.710000e+00    9.937808e-01    6.322599e-01
    2.399475e+00    7.408132e+00    1.582974e+01    9.969566e+08    6.063650e-09    2.099555e-10    5.786740e-09    5.621580e-10   -1.700000e+00    9.937808e-01    6.238502e-01
    2.451909e+00    8.044967e+00    1.545040e+01    9.963647e+08    6.051260e-09    1.964042e-10    5.783205e-09    5.597890e-10   -1.690000e+00    9.937808e-01    6.154466e-01
    2.505187e+00    8.750772e+00    1.507217e+01    9.950650e+08    6.039270e-09    1.836729e-10    5.779300e-09    5.575115e-10   -1.680000e+00    9.937808e-01    6.070492e-01
    2.559263e+00    9.531126e+00    1.469531e+01    9.930367e+08    6.027655e-09    1.717243e-10    5.775040e-09    5.553230e-10   -1.670000e+00    9.937808e-01    5.986579e-01
    2.614106e+00    1.039130e+01    1.432006e+01    9.902679e+08    6.016385e-09    1.605208e-10    5.770435e-09    5.532190e-10   -1.660000e+00    9.937808e-01    5.902724e-01
    2.669692e+00    1.133604e+01    1.394671e+01    9.867525e+08    6.005440e-09    1.500250e-10    5.765485e-09    5.511955e-10   -1.650000e+00    9.937808e-01    5.818929e-01
    2.726018e+00    1.236944e+01    1.357549e+01    9.824940e+08    5.994795e-09    1.401996e-10    5.760205e-09    5.492490e-10   -1.640000e+00    9.937808e-01    5.735192e-01
    2.783097e+00    1.349475e+01    1.320665e+01    9.775053e+08    5.984420e-09    1.310078e-10    5.754595e-09    5.473745e-10   -1.630000e+00    9.937808e-01    5.651512e-01
    2.840958e+00    1.471428e+01    1.284046e+01    9.718053e+08    5.974290e-09    1.224138e-10    5.748670e-09    5.455685e-10   -1.620000e+00    9.937808e-01    5.567889e-01
    2.899654e+00    1.602941e+01    1.247715e+01    9.654206e+08    5.964375e-09    1.143827e-10    5.742425e-09    5.438265e-10   -1.610000e+00    9.937808e-01    5.484322e-01
    2.959250e+00    1.744053e+01    1.211695e+01    9.583813e+08    5.954655e-09    1.068808e-10    5.735860e-09    5.421440e-10   -1.600000e+00    9.937808e-01    5.400810e-01
    3.019832e+00    1.894718e+01    1.176008e+01    9.507226e+08    5.945100e-09    9.987575e-11    5.728985e-09    5.405175e-10   -1.590000e+00    9.937808e-01    5.317353e-01
    3.081497e+00    2.054819e+01    1.140675e+01    9.424820e+08    5.935680e-09    9.333635e-11    5.721800e-09    5.389415e-10   -1.580000e+00    9.937808e-01    5.233950e-01
    3.144358e+00    2.224186e+01    1.105714e+01    9.336966e+08    5.926375e-09    8.723310e-11    5.714295e-09    5.374125e-10   -1.570000e+00    9.937808e-01    5.150600e-01
    3.208534e+00    2.402609e+01    1.071145e+01    9.244047e+08    5.917155e-09    8.153780e-11    5.706470e-09    5.359265e-10   -1.560000e+00    9.937808e-01    5.067304e-01
    3.274158e+00    2.589874e+01    1.036984e+01    9.146436e+08    5.907990e-09    7.622370e-11    5.698320e-09    5.344790e-10   -1.550000e+00    9.937808e-01    4.984060e-01
    3.341369e+00    2.785764e+01    1.003245e+01    9.044485e+08    5.898855e-09    7.126565e-11    5.689840e-09    5.330660e-10   -1.540000e+00    9.937808e-01    4.900868e-01
    3.410312e+00    2.990094e+01    9.699435e+00    8.938512e+08    5.889730e-09    6.663980e-11    5.681020e-09    5.316835e-10   -1.530000e+00    9.937808e-01    4.817727e-01
    3.481135e+00    3.202713e+01    9.370930e+00    8.828846e+08    5.880575e-09    6.232375e-11    5.671855e-09    5.303275e-10   -1.520000e+00    9.937808e-01    4.734638e-01
    3.554002e+00    3.423523e+01    9.047045e+00    8.715749e+08    5.871375e-09    5.829650e-11    5.662325e-09    5.289935e-10   -1.510000e+00    9.937808e-01    4.651600e-01
    3.629074e+00    3.652482e+01    8.727900e+00    8.599486e+08    5.862100e-09    5.453835e-11    5.652425e-09    5.276775e-10   -1.500000e+00    9.937808e-01    4.568612e-01
    3.706523e+00    3.889615e+01    8.413595e+00    8.480297e+08    5.852715e-09    5.103085e-11    5.642135e-09    5.263765e-10   -1.490000e+00    9.937808e-01    4.485676e-01
    3.786530e+00    4.135014e+01    8.104225e+00    8.358383e+08    5.843200e-09    4.775670e-11    5.631435e-09    5.250850e-10   -1.480000e+00    9.937808e-01    4.402790e-01
    3.869279e+00    4.388838e+01    7.799885e+00    8.233934e+08    5.833525e-09    4.469987e-11    5.620315e-09    5.238005e-10   -1.470000e+00    9.937808e-01    4.319956e-01
    3.954971e+00    4.651325e+01    7.500655e+00    8.107126e+08    5.823655e-09    4.184533e-11    5.608750e-09    5.225180e-10   -1.460000e+00    9.937808e-01    4.237172e-01
    4.043810e+00    4.922765e+01    7.206615e+00    7.978103e+08    5.813565e-09    3.917908e-11    5.596710e-09    5.212335e-10   -1.450000e+00    9.937808e-01    4.154441e-01
    4.136019e+00    5.203536e+01    6.917835e+00    7.847002e+08    5.803220e-09    3.668810e-11    5.584180e-09    5.199430e-10   -1.440000e+00    9.937808e-01    4.071762e-01
    4.231828e+00    5.494069e+01    6.634390e+00    7.713949e+08    5.792585e-09    3.436029e-11    5.571120e-09    5.186420e-10   -1.430000e+00    9.937808e-01    3.989136e-01
    4.331487e+00    5.794874e+01    6.356345e+00    7.579035e+08    5.781635e-09    3.218435e-11    5.557515e-09    5.173265e-10   -1.420000e+00    9.937808e-01    3.906565e-01
    4.435258e+00    6.106514e+01    6.083765e+00    7.442368e+08    5.770325e-09    3.014984e-11    5.543315e-09    5.159920e-10   -1.410000e+00    9.937808e-01    3.824051e-01
    4.543425e+00    6.429625e+01    5.816705e+00    7.304023e+08    5.758620e-09    2.824701e-11    5.528500e-09    5.146335e-10   -1.400000e+00    9.937808e-01    3.741594e-01
    4.656293e+00    6.764913e+01    5.555225e+00    7.164063e+08    5.746490e-09    2.646684e-11    5.513020e-09    5.132470e-10   -1.390000e+00    9.937808e-01    3.659198e-01
    4.774179e+00    7.113147e+01    5.299385e+00    7.022558e+08    5.733885e-09    2.480093e-11    5.496835e-09    5.118270e-10   -1.380000e+00    9.937808e-01    3.576864e-01
    4.897433e+00    7.475167e+01    5.049240e+00    6.879552e+08    5.720770e-09    2.324148e-11    5.479905e-09    5.103685e-10   -1.370000e+00    9.937808e-01    3.494598e-01
    5.026429e+00    7.851883e+01    4.804838e+00    6.735090e+08    5.707095e-09    2.178126e-11    5.462180e-09    5.088660e-10   -1.360000e+00    9.937808e-01    3.412402e-01
    5.161569e+00    8.244280e+01    4.566234e+00    6.589204e+08    5.692815e-09    2.041357e-11    5.443605e-09    5.073145e-10   -1.350000e+00    9.937808e-01    3.330282e-01
    5.303282e+00    8.653415e+01    4.333477e+00    6.441911e+08    5.677885e-09    1.913217e-11    5.424135e-09    5.057075e-10   -1.340000e+00    9.937808e-01    3.248243e-01
    5.452031e+00    9.080422e+01    4.106618e+00    6.293236e+08    5.662245e-09    1.793128e-11    5.403700e-09    5.040395e-10   -1.330000e+00    9.937808e-01    3.166293e-01
    5.608313e+00    9.526517e+01    3.885705e+00    6.143169e+08    5.645855e-09    1.680552e-11    5.382245e-09    5.023040e-10   -1.320000e+00    9.937808e-01    3.084440e-01
    5.772662e+00    9.992995e+01    3.670789e+00    5.991723e+08    5.628645e-09    1.574993e-11    5.359700e-09    5.004940e-10   -1.310000e+00    9.937808e-01    3.002693e-01
    5.945647e+00    1.048123e+02    3.461917e+00    5.838882e+08    5.610560e-09    1.475986e-11    5.336000e-09    4.986028e-10   -1.300000e+00    9.937808e-01    2.921064e-01
    6.127878e+00    1.099267e+02    3.259138e+00    5.684616e+08    5.591545e-09    1.383102e-11    5.311065e-09    4.966230e-10   -1.290000e+00    9.937808e-01    2.839567e-01
    6.320003e+00    1.152885e+02    3.062501e+00    5.528906e+08    5.571530e-09    1.295941e-11    5.284820e-09    4.945468e-10   -1.280000e+00    9.937808e-01    2.758217e-01
    6.522712e+00    1.209136e+02    2.872054e+00    5.371722e+08    5.550440e-09    1.214135e-11    5.257185e-09    4.923662e-10   -1.270000e+00    9.937808e-01    2.677033e-01
    6.736732e+00    1.268187e+02    2.687845e+00    5.213008e+08    5.528220e-09    1.137336e-11    5.228075e-09    4.900728e-10   -1.260000e+00    9.937808e-01    2.596037e-01
    6.962828e+00    1.330207e+02    2.509924e+00    5.052729e+08    5.504785e-09    1.065225e-11    5.197395e-09    4.876577e-10   -1.250000e+00    9.937808e-01    2.515253e-01
    7.201792e+00    1.395369e+02    2.338338e+00    4.890832e+08    5.480060e-09    9.975050e-12    5.165055e-09    4.851118e-10   -1.240000e+00    9.937808e-01    2.434713e-01
    7.454443e+00    1.463844e+02    2.173136e+00    4.727255e+08    5.453975e-09    9.338980e-12    5.130955e-09    4.824254e-10   -1.230000e+00    9.937808e-01    2.354449e-01
    7.721620e+00    1.535802e+02    2.014363e+00    4.561959e+08    5.426440e-09    8.741470e-12    5.094995e-09    4.795887e-10   -1.220000e+00    9.937808e-01    2.274503e-01
    8.004154e+00    1.611398e+02    1.862067e+00    4.394890e+08    5.397380e-09    8.180125e-12    5.057075e-09    4.765913e-10   -1.210000e+00    9.937808e-01    2.194920e-01
    8.302859e+00    1.690775e+02    1.716292e+00    4.226017e+08    5.366705e-09    7.652710e-12    5.017085e-09    4.734228e-10   -1.200000e+00    9.937808e-01    2.115755e-01
    8.618505e+00    1.774050e+02    1.577078e+00    4.055322e+08    5.334330e-09    7.157145e-12    4.974921e-09    4.700724e-10   -1.190000e+00    9.937808e-01    2.037068e-01
    8.951790e+00    1.861307e+02    1.444462e+00    3.882809e+08    5.300175e-09    6.691495e-12    4.930473e-09    4.665290e-10   -1.180000e+00    9.937808e-01    1.958930e-01
    9.303287e+00    1.952578e+02    1.318477e+00    3.708518e+08    5.264155e-09    6.253955e-12    4.883632e-09    4.627814e-10   -1.170000e+00    9.937808e-01    1.881422e-01
    9.673397e+00    2.047838e+02    1.199146e+00    3.532538e+08    5.226180e-09    5.842850e-12    4.834290e-09    4.588184e-10   -1.160000e+00    9.937808e-01    1.804636e-01
    1.006230e+01    2.146982e+02    1.086484e+00    3.355009e+08    5.186175e-09    5.456600e-12    4.782341e-09    4.546286e-10   -1.150000e+00    9.937808e-01    1.728675e-01
    1.046986e+01    2.249799e+02    9.804940e-01    3.176145e+08    5.144055e-09    5.093740e-12    4.727681e-09    4.502011e-10   -1.140000e+00    9.937808e-01    1.653657e-01
    1.089556e+01    2.355966e+02    8.811645e-01    2.996251e+08    5.099745e-09    4.752910e-12    4.670212e-09    4.455249e-10   -1.130000e+00    9.937808e-01    1.579710e-01
    1.133840e+01    2.465013e+02    7.884650e-01    2.815722e+08    5.053180e-09    4.432823e-12    4.609843e-09    4.405896e-10   -1.120000e+00    9.937808e-01    1.506979e-01
    1.179682e+01    2.576307e+02    7.023445e-01    2.635071e+08    5.004295e-09    4.132285e-12    4.546489e-09    4.353851e-10   -1.110000e+00    9.937808e-01    1.435621e-01
    1.226854e+01    2.689030e+02    6.227265e-01    2.454927e+08    4.953039e-09    3.850176e-12    4.480076e-09    4.299023e-10   -1.100000e+00    9.937808e-01    1.365805e-01
    1.275059e+01    2.802175e+02    5.495055e-01    2.276056e+08    4.899363e-09    3.585446e-12    4.410544e-09    4.241327e-10   -1.090000e+00    9.937808e-01    1.297714e-01
    1.323915e+01    2.914539e+02    4.825448e-01    2.099337e+08    4.843238e-09    3.337111e-12    4.337842e-09    4.180692e-10   -1.080000e+00    9.937808e-01    1.231538e-01
    1.372956e+01    3.024722e+02    4.216728e-01    1.925762e+08    4.784645e-09    3.104249e-12    4.261940e-09    4.117056e-10   -1.070000e+00    9.937808e-01    1.167472e-01
    1.421634e+01    3.131179e+02    3.666818e-01    1.756411e+08    4.723580e-09    2.885990e-12    4.182827e-09    4.050378e-10   -1.060000e+00    9.937808e-01    1.105716e-01
    1.469336e+01    3.232253e+02    3.173278e-01    1.592422e+08    4.660057e-09    2.681519e-12    4.100509e-09    3.980628e-10   -1.050000e+00    9.937808e-01    1.046463e-01
    1.515391e+01    3.326245e+02    2.733307e-01    1.434934e+08    4.594109e-09    2.490065e-12    4.015018e-09    3.907800e-10   -1.040000e+00    9.937808e-01    9.898993e-02
    1.559107e+01    3.411506e+02    2.343780e-01    1.285046e+08    4.525788e-09    2.310904e-12    3.926410e-09    3.831906e-10   -1.030000e+00    9.937808e-01    9.361928e-02
    1.599801e+01    3.486542e+02    2.001289e-01    1.143752e+08    4.455167e-09    2.143351e-12    3.834769e-09    3.752985e-10   -1.020000e+00    9.937808e-01    8.854901e-02
    1.636843e+01    3.550117e+02    1.702209e-01    1.011890e+08    4.382342e-09    1.986758e-12    3.740205e-09    3.671098e-10   -1.010000e+00    9.937808e-01    8.379085e-02
    1.669697e+01    3.601357e+02    1.442767e-01    8.900927e+07    4.307435e-09    1.840509e-12    3.642857e-09    3.586336e-10   -1.000000e+00    9.937808e-01    7.935309e-02
    1.697964e+01    3.639827e+02    1.219133e-01    7.787519e+07    4.230587e-09    1.704022e-12    3.542896e-09    3.498815e-10   -9.900000e-01    9.937808e-01    7.524017e-02
    1.721414e+01    3.665593e+02    1.027502e-01    6.780074e+07    4.151966e-09    1.576745e-12    3.440523e-09    3.408679e-10   -9.800000e-01    9.937808e-01    7.145248e-02
    1.740006e+01    3.679203e+02    8.641745e-02    5.877469e+07    4.071759e-09    1.458151e-12    3.335963e-09    3.316102e-10   -9.700000e-01    9.937808e-01    6.798632e-02
    1.753895e+01    3.681677e+02    7.256310e-02    5.076298e+07    3.990179e-09    1.347739e-12    3.229474e-09    3.221287e-10   -9.600000e-01    9.937808e-01    6.483406e-02
    1.763419e+01    3.674419e+02    6.085880e-02    4.371240e+07    3.907458e-09    1.245032e-12    3.121338e-09    3.124460e-10   -9.500000e-01    9.937808e-01    6.198456e-02
    1.769074e+01    3.659120e+02    5.100390e-02    3.755512e+07    3.823845e-09    1.149574e-12    3.011861e-09    3.025874e-10   -9.400000e-01    9.937808e-01    5.942362e-02
    1.771477e+01    3.637639e+02    4.272781e-02    3.221371e+07    3.739605e-09    1.060931e-12    2.901370e-09    2.925805e-10   -9.300000e-01    9.937808e-01    5.713465e-02
    1.771322e+01    3.611882e+02    3.579083e-02    2.760580e+07    3.655015e-09    9.786865e-13    2.790206e-09    2.824550e-10   -9.200000e-01    9.937808e-01    5.509931e-02
    1.769341e+01    3.583716e+02    2.998348e-02    2.364837e+07    3.570364e-09    9.024455e-13    2.678726e-09    2.722420e-10   -9.100000e-01    9.937808e-01    5.329815e-02
    1.766257e+01    3.554860e+02    2.512493e-02    2.026089e+07    3.485942e-09    8.318295e-13    2.567290e-09    2.619739e-10   -9.000000e-01    9.937808e-01    5.171128e-02
    1.762763e+01    3.526866e+02    2.106070e-02    1.736789e+07    3.402044e-09    7.664775e-13    2.456267e-09    2.516843e-10   -8.900000e-01    9.937808e-01    5.031883e-02
    1.759499e+01    3.501066e+02    1.765996e-02    1.490036e+07    3.318960e-09    7.060460e-13    2.346018e-09    2.414065e-10   -8.800000e-01    9.937808e-01    4.910146e-02
    1.757036e+01    3.478579e+02    1.481266e-02    1.279660e+07    3.236974e-09    6.502070e-13    2.236900e-09    2.311745e-10   -8.700000e-01    9.937808e-01    4.804070e-02
    1.755882e+01    3.460331e+02    1.242672e-02    1.100235e+07    3.156361e-09    5.986500e-13    2.129257e-09    2.210212e-10   -8.600000e-01    9.937808e-01    4.711915e-02
    1.756480e+01    3.447071e+02    1.042542e-02    9.470561e+06    3.077381e-09    5.510785e-13    2.023415e-09    2.109787e-10   -8.500000e-01    9.937808e-01    4.632070e-02
    1.759218e+01    3.439416e+02    8.744995e-03    8.160900e+06    3.000276e-09    5.072130e-13    1.919683e-09    2.010777e-10   -8.400000e-01    9.937808e-01    4.563060e-02
    1.764438e+01    3.437867e+02    7.332530e-03    7.039059e+06    2.925269e-09    4.667883e-13    1.818342e-09    1.913472e-10   -8.300000e-01    9.937808e-01    4.503547e-02
    1.772450e+01    3.442857e+02    6.144155e-03    6.076050e+06    2.852561e-09    4.295542e-13    1.719647e-09    1.818141e-10   -8.200000e-01    9.937808e-01    4.452328e-02
    1.783537e+01    3.454758e+02    5.143470e-03    5.247473e+06    2.782328e-09    3.952752e-13    1.623825e-09    1.725028e-10   -8.100000e-01    9.937808e-01    4.408332e-02
    1.797962e+01    3.473915e+02    4.300289e-03    4.532865e+06    2.714723e-09    3.637301e-13    1.531070e-09    1.634353e-10   -8.000000e-01    9.937808e-01    4.370610e-02
    1.815969e+01    3.500637e+02    3.589513e-03    3.915070e+06    2.649871e-09    3.347109e-13    1.441544e-09    1.546307e-10   -7.900000e-01    9.937808e-01    4.338326e-02
    1.837785e+01    3.535205e+02    2.990264e-03    3.379725e+06    2.587872e-09    3.080237e-13    1.355378e-09    1.461054e-10   -7.800000e-01    9.937808e-01    4.310747e-02
    1.863608e+01    3.577861e+02    2.485133e-03    2.914803e+06    2.528803e-09    2.834870e-13    1.272672e-09    1.378730e-10   -7.700000e-01    9.937808e-01    4.287235e-02
    1.893602e+01    3.628789e+02    2.059578e-03    2.510227e+06    2.472715e-09    2.609318e-13    1.193495e-09    1.299441e-10   -7.600000e-01    9.937808e-01    4.267232e-02
    1.927882e+01    3.688087e+02    1.701419e-03    2.157556e+06    2.419635e-09    2.402011e-13    1.117885e-09    1.223267e-10   -7.500000e-01    9.937808e-01    4.250255e-02
    1.966492e+01    3.755739e+02    1.400431e-03    1.849714e+06    2.369569e-09    2.211490e-13    1.045858e-09    1.150262e-10   -7.400000e-01    9.937808e-01    4.235886e-02
    2.009396e+01    3.831580e+02    1.147999e-03    1.580776e+06    2.322507e-09    2.036404e-13    9.773975e-10    1.080454e-10   -7.300000e-01    9.937808e-01    4.223761e-02
    2.056449e+01    3.915265e+02    9.368450e-04    1.345775e+06    2.278417e-09    1.875505e-13    9.124710e-10    1.013849e-10   -7.200000e-01    9.937808e-01    4.213567e-02
