# sky130 pfet_01v8 gm/ID Processed Lookup Table
# Corner: tt
# Temperature: 25C
# W = 2.0 um
# L = 2.5 um (2500 nm)
# Columns: gm/id [1/V]  gm/gds [V/V]  id/W [A/m]  ft [Hz]  Cgg/W [F/m]  Cgd/W [F/m]  Cgs/W [F/m]  Cdb/W [F/m]  vgs [V]  vth [V]  vdsat [V]
# vdsat = BSIM4 saturation voltage (|VDS|_sat, positive); use for headroom / saturation / cascode-bias calculations
#           gm/id          gm/gds            id/W              ft           Cgg/W           Cgd/W           Cgs/W           Cdb/W             vgs             vth           vdsat
    2.062957e+00    4.747186e+00    7.763295e+00    1.657729e+08    1.537599e-08    1.289964e-09    1.402537e-08    1.525135e-09   -1.800000e+00    1.018342e+00    6.733735e-01
    2.106697e+00    5.088828e+00    7.603140e+00    1.664042e+08    1.531973e-08    1.214727e-09    1.402801e-08    1.514660e-09   -1.790000e+00    1.018342e+00    6.651732e-01
    2.151537e+00    5.469991e+00    7.442960e+00    1.669631e+08    1.526491e-08    1.142377e-09    1.402937e-08    1.504454e-09   -1.780000e+00    1.018342e+00    6.569774e-01
    2.197435e+00    5.896036e+00    7.282870e+00    1.674419e+08    1.521159e-08    1.072990e-09    1.402947e-08    1.494530e-09   -1.770000e+00    1.018342e+00    6.487861e-01
    2.244363e+00    6.372989e+00    7.122915e+00    1.678328e+08    1.515982e-08    1.006622e-09    1.402830e-08    1.484897e-09   -1.760000e+00    1.018342e+00    6.405991e-01
    2.292281e+00    6.907576e+00    6.963165e+00    1.681281e+08    1.510965e-08    9.433065e-10    1.402586e-08    1.475565e-09   -1.750000e+00    1.018342e+00    6.324165e-01
    2.341140e+00    7.507237e+00    6.803710e+00    1.683205e+08    1.506108e-08    8.830520e-10    1.402219e-08    1.466538e-09   -1.740000e+00    1.018342e+00    6.242381e-01
    2.390893e+00    8.180130e+00    6.644625e+00    1.684033e+08    1.501413e-08    8.258480e-10    1.401730e-08    1.457820e-09   -1.730000e+00    1.018342e+00    6.160639e-01
    2.441489e+00    8.935114e+00    6.486010e+00    1.683706e+08    1.496878e-08    7.716645e-10    1.401119e-08    1.449414e-09   -1.720000e+00    1.018342e+00    6.078938e-01
    2.492885e+00    9.781688e+00    6.327950e+00    1.682173e+08    1.492501e-08    7.204530e-10    1.400393e-08    1.441317e-09   -1.710000e+00    1.018342e+00    5.997278e-01
    2.545041e+00    1.072991e+01    6.170545e+00    1.679400e+08    1.488279e-08    6.721500e-10    1.399550e-08    1.433527e-09   -1.700000e+00    1.018342e+00    5.915657e-01
    2.597929e+00    1.179032e+01    6.013895e+00    1.675361e+08    1.484208e-08    6.266780e-10    1.398597e-08    1.426040e-09   -1.690000e+00    1.018342e+00    5.834076e-01
    2.651530e+00    1.297379e+01    5.858105e+00    1.670050e+08    1.480281e-08    5.839470e-10    1.397533e-08    1.418848e-09   -1.680000e+00    1.018342e+00    5.752534e-01
    2.705846e+00    1.429138e+01    5.703270e+00    1.663472e+08    1.476494e-08    5.438590e-10    1.396364e-08    1.411945e-09   -1.670000e+00    1.018342e+00    5.671029e-01
    2.760889e+00    1.575421e+01    5.549495e+00    1.655646e+08    1.472838e-08    5.063080e-10    1.395091e-08    1.405321e-09   -1.660000e+00    1.018342e+00    5.589563e-01
    2.816697e+00    1.737330e+01    5.396870e+00    1.646607e+08    1.469306e-08    4.711817e-10    1.393717e-08    1.398965e-09   -1.650000e+00    1.018342e+00    5.508133e-01
    2.873312e+00    1.915947e+01    5.245500e+00    1.636396e+08    1.465891e-08    4.383657e-10    1.392244e-08    1.392866e-09   -1.640000e+00    1.018342e+00    5.426739e-01
    2.930809e+00    2.112320e+01    5.095460e+00    1.625065e+08    1.462583e-08    4.077429e-10    1.390674e-08    1.387013e-09   -1.630000e+00    1.018342e+00    5.345381e-01
    2.989259e+00    2.327457e+01    4.946849e+00    1.612672e+08    1.459373e-08    3.791955e-10    1.389010e-08    1.381391e-09   -1.620000e+00    1.018342e+00    5.264059e-01
    3.048761e+00    2.562321e+01    4.799740e+00    1.599279e+08    1.456254e-08    3.526069e-10    1.387251e-08    1.375989e-09   -1.610000e+00    1.018342e+00    5.182772e-01
    3.109418e+00    2.817827e+01    4.654208e+00    1.584949e+08    1.453215e-08    3.278619e-10    1.385398e-08    1.370792e-09   -1.600000e+00    1.018342e+00    5.101519e-01
    3.171346e+00    3.094847e+01    4.510325e+00    1.569747e+08    1.450247e-08    3.048482e-10    1.383454e-08    1.365786e-09   -1.590000e+00    1.018342e+00    5.020299e-01
    3.234668e+00    3.394215e+01    4.368153e+00    1.553734e+08    1.447342e-08    2.834572e-10    1.381417e-08    1.360958e-09   -1.580000e+00    1.018342e+00    4.939114e-01
    3.299515e+00    3.716730e+01    4.227753e+00    1.536971e+08    1.444489e-08    2.635837e-10    1.379287e-08    1.356293e-09   -1.570000e+00    1.018342e+00    4.857962e-01
    3.366026e+00    4.063171e+01    4.089180e+00    1.519515e+08    1.441680e-08    2.451275e-10    1.377064e-08    1.351778e-09   -1.560000e+00    1.018342e+00    4.776843e-01
    3.434343e+00    4.434302e+01    3.952484e+00    1.501418e+08    1.438906e-08    2.279924e-10    1.374745e-08    1.347399e-09   -1.550000e+00    1.018342e+00    4.695756e-01
    3.504620e+00    4.830891e+01    3.817711e+00    1.482732e+08    1.436156e-08    2.120878e-10    1.372329e-08    1.343141e-09   -1.540000e+00    1.018342e+00    4.614703e-01
    3.577011e+00    5.253713e+01    3.684905e+00    1.463500e+08    1.433422e-08    1.973274e-10    1.369815e-08    1.338990e-09   -1.530000e+00    1.018342e+00    4.533682e-01
    3.651682e+00    5.703572e+01    3.554104e+00    1.443765e+08    1.430694e-08    1.836302e-10    1.367198e-08    1.334934e-09   -1.520000e+00    1.018342e+00    4.452693e-01
    3.728803e+00    6.181306e+01    3.425347e+00    1.423563e+08    1.427965e-08    1.709201e-10    1.364475e-08    1.330958e-09   -1.510000e+00    1.018342e+00    4.371738e-01
    3.808556e+00    6.687810e+01    3.298666e+00    1.402930e+08    1.425223e-08    1.591256e-10    1.361643e-08    1.327049e-09   -1.500000e+00    1.018342e+00    4.290815e-01
    3.891124e+00    7.224028e+01    3.174095e+00    1.381894e+08    1.422460e-08    1.481799e-10    1.358698e-08    1.323194e-09   -1.490000e+00    1.018342e+00    4.209926e-01
    3.976711e+00    7.790995e+01    3.051660e+00    1.360485e+08    1.419668e-08    1.380208e-10    1.355633e-08    1.319378e-09   -1.480000e+00    1.018342e+00    4.129071e-01
    4.065524e+00    8.389822e+01    2.931392e+00    1.338725e+08    1.416835e-08    1.285903e-10    1.352444e-08    1.315590e-09   -1.470000e+00    1.018342e+00    4.048251e-01
    4.157784e+00    9.021709e+01    2.813316e+00    1.316637e+08    1.413952e-08    1.198345e-10    1.349125e-08    1.311815e-09   -1.460000e+00    1.018342e+00    3.967467e-01
    4.253727e+00    9.687984e+01    2.697457e+00    1.294237e+08    1.411011e-08    1.117033e-10    1.345667e-08    1.308040e-09   -1.450000e+00    1.018342e+00    3.886720e-01
    4.353606e+00    1.039008e+02    2.583839e+00    1.271545e+08    1.408001e-08    1.041502e-10    1.342065e-08    1.304251e-09   -1.440000e+00    1.018342e+00    3.806012e-01
    4.457683e+00    1.112957e+02    2.472484e+00    1.248573e+08    1.404911e-08    9.713220e-11    1.338310e-08    1.300436e-09   -1.430000e+00    1.018342e+00    3.725345e-01
    4.566249e+00    1.190816e+02    2.363415e+00    1.225335e+08    1.401732e-08    9.060955e-11    1.334393e-08    1.296579e-09   -1.420000e+00    1.018342e+00    3.644722e-01
    4.679603e+00    1.272772e+02    2.256652e+00    1.201838e+08    1.398453e-08    8.454535e-11    1.330304e-08    1.292668e-09   -1.410000e+00    1.018342e+00    3.564145e-01
    4.798076e+00    1.359027e+02    2.152217e+00    1.178093e+08    1.395062e-08    7.890555e-11    1.326034e-08    1.288687e-09   -1.400000e+00    1.018342e+00    3.483618e-01
    4.922012e+00    1.449801e+02    2.050129e+00    1.154105e+08    1.391550e-08    7.365870e-11    1.321572e-08    1.284621e-09   -1.390000e+00    1.018342e+00    3.403144e-01
    5.051792e+00    1.545334e+02    1.950408e+00    1.129880e+08    1.387902e-08    6.877570e-11    1.316905e-08    1.280456e-09   -1.380000e+00    1.018342e+00    3.322730e-01
    5.187815e+00    1.645882e+02    1.853074e+00    1.105420e+08    1.384108e-08    6.422975e-11    1.312021e-08    1.276176e-09   -1.370000e+00    1.018342e+00    3.242382e-01
    5.330506e+00    1.751724e+02    1.758147e+00    1.080727e+08    1.380155e-08    5.999610e-11    1.306907e-08    1.271764e-09   -1.360000e+00    1.018342e+00    3.162105e-01
    5.480332e+00    1.863160e+02    1.665645e+00    1.055800e+08    1.376029e-08    5.605190e-11    1.301549e-08    1.267206e-09   -1.350000e+00    1.018342e+00    3.081909e-01
    5.637780e+00    1.980510e+02    1.575588e+00    1.030638e+08    1.371718e-08    5.237595e-11    1.295931e-08    1.262481e-09   -1.340000e+00    1.018342e+00    3.001803e-01
    5.803375e+00    2.104116e+02    1.487995e+00    1.005237e+08    1.367205e-08    4.894890e-11    1.290039e-08    1.257574e-09   -1.330000e+00    1.018342e+00    2.921798e-01
    5.977681e+00    2.234345e+02    1.402886e+00    9.795928e+07    1.362479e-08    4.575270e-11    1.283854e-08    1.252464e-09   -1.320000e+00    1.018342e+00    2.841908e-01
    6.161287e+00    2.371578e+02    1.320281e+00    9.536988e+07    1.357522e-08    4.277077e-11    1.277360e-08    1.247134e-09   -1.310000e+00    1.018342e+00    2.762149e-01
    6.354818e+00    2.516220e+02    1.240200e+00    9.275471e+07    1.352319e-08    3.998781e-11    1.270537e-08    1.241562e-09   -1.300000e+00    1.018342e+00    2.682539e-01
    6.558943e+00    2.668693e+02    1.162663e+00    9.011300e+07    1.346854e-08    3.738966e-11    1.263367e-08    1.235728e-09   -1.290000e+00    1.018342e+00    2.603099e-01
    6.774347e+00    2.829429e+02    1.087690e+00    8.744373e+07    1.341109e-08    3.496327e-11    1.255830e-08    1.229612e-09   -1.280000e+00    1.018342e+00    2.523853e-01
    7.001754e+00    2.998873e+02    1.015302e+00    8.474593e+07    1.335068e-08    3.269656e-11    1.247904e-08    1.223189e-09   -1.270000e+00    1.018342e+00    2.444830e-01
    7.241896e+00    3.177461e+02    9.455190e-01    8.201840e+07    1.328714e-08    3.057839e-11    1.239570e-08    1.216437e-09   -1.260000e+00    1.018342e+00    2.366064e-01
    7.495530e+00    3.365631e+02    8.783615e-01    7.926031e+07    1.322026e-08    2.859845e-11    1.230802e-08    1.209332e-09   -1.250000e+00    1.018342e+00    2.287592e-01
    7.763396e+00    3.563790e+02    8.138500e-01    7.647059e+07    1.314988e-08    2.674720e-11    1.221580e-08    1.201850e-09   -1.240000e+00    1.018342e+00    2.209459e-01
    8.046226e+00    3.772307e+02    7.520035e-01    7.364845e+07    1.307581e-08    2.501582e-11    1.211879e-08    1.193967e-09   -1.230000e+00    1.018342e+00    2.131715e-01
    8.344719e+00    3.991494e+02    6.928400e-01    7.079348e+07    1.299785e-08    2.339616e-11    1.201676e-08    1.185654e-09   -1.220000e+00    1.018342e+00    2.054419e-01
    8.659483e+00    4.221573e+02    6.363775e-01    6.790547e+07    1.291583e-08    2.188065e-11    1.190948e-08    1.176888e-09   -1.210000e+00    1.018342e+00    1.977636e-01
    8.991042e+00    4.462652e+02    5.826310e-01    6.498491e+07    1.282955e-08    2.046232e-11    1.179671e-08    1.167641e-09   -1.200000e+00    1.018342e+00    1.901442e-01
    9.339792e+00    4.714687e+02    5.316120e-01    6.203302e+07    1.273882e-08    1.913465e-11    1.167821e-08    1.157889e-09   -1.190000e+00    1.018342e+00    1.825923e-01
    9.705892e+00    4.977425e+02    4.833302e-01    5.905176e+07    1.264348e-08    1.789164e-11    1.155376e-08    1.147603e-09   -1.180000e+00    1.018342e+00    1.751174e-01
    1.008927e+01    5.250371e+02    4.377897e-01    5.604437e+07    1.254335e-08    1.672773e-11    1.142314e-08    1.136758e-09   -1.170000e+00    1.018342e+00    1.677303e-01
    1.048953e+01    5.532724e+02    3.949892e-01    5.301532e+07    1.243828e-08    1.563772e-11    1.128612e-08    1.125329e-09   -1.160000e+00    1.018342e+00    1.604430e-01
    1.090588e+01    5.823334e+02    3.549206e-01    4.997072e+07    1.232810e-08    1.461683e-11    1.114253e-08    1.113291e-09   -1.150000e+00    1.018342e+00    1.532687e-01
    1.133702e+01    6.120615e+02    3.175678e-01    4.691842e+07    1.221271e-08    1.366058e-11    1.099217e-08    1.100622e-09   -1.140000e+00    1.018342e+00    1.462218e-01
    1.178111e+01    6.422551e+02    2.829048e-01    4.386820e+07    1.209197e-08    1.276481e-11    1.083490e-08    1.087299e-09   -1.130000e+00    1.018342e+00    1.393177e-01
    1.223570e+01    6.726592e+02    2.508949e-01    4.083185e+07    1.196580e-08    1.192568e-11    1.067058e-08    1.073304e-09   -1.120000e+00    1.018342e+00    1.325733e-01
    1.269761e+01    7.029703e+02    2.214888e-01    3.782314e+07    1.183414e-08    1.113958e-11    1.049911e-08    1.058618e-09   -1.110000e+00    1.018342e+00    1.260059e-01
    1.316298e+01    7.328345e+02    1.946241e-01    3.485771e+07    1.169693e-08    1.040318e-11    1.032044e-08    1.043228e-09   -1.100000e+00    1.018342e+00    1.196336e-01
    1.362721e+01    7.618548e+02    1.702241e-01    3.195278e+07    1.155420e-08    9.713345e-12    1.013453e-08    1.027121e-09   -1.090000e+00    1.018342e+00    1.134747e-01
    1.408509e+01    7.896015e+02    1.481976e-01    2.912658e+07    1.140596e-08    9.067180e-12    9.941400e-09    1.010294e-09   -1.080000e+00    1.018342e+00    1.075475e-01
    1.453088e+01    8.156288e+02    1.284390e-01    2.639784e+07    1.125229e-08    8.461970e-12    9.741135e-09    9.927395e-10   -1.070000e+00    1.018342e+00    1.018694e-01
    1.495853e+01    8.394961e+02    1.108292e-01    2.378498e+07    1.109329e-08    7.895180e-12    9.533840e-09    9.744615e-10   -1.060000e+00    1.018342e+00    9.645676e-02
    1.536195e+01    8.607925e+02    9.523665e-02    2.130516e+07    1.092914e-08    7.364440e-12    9.319700e-09    9.554665e-10   -1.050000e+00    1.018342e+00    9.132401e-02
    1.573532e+01    8.791650e+02    8.152020e-02    1.897348e+07    1.076004e-08    6.867535e-12    9.098950e-09    9.357670e-10   -1.040000e+00    1.018342e+00    8.648333e-02
    1.607343e+01    8.943452e+02    6.953125e-02    1.680224e+07    1.058624e-08    6.402395e-12    8.871885e-09    9.153810e-10   -1.030000e+00    1.018342e+00    8.194400e-02
    1.637211e+01    9.061716e+02    5.911675e-02    1.480015e+07    1.040805e-08    5.967080e-12    8.638865e-09    8.943325e-10   -1.020000e+00    1.018342e+00    7.771206e-02
    1.662846e+01    9.146055e+02    5.012275e-02    1.297206e+07    1.022582e-08    5.559765e-12    8.400310e-09    8.726520e-10   -1.010000e+00    1.018342e+00    7.378999e-02
    1.684113e+01    9.197380e+02    4.239755e-02    1.131880e+07    1.003995e-08    5.178750e-12    8.156705e-09    8.503765e-10   -1.000000e+00    1.018342e+00    7.017663e-02
    1.701048e+01    9.217868e+02    3.579460e-02    9.837352e+06    9.850905e-09    4.822429e-12    7.908590e-09    8.275485e-10   -9.900000e-01    1.018342e+00    6.686719e-02
    1.713856e+01    9.210770e+02    3.017515e-02    8.521272e+06    9.659160e-09    4.489301e-12    7.656570e-09    8.042175e-10   -9.800000e-01    1.018342e+00    6.385354e-02
    1.722898e+01    9.180272e+02    2.541022e-02    7.361321e+06    9.465255e-09    4.177951e-12    7.401290e-09    7.804375e-10   -9.700000e-01    1.018342e+00    6.112452e-02
    1.728667e+01    9.131105e+02    2.138198e-02    6.346159e+06    9.269755e-09    3.887050e-12    7.143450e-09    7.562685e-10   -9.600000e-01    1.018342e+00    5.866641e-02
    1.731757e+01    9.068329e+02    1.798445e-02    5.463124e+06    9.073255e-09    3.615346e-12    6.883775e-09    7.317760e-10   -9.500000e-01    1.018342e+00    5.646352e-02
    1.732827e+01    8.997017e+02    1.512372e-02    4.698926e+06    8.876370e-09    3.361662e-12    6.623035e-09    7.070275e-10   -9.400000e-01    1.018342e+00    5.449876e-02
    1.732566e+01    8.922031e+02    1.271759e-02    4.040251e+06    8.679735e-09    3.124888e-12    6.362015e-09    6.820965e-10   -9.300000e-01    1.018342e+00    5.275413e-02
    1.731660e+01    8.847838e+02    1.069496e-02    3.474257e+06    8.483985e-09    2.903978e-12    6.101505e-09    6.570565e-10   -9.200000e-01    1.018342e+00    5.121135e-02
    1.730768e+01    8.778414e+02    8.994865e-03    2.988900e+06    8.289765e-09    2.697949e-12    5.842300e-09    6.319840e-10   -9.100000e-01    1.018342e+00    4.985219e-02
    1.730505e+01    8.717184e+02    7.565495e-03    2.573175e+06    8.097690e-09    2.505870e-12    5.585190e-09    6.069550e-10   -9.000000e-01    1.018342e+00    4.865897e-02
    1.731431e+01    8.667039e+02    6.363085e-03    2.217202e+06    7.908385e-09    2.326867e-12    5.330940e-09    5.820470e-10   -8.900000e-01    1.018342e+00    4.761472e-02
    1.734050e+01    8.630374e+02    5.350850e-03    1.912277e+06    7.722425e-09    2.160113e-12    5.080290e-09    5.573335e-10   -8.800000e-01    1.018342e+00    4.670352e-02
    1.738807e+01    8.609144e+02    4.497996e-03    1.650814e+06    7.540365e-09    2.004830e-12    4.833938e-09    5.328875e-10   -8.700000e-01    1.018342e+00    4.591054e-02
    1.746096e+01    8.604957e+02    3.778811e-03    1.426281e+06    7.362720e-09    1.860284e-12    4.592537e-09    5.087785e-10   -8.600000e-01    1.018342e+00    4.522215e-02
    1.756264e+01    8.619114e+02    3.171855e-03    1.233095e+06    7.189965e-09    1.725784e-12    4.356686e-09    4.850719e-10   -8.500000e-01    1.018342e+00    4.462595e-02
    1.769615e+01    8.652672e+02    2.659267e-03    1.066517e+06    7.022520e-09    1.600676e-12    4.126931e-09    4.618280e-10   -8.400000e-01    1.018342e+00    4.411077e-02
    1.786412e+01    8.706511e+02    2.226162e-03    9.225421e+05    6.860760e-09    1.484349e-12    3.903748e-09    4.391026e-10   -8.300000e-01    1.018342e+00    4.366657e-02
    1.806881e+01    8.781306e+02    1.860129e-03    7.977989e+05    6.705005e-09    1.376223e-12    3.687552e-09    4.169456e-10   -8.200000e-01    1.018342e+00    4.328444e-02
    1.831201e+01    8.877563e+02    1.550805e-03    6.894554e+05    6.555520e-09    1.275755e-12    3.478688e-09    3.954008e-10   -8.100000e-01    1.018342e+00    4.295645e-02
    1.859503e+01    8.995570e+02    1.289524e-03    5.951379e+05    6.412520e-09    1.182433e-12    3.277437e-09    3.745059e-10   -8.000000e-01    1.018342e+00    4.267564e-02
    1.891859e+01    9.135370e+02    1.069015e-03    5.128598e+05    6.276165e-09    1.095777e-12    3.084010e-09    3.542927e-10   -7.900000e-01    1.018342e+00    4.243586e-02
    1.928265e+01    9.296698e+02    8.831730e-04    4.409614e+05    6.146560e-09    1.015334e-12    2.898557e-09    3.347865e-10   -7.800000e-01    1.018342e+00    4.223173e-02
    1.968637e+01    9.478926e+02    7.268415e-04    3.780568e+05    6.023770e-09    9.406820e-13    2.721164e-09    3.160066e-10   -7.700000e-01    1.018342e+00    4.205852e-02
    2.012790e+01    9.681006e+02    5.956585e-04    3.229903e+05    5.907810e-09    8.714225e-13    2.551862e-09    2.979666e-10   -7.600000e-01    1.018342e+00    4.191209e-02
    2.060434e+01    9.901416e+02    4.859149e-04    2.747969e+05    5.798655e-09    8.071830e-13    2.390628e-09    2.806746e-10   -7.500000e-01    1.018342e+00    4.178883e-02
    2.111166e+01    1.013816e+03    3.944440e-04    2.326696e+05    5.696240e-09    7.476140e-13    2.237393e-09    2.641338e-10   -7.400000e-01    1.018342e+00    4.168554e-02
    2.164475e+01    1.038875e+03    3.185293e-04    1.959284e+05    5.600470e-09    6.923890e-13    2.092043e-09    2.483423e-10   -7.300000e-01    1.018342e+00    4.159944e-02
    2.219741e+01    1.065027e+03    2.558310e-04    1.639939e+05    5.511220e-09    6.412025e-13    1.954427e-09    2.332945e-10   -7.200000e-01    1.018342e+00    4.152806e-02
