# sky130 pfet_01v8 gm/ID Processed Lookup Table
# Corner: tt
# Temperature: 25C
# W = 2.0 um
# L = 5.5 um (5500 nm)
# Columns: gm/id [1/V]  gm/gds [V/V]  id/W [A/m]  ft [Hz]  Cgg/W [F/m]  Cgd/W [F/m]  Cgs/W [F/m]  Cdb/W [F/m]  vgs [V]  vth [V]  vdsat [V]
# vdsat = BSIM4 saturation voltage (|VDS|_sat, positive); use for headroom / saturation / cascode-bias calculations
#           gm/id          gm/gds            id/W              ft           Cgg/W           Cgd/W           Cgs/W           Cdb/W             vgs             vth           vdsat
    2.140091e+00    5.761441e+00    3.475630e+00    3.522528e+07    3.360714e-08    3.022582e-09    3.091402e-08    3.259360e-09   -1.800000e+00    1.025286e+00    6.658469e-01
    2.185132e+00    6.238794e+00    3.401248e+00    3.533772e+07    3.347322e-08    2.846542e-09    3.091954e-08    3.235241e-09   -1.790000e+00    1.025286e+00    6.575655e-01
    2.231126e+00    6.778495e+00    3.326997e+00    3.543226e+07    3.334248e-08    2.676897e-09    3.092222e-08    3.211705e-09   -1.780000e+00    1.025286e+00    6.492902e-01
    2.278082e+00    7.390083e+00    3.252828e+00    3.550711e+07    3.321509e-08    2.513887e-09    3.092208e-08    3.188789e-09   -1.770000e+00    1.025286e+00    6.410208e-01
    2.325930e+00    8.084496e+00    3.178806e+00    3.556052e+07    3.309121e-08    2.357700e-09    3.091908e-08    3.166523e-09   -1.760000e+00    1.025286e+00    6.327574e-01
    2.374615e+00    8.874214e+00    3.104968e+00    3.559088e+07    3.297097e-08    2.208466e-09    3.091325e-08    3.144930e-09   -1.750000e+00    1.025286e+00    6.244999e-01
    2.424077e+00    9.773337e+00    3.031357e+00    3.559668e+07    3.285446e-08    2.066261e-09    3.090462e-08    3.124032e-09   -1.740000e+00    1.025286e+00    6.162484e-01
    2.474263e+00    1.079776e+01    2.958018e+00    3.557670e+07    3.274170e-08    1.931108e-09    3.089321e-08    3.103840e-09   -1.730000e+00    1.025286e+00    6.080028e-01
    2.525123e+00    1.196517e+01    2.884994e+00    3.552994e+07    3.263271e-08    1.802980e-09    3.087908e-08    3.084364e-09   -1.720000e+00    1.025286e+00    5.997631e-01
    2.576614e+00    1.329512e+01    2.812334e+00    3.545571e+07    3.252746e-08    1.681801e-09    3.086226e-08    3.065606e-09   -1.710000e+00    1.025286e+00    5.915292e-01
    2.628711e+00    1.480903e+01    2.740085e+00    3.535368e+07    3.242591e-08    1.567455e-09    3.084282e-08    3.047562e-09   -1.700000e+00    1.025286e+00    5.833012e-01
    2.681401e+00    1.653009e+01    2.668292e+00    3.522385e+07    3.232797e-08    1.459785e-09    3.082082e-08    3.030226e-09   -1.690000e+00    1.025286e+00    5.750791e-01
    2.734689e+00    1.848322e+01    2.597005e+00    3.506657e+07    3.223350e-08    1.358607e-09    3.079632e-08    3.013585e-09   -1.680000e+00    1.025286e+00    5.668627e-01
    2.788599e+00    2.069486e+01    2.526267e+00    3.488248e+07    3.214239e-08    1.263702e-09    3.076937e-08    2.997623e-09   -1.670000e+00    1.025286e+00    5.586522e-01
    2.843173e+00    2.319288e+01    2.456124e+00    3.467250e+07    3.205446e-08    1.174836e-09    3.074004e-08    2.982319e-09   -1.660000e+00    1.025286e+00    5.504475e-01
    2.898473e+00    2.600632e+01    2.386617e+00    3.443781e+07    3.196956e-08    1.091755e-09    3.070838e-08    2.967652e-09   -1.650000e+00    1.025286e+00    5.422485e-01
    2.954576e+00    2.916519e+01    2.317786e+00    3.417972e+07    3.188748e-08    1.014192e-09    3.067444e-08    2.953595e-09   -1.640000e+00    1.025286e+00    5.340553e-01
    3.011572e+00    3.270022e+01    2.249668e+00    3.389963e+07    3.180803e-08    9.418760e-10    3.063825e-08    2.940119e-09   -1.630000e+00    1.025286e+00    5.258679e-01
    3.069565e+00    3.664274e+01    2.182296e+00    3.359905e+07    3.173100e-08    8.745290e-10    3.059985e-08    2.927196e-09   -1.620000e+00    1.025286e+00    5.176862e-01
    3.128671e+00    4.102441e+01    2.115703e+00    3.327948e+07    3.165616e-08    8.118735e-10    3.055929e-08    2.914793e-09   -1.610000e+00    1.025286e+00    5.095103e-01
    3.189007e+00    4.587699e+01    2.049918e+00    3.294236e+07    3.158330e-08    7.536355e-10    3.051656e-08    2.902880e-09   -1.600000e+00    1.025286e+00    5.013402e-01
    3.250710e+00    5.123245e+01    1.984968e+00    3.258916e+07    3.151220e-08    6.995450e-10    3.047168e-08    2.891423e-09   -1.590000e+00    1.025286e+00    4.931758e-01
    3.313912e+00    5.712251e+01    1.920875e+00    3.222118e+07    3.144262e-08    6.493410e-10    3.042464e-08    2.880390e-09   -1.580000e+00    1.025286e+00    4.850172e-01
    3.378754e+00    6.357893e+01    1.857662e+00    3.183969e+07    3.137435e-08    6.027695e-10    3.037544e-08    2.869745e-09   -1.570000e+00    1.025286e+00    4.768643e-01
    3.445385e+00    7.063323e+01    1.795350e+00    3.144586e+07    3.130715e-08    5.595880e-10    3.032404e-08    2.859457e-09   -1.560000e+00    1.025286e+00    4.687173e-01
    3.513952e+00    7.831675e+01    1.733955e+00    3.104072e+07    3.124079e-08    5.195640e-10    3.027042e-08    2.849492e-09   -1.550000e+00    1.025286e+00    4.605761e-01
    3.584616e+00    8.666082e+01    1.673494e+00    3.062527e+07    3.117505e-08    4.824769e-10    3.021453e-08    2.839816e-09   -1.540000e+00    1.025286e+00    4.524407e-01
    3.657535e+00    9.569648e+01    1.613983e+00    3.020033e+07    3.110971e-08    4.481182e-10    3.015631e-08    2.830398e-09   -1.530000e+00    1.025286e+00    4.443113e-01
    3.732883e+00    1.054552e+02    1.555435e+00    2.976672e+07    3.104454e-08    4.162911e-10    3.009569e-08    2.821204e-09   -1.520000e+00    1.025286e+00    4.361878e-01
    3.810832e+00    1.159684e+02    1.497862e+00    2.932513e+07    3.097932e-08    3.868107e-10    3.003259e-08    2.812202e-09   -1.510000e+00    1.025286e+00    4.280703e-01
    3.891568e+00    1.272678e+02    1.441277e+00    2.887616e+07    3.091381e-08    3.595039e-10    2.996691e-08    2.803361e-09   -1.500000e+00    1.025286e+00    4.199590e-01
    3.975282e+00    1.393855e+02    1.385689e+00    2.842036e+07    3.084781e-08    3.342091e-10    2.989856e-08    2.794648e-09   -1.490000e+00    1.025286e+00    4.118539e-01
    4.062179e+00    1.523545e+02    1.331110e+00    2.795820e+07    3.078107e-08    3.107754e-10    2.982740e-08    2.786034e-09   -1.480000e+00    1.025286e+00    4.037551e-01
    4.152474e+00    1.662086e+02    1.277548e+00    2.749012e+07    3.071338e-08    2.890626e-10    2.975329e-08    2.777486e-09   -1.470000e+00    1.025286e+00    3.956628e-01
    4.246397e+00    1.809824e+02    1.225013e+00    2.701648e+07    3.064450e-08    2.689404e-10    2.967611e-08    2.768973e-09   -1.460000e+00    1.025286e+00    3.875771e-01
    4.344187e+00    1.967120e+02    1.173513e+00    2.653758e+07    3.057421e-08    2.502882e-10    2.959567e-08    2.760464e-09   -1.450000e+00    1.025286e+00    3.794983e-01
    4.446103e+00    2.134345e+02    1.123057e+00    2.605369e+07    3.050226e-08    2.329942e-10    2.951182e-08    2.751928e-09   -1.440000e+00    1.025286e+00    3.714266e-01
    4.552423e+00    2.311892e+02    1.073651e+00    2.556505e+07    3.042841e-08    2.169547e-10    2.942435e-08    2.743335e-09   -1.430000e+00    1.025286e+00    3.633622e-01
    4.663440e+00    2.500168e+02    1.025305e+00    2.507183e+07    3.035242e-08    2.020744e-10    2.933306e-08    2.734651e-09   -1.420000e+00    1.025286e+00    3.553056e-01
    4.779468e+00    2.699600e+02    9.780245e-01    2.457419e+07    3.027403e-08    1.882648e-10    2.923773e-08    2.725845e-09   -1.410000e+00    1.025286e+00    3.472570e-01
    4.900846e+00    2.910636e+02    9.318180e-01    2.407222e+07    3.019299e-08    1.754448e-10    2.913812e-08    2.716885e-09   -1.400000e+00    1.025286e+00    3.392169e-01
    5.027930e+00    3.133747e+02    8.866930e-01    2.356602e+07    3.010901e-08    1.635390e-10    2.903398e-08    2.707736e-09   -1.390000e+00    1.025286e+00    3.311860e-01
    5.161111e+00    3.369427e+02    8.426560e-01    2.305559e+07    3.002184e-08    1.524783e-10    2.892503e-08    2.698364e-09   -1.380000e+00    1.025286e+00    3.231647e-01
    5.300800e+00    3.618192e+02    7.997145e-01    2.254097e+07    2.993118e-08    1.421989e-10    2.881098e-08    2.688735e-09   -1.370000e+00    1.025286e+00    3.151538e-01
    5.447438e+00    3.880579e+02    7.578760e-01    2.202212e+07    2.983674e-08    1.326420e-10    2.869152e-08    2.678813e-09   -1.360000e+00    1.025286e+00    3.071542e-01
    5.601499e+00    4.157149e+02    7.171475e-01    2.149899e+07    2.973822e-08    1.237535e-10    2.856634e-08    2.668559e-09   -1.350000e+00    1.025286e+00    2.991668e-01
    5.763487e+00    4.448479e+02    6.775365e-01    2.097147e+07    2.963529e-08    1.154833e-10    2.843509e-08    2.657937e-09   -1.340000e+00    1.025286e+00    2.911929e-01
    5.933936e+00    4.755162e+02    6.390505e-01    2.043947e+07    2.952764e-08    1.077857e-10    2.829739e-08    2.646906e-09   -1.330000e+00    1.025286e+00    2.832337e-01
    6.113415e+00    5.077796e+02    6.016975e-01    1.990282e+07    2.941492e-08    1.006184e-10    2.815289e-08    2.635425e-09   -1.320000e+00    1.025286e+00    2.752907e-01
    6.302530e+00    5.416984e+02    5.654845e-01    1.936136e+07    2.929678e-08    9.394225e-11    2.800118e-08    2.623453e-09   -1.310000e+00    1.025286e+00    2.673659e-01
    6.501903e+00    5.773312e+02    5.304205e-01    1.881489e+07    2.917287e-08    8.772135e-11    2.784183e-08    2.610945e-09   -1.300000e+00    1.025286e+00    2.594612e-01
    6.712207e+00    6.147339e+02    4.965124e-01    1.826319e+07    2.904284e-08    8.192265e-11    2.767442e-08    2.597855e-09   -1.290000e+00    1.025286e+00    2.515790e-01
    6.934120e+00    6.539594e+02    4.637691e-01    1.770603e+07    2.890627e-08    7.651555e-11    2.749850e-08    2.584138e-09   -1.280000e+00    1.025286e+00    2.437223e-01
    7.168350e+00    6.950520e+02    4.321985e-01    1.714318e+07    2.876280e-08    7.147195e-11    2.731361e-08    2.569745e-09   -1.270000e+00    1.025286e+00    2.358941e-01
    7.415612e+00    7.380472e+02    4.018088e-01    1.657440e+07    2.861203e-08    6.676585e-11    2.711926e-08    2.554626e-09   -1.260000e+00    1.025286e+00    2.280982e-01
    7.676621e+00    7.829670e+02    3.726080e-01    1.599948e+07    2.845355e-08    6.237335e-11    2.691498e-08    2.538730e-09   -1.250000e+00    1.025286e+00    2.203389e-01
    7.952077e+00    8.298153e+02    3.446039e-01    1.541823e+07    2.828698e-08    5.827230e-11    2.670025e-08    2.522006e-09   -1.240000e+00    1.025286e+00    2.126209e-01
    8.242644e+00    8.785736e+02    3.178041e-01    1.483051e+07    2.811188e-08    5.444230e-11    2.647458e-08    2.504401e-09   -1.230000e+00    1.025286e+00    2.049499e-01
    8.548920e+00    9.291938e+02    2.922152e-01    1.423628e+07    2.792787e-08    5.086445e-11    2.623747e-08    2.485859e-09   -1.220000e+00    1.025286e+00    1.973322e-01
    8.871413e+00    9.815916e+02    2.678434e-01    1.363557e+07    2.773453e-08    4.752133e-11    2.598841e-08    2.466330e-09   -1.210000e+00    1.025286e+00    1.897751e-01
    9.210499e+00    1.035639e+03    2.446937e-01    1.302856e+07    2.753148e-08    4.439682e-11    2.572689e-08    2.445755e-09   -1.200000e+00    1.025286e+00    1.822865e-01
    9.566368e+00    1.091154e+03    2.227693e-01    1.241562e+07    2.731832e-08    4.147602e-11    2.545244e-08    2.424083e-09   -1.190000e+00    1.025286e+00    1.748757e-01
    9.938985e+00    1.147894e+03    2.020719e-01    1.179733e+07    2.709471e-08    3.874511e-11    2.516457e-08    2.401259e-09   -1.180000e+00    1.025286e+00    1.675529e-01
    1.032801e+01    1.205547e+03    1.826008e-01    1.117451e+07    2.686029e-08    3.619131e-11    2.486286e-08    2.377231e-09   -1.170000e+00    1.025286e+00    1.603293e-01
    1.073272e+01    1.263717e+03    1.643522e-01    1.054831e+07    2.661475e-08    3.380278e-11    2.454687e-08    2.351949e-09   -1.160000e+00    1.025286e+00    1.532175e-01
    1.115198e+01    1.321929e+03    1.473189e-01    9.920217e+06    2.635780e-08    3.156853e-11    2.421624e-08    2.325365e-09   -1.150000e+00    1.025286e+00    1.462311e-01
    1.158411e+01    1.379615e+03    1.314897e-01    9.292096e+06    2.608921e-08    2.947837e-11    2.387063e-08    2.297435e-09   -1.140000e+00    1.025286e+00    1.393847e-01
    1.202686e+01    1.436122e+03    1.168489e-01    8.666216e+06    2.580879e-08    2.752287e-11    2.350976e-08    2.268117e-09   -1.130000e+00    1.025286e+00    1.326942e-01
    1.247733e+01    1.490714e+03    1.033753e-01    8.045243e+06    2.551638e-08    2.569322e-11    2.313344e-08    2.237378e-09   -1.120000e+00    1.025286e+00    1.261759e-01
    1.293194e+01    1.542594e+03    9.104200e-02    7.432238e+06    2.521193e-08    2.398128e-11    2.274153e-08    2.205185e-09   -1.110000e+00    1.025286e+00    1.198471e-01
    1.338645e+01    1.590920e+03    7.981625e-02    6.830576e+06    2.489542e-08    2.237945e-11    2.233397e-08    2.171517e-09   -1.100000e+00    1.025286e+00    1.137253e-01
    1.383596e+01    1.634840e+03    6.965880e-02    6.243881e+06    2.456693e-08    2.088067e-11    2.191081e-08    2.136356e-09   -1.090000e+00    1.025286e+00    1.078276e-01
    1.427510e+01    1.673537e+03    6.052415e-02    5.675910e+06    2.422661e-08    1.947836e-11    2.147220e-08    2.099698e-09   -1.080000e+00    1.025286e+00    1.021709e-01
    1.469811e+01    1.706272e+03    5.236095e-02    5.130400e+06    2.387470e-08    1.816641e-11    2.101839e-08    2.061543e-09   -1.070000e+00    1.025286e+00    9.677097e-02
    1.509913e+01    1.732435e+03    4.511225e-02    4.610892e+06    2.351156e-08    1.693910e-11    2.054976e-08    2.021905e-09   -1.060000e+00    1.025286e+00    9.164192e-02
    1.547245e+01    1.751598e+03    3.871668e-02    4.120584e+06    2.313762e-08    1.579108e-11    2.006683e-08    1.980807e-09   -1.050000e+00    1.025286e+00    8.679581e-02
    1.581288e+01    1.763548e+03    3.310930e-02    3.662135e+06    2.275343e-08    1.471739e-11    1.957020e-08    1.938285e-09   -1.040000e+00    1.025286e+00    8.224209e-02
    1.611605e+01    1.768319e+03    2.822300e-02    3.237554e+06    2.235964e-08    1.371338e-11    1.906065e-08    1.894388e-09   -1.030000e+00    1.025286e+00    7.798721e-02
    1.637876e+01    1.766201e+03    2.398979e-02    2.848093e+06    2.195703e-08    1.277468e-11    1.853907e-08    1.849175e-09   -1.020000e+00    1.025286e+00    7.403433e-02
    1.659920e+01    1.757725e+03    2.034231e-02    2.494204e+06    2.154643e-08    1.189723e-11    1.800650e-08    1.802720e-09   -1.010000e+00    1.025286e+00    7.038318e-02
    1.677711e+01    1.743637e+03    1.721509e-02    2.175560e+06    2.112884e-08    1.107722e-11    1.746409e-08    1.755108e-09   -1.000000e+00    1.025286e+00    6.703005e-02
    1.691388e+01    1.724848e+03    1.454574e-02    1.891114e+06    2.070529e-08    1.031106e-11    1.691311e-08    1.706437e-09   -9.900000e-01    1.025286e+00    6.396796e-02
    1.701241e+01    1.702377e+03    1.227588e-02    1.639216e+06    2.027694e-08    9.595415e-12    1.635495e-08    1.656819e-09   -9.800000e-01    1.025286e+00    6.118697e-02
    1.707694e+01    1.677293e+03    1.035183e-02    1.417739e+06    1.984500e-08    8.927135e-12    1.579109e-08    1.606374e-09   -9.700000e-01    1.025286e+00    5.867459e-02
    1.711281e+01    1.650653e+03    8.725010e-03    1.224234e+06    1.941077e-08    8.303270e-12    1.522311e-08    1.555233e-09   -9.600000e-01    1.025286e+00    5.641626e-02
    1.712609e+01    1.623460e+03    7.352075e-03    1.056072e+06    1.897557e-08    7.721035e-12    1.465264e-08    1.503535e-09   -9.500000e-01    1.025286e+00    5.439591e-02
    1.712324e+01    1.596617e+03    6.194895e-03    9.105685e+05    1.854076e-08    7.177835e-12    1.408135e-08    1.451430e-09   -9.400000e-01    1.025286e+00    5.259647e-02
    1.711085e+01    1.570918e+03    5.220275e-03    7.850926e+05    1.810774e-08    6.671210e-12    1.351097e-08    1.399066e-09   -9.300000e-01    1.025286e+00    5.100039e-02
    1.709533e+01    1.547022e+03    4.399622e-03    6.771467e+05    1.767789e-08    6.198860e-12    1.294321e-08    1.346601e-09   -9.200000e-01    1.025286e+00    4.959005e-02
    1.708273e+01    1.525472e+03    3.708521e-03    5.844189e+05    1.725257e-08    5.758615e-12    1.237976e-08    1.294193e-09   -9.100000e-01    1.025286e+00    4.834818e-02
    1.707856e+01    1.506687e+03    3.126256e-03    5.048139e+05    1.683312e-08    5.348430e-12    1.182229e-08    1.241997e-09   -9.000000e-01    1.025286e+00    4.725814e-02
    1.708789e+01    1.490993e+03    2.635352e-03    4.364679e+05    1.642083e-08    4.966386e-12    1.127240e-08    1.190171e-09   -8.900000e-01    1.025286e+00    4.630417e-02
    1.711517e+01    1.478629e+03    2.221135e-03    3.777441e+05    1.601690e-08    4.610674e-12    1.073162e-08    1.138863e-09   -8.800000e-01    1.025286e+00    4.547152e-02
    1.716433e+01    1.469771e+03    1.871314e-03    3.272228e+05    1.562248e-08    4.279592e-12    1.020139e-08    1.088218e-09   -8.700000e-01    1.025286e+00    4.474655e-02
    1.723889e+01    1.464546e+03    1.575617e-03    2.836840e+05    1.523860e-08    3.971539e-12    9.683015e-09    1.038373e-09   -8.600000e-01    1.025286e+00    4.411679e-02
    1.734190e+01    1.463046e+03    1.325471e-03    2.460856e+05    1.486623e-08    3.685008e-12    9.177700e-09    9.894570e-10   -8.500000e-01    1.025286e+00    4.357092e-02
    1.747607e+01    1.465338e+03    1.113719e-03    2.135435e+05    1.450618e-08    3.418584e-12    8.686515e-09    9.415865e-10   -8.400000e-01    1.025286e+00    4.309878e-02
    1.764376e+01    1.471468e+03    9.343860e-04    1.853101e+05    1.415919e-08    3.170932e-12    8.210375e-09    8.948680e-10   -8.300000e-01    1.025286e+00    4.269125e-02
    1.784694e+01    1.481468e+03    7.824785e-04    1.607550e+05    1.382585e-08    2.940801e-12    7.750065e-09    8.493950e-10   -8.200000e-01    1.025286e+00    4.234023e-02
    1.808720e+01    1.495349e+03    6.538170e-04    1.393477e+05    1.350666e-08    2.727014e-12    7.306220e-09    8.052495e-10   -8.100000e-01    1.025286e+00    4.203856e-02
    1.836569e+01    1.513098e+03    5.448960e-04    1.206430e+05    1.320198e-08    2.528467e-12    6.879330e-09    7.625010e-10   -8.000000e-01    1.025286e+00    4.177991e-02
    1.868292e+01    1.534671e+03    4.527702e-04    1.042669e+05    1.291208e-08    2.344125e-12    6.469750e-09    7.212045e-10   -7.900000e-01    1.025286e+00    4.155872e-02
    1.903878e+01    1.559983e+03    3.749558e-04    8.990651e+04    1.263712e-08    2.173014e-12    6.077695e-09    6.814050e-10   -7.800000e-01    1.025286e+00    4.137011e-02
    1.943231e+01    1.588897e+03    3.093531e-04    7.729980e+04    1.237715e-08    2.014225e-12    5.703260e-09    6.431335e-10   -7.700000e-01    1.025286e+00    4.120980e-02
    1.986159e+01    1.621213e+03    2.541800e-04    6.622747e+04    1.213214e-08    1.866904e-12    5.346415e-09    6.064110e-10   -7.600000e-01    1.025286e+00    4.107403e-02
    2.032369e+01    1.656662e+03    2.079177e-04    5.650608e+04    1.190197e-08    1.730252e-12    5.007040e-09    5.712460e-10   -7.500000e-01    1.025286e+00    4.095951e-02
    2.081455e+01    1.694905e+03    1.692663e-04    4.798165e+04    1.168645e-08    1.603522e-12    4.684904e-09    5.376395e-10   -7.400000e-01    1.025286e+00    4.086335e-02
    2.132902e+01    1.735524e+03    1.371085e-04    4.052402e+04    1.148531e-08    1.486017e-12    4.379699e-09    5.055810e-10   -7.300000e-01    1.025286e+00    4.078301e-02
    2.186084e+01    1.778041e+03    1.104800e-04    3.402197e+04    1.129825e-08    1.377083e-12    4.091043e-09    4.750537e-10   -7.200000e-01    1.025286e+00    4.071624e-02
