# sky130 pfet_01v8 gm/ID Processed Lookup Table
# Corner: tt
# Temperature: 75C
# W = 2.0 um
# L = 3.42 um (3420 nm)
# Columns: gm/id [1/V]  gm/gds [V/V]  id/W [A/m]  ft [Hz]  Cgg/W [F/m]  Cgd/W [F/m]  Cgs/W [F/m]  Vov [V]
#         gm/id          gm/gds            id/W              ft           Cgg/W           Cgd/W           Cgs/W             Vov
    1.783509e+00    3.163258e+00    5.659575e+00    7.509414e+07    2.139308e-08    2.561777e-09    1.906969e-08   -2.746148e+00
    1.801025e+00    3.247415e+00    5.609085e+00    7.531160e+07    2.134864e-08    2.499135e-09    1.915597e-08   -2.741148e+00
    1.818801e+00    3.335509e+00    5.558555e+00    7.552628e+07    2.130439e-08    2.437079e-09    1.916167e-08   -2.736148e+00
    1.836841e+00    3.427789e+00    5.507985e+00    7.573798e+07    2.126036e-08    2.375643e-09    1.916699e-08   -2.731148e+00
    1.855146e+00    3.524521e+00    5.457380e+00    7.594640e+07    2.121657e-08    2.314864e-09    1.917192e-08   -2.726148e+00
    1.873717e+00    3.625988e+00    5.406745e+00    7.615121e+07    2.117304e-08    2.254773e-09    1.917645e-08   -2.721148e+00
    1.892558e+00    3.732494e+00    5.356075e+00    7.635205e+07    2.112980e-08    2.195407e-09    1.918056e-08   -2.716148e+00
    1.911671e+00    3.844371e+00    5.305380e+00    7.654868e+07    2.108687e-08    2.136796e-09    1.918427e-08   -2.711148e+00
    1.931056e+00    3.961966e+00    5.254655e+00    7.674070e+07    2.104425e-08    2.078971e-09    1.918754e-08   -2.706148e+00
    1.950715e+00    4.085662e+00    5.203910e+00    7.692777e+07    2.100200e-08    2.021961e-09    1.919039e-08   -2.701148e+00
    1.970648e+00    4.215860e+00    5.153145e+00    7.710956e+07    2.096010e-08    1.965794e-09    1.919281e-08   -2.696148e+00
    1.990857e+00    4.352997e+00    5.102360e+00    7.728564e+07    2.091860e-08    1.910497e-09    1.919478e-08   -2.691148e+00
    2.011338e+00    4.497535e+00    5.051565e+00    7.745563e+07    2.087749e-08    1.856094e-09    1.919631e-08   -2.686148e+00
    2.032096e+00    4.649978e+00    5.000755e+00    7.761916e+07    2.083680e-08    1.802609e-09    1.919740e-08   -2.681148e+00
    2.053124e+00    4.810855e+00    4.949945e+00    7.777578e+07    2.079655e-08    1.750062e-09    1.919804e-08   -2.676148e+00
    2.074423e+00    4.980741e+00    4.899131e+00    7.792508e+07    2.075674e-08    1.698473e-09    1.919821e-08   -2.671148e+00
    2.095993e+00    5.160249e+00    4.848318e+00    7.806667e+07    2.071740e-08    1.647860e-09    1.919794e-08   -2.666148e+00
    2.117828e+00    5.350029e+00    4.797512e+00    7.820006e+07    2.067854e-08    1.598238e-09    1.919721e-08   -2.661148e+00
    2.139927e+00    5.550780e+00    4.746716e+00    7.832481e+07    2.064016e-08    1.549620e-09    1.919601e-08   -2.656148e+00
    2.162286e+00    5.763249e+00    4.695937e+00    7.844055e+07    2.060227e-08    1.502019e-09    1.919436e-08   -2.651148e+00
    2.184901e+00    5.988224e+00    4.645179e+00    7.854675e+07    2.056487e-08    1.455444e-09    1.919225e-08   -2.646148e+00
    2.207767e+00    6.226547e+00    4.594446e+00    7.864297e+07    2.052800e-08    1.409903e-09    1.918969e-08   -2.641148e+00
    2.230880e+00    6.479115e+00    4.543745e+00    7.872883e+07    2.049163e-08    1.365401e-09    1.918666e-08   -2.636148e+00
    2.254234e+00    6.746875e+00    4.493082e+00    7.880386e+07    2.045578e-08    1.321943e-09    1.918317e-08   -2.631148e+00
    2.277823e+00    7.030829e+00    4.442463e+00    7.886758e+07    2.042045e-08    1.279530e-09    1.917924e-08   -2.626148e+00
    2.301643e+00    7.332043e+00    4.391893e+00    7.891968e+07    2.038565e-08    1.238163e-09    1.917485e-08   -2.621148e+00
    2.325686e+00    7.651624e+00    4.341380e+00    7.895968e+07    2.035137e-08    1.197840e-09    1.917001e-08   -2.616148e+00
    2.349946e+00    7.990749e+00    4.290929e+00    7.898719e+07    2.031761e-08    1.158558e-09    1.916472e-08   -2.611148e+00
    2.374416e+00    8.350650e+00    4.240548e+00    7.900188e+07    2.028437e-08    1.120312e-09    1.915899e-08   -2.606148e+00
    2.399093e+00    8.732618e+00    4.190243e+00    7.900344e+07    2.025165e-08    1.083095e-09    1.915282e-08   -2.601148e+00
    2.423968e+00    9.138001e+00    4.140022e+00    7.899155e+07    2.021944e-08    1.046900e-09    1.914621e-08   -2.596148e+00
    2.449035e+00    9.568197e+00    4.089893e+00    7.896589e+07    2.018773e-08    1.011716e-09    1.913916e-08   -2.591148e+00
    2.474292e+00    1.002467e+01    4.039861e+00    7.892629e+07    2.015653e-08    9.775335e-10    1.913168e-08   -2.586148e+00
    2.499729e+00    1.050890e+01    3.989937e+00    7.887247e+07    2.012582e-08    9.443405e-10    1.912378e-08   -2.581148e+00
    2.525345e+00    1.102247e+01    3.940126e+00    7.880435e+07    2.009560e-08    9.121235e-10    1.911545e-08   -2.576148e+00
    2.551137e+00    1.156696e+01    3.890438e+00    7.872179e+07    2.006585e-08    8.808690e-10    1.910670e-08   -2.571148e+00
    2.577099e+00    1.214404e+01    3.840879e+00    7.862464e+07    2.003656e-08    8.505610e-10    1.909754e-08   -2.566148e+00
    2.603231e+00    1.275535e+01    3.791457e+00    7.851294e+07    2.000773e-08    8.211840e-10    1.908796e-08   -2.561148e+00
    2.629532e+00    1.340263e+01    3.742181e+00    7.838666e+07    1.997935e-08    7.927215e-10    1.907797e-08   -2.556148e+00
    2.656001e+00    1.408762e+01    3.693058e+00    7.824585e+07    1.995139e-08    7.651555e-10    1.906757e-08   -2.551148e+00
    2.682638e+00    1.481207e+01    3.644096e+00    7.809058e+07    1.992386e-08    7.384680e-10    1.905678e-08   -2.546148e+00
    2.709447e+00    1.557777e+01    3.595302e+00    7.792101e+07    1.989673e-08    7.126410e-10    1.904559e-08   -2.541148e+00
    2.736430e+00    1.638652e+01    3.546686e+00    7.773732e+07    1.986999e-08    6.876550e-10    1.903400e-08   -2.536148e+00
    2.763590e+00    1.724011e+01    3.498253e+00    7.753967e+07    1.984362e-08    6.634910e-10    1.902202e-08   -2.531148e+00
    2.790932e+00    1.814035e+01    3.450011e+00    7.732827e+07    1.981762e-08    6.401295e-10    1.900965e-08   -2.526148e+00
    2.818463e+00    1.908904e+01    3.401968e+00    7.710344e+07    1.979197e-08    6.175500e-10    1.899689e-08   -2.521148e+00
    2.846191e+00    2.008799e+01    3.354130e+00    7.686544e+07    1.976665e-08    5.957335e-10    1.898374e-08   -2.516148e+00
    2.874122e+00    2.113896e+01    3.306505e+00    7.661457e+07    1.974164e-08    5.746590e-10    1.897021e-08   -2.511148e+00
    2.902267e+00    2.224372e+01    3.259099e+00    7.635118e+07    1.971693e-08    5.543065e-10    1.895630e-08   -2.506148e+00
    2.930634e+00    2.340403e+01    3.211919e+00    7.607558e+07    1.969251e-08    5.346565e-10    1.894200e-08   -2.501148e+00
    2.959235e+00    2.462162e+01    3.164972e+00    7.578816e+07    1.966836e-08    5.156890e-10    1.892733e-08   -2.496148e+00
    2.988081e+00    2.589817e+01    3.118262e+00    7.548927e+07    1.964445e-08    4.973838e-10    1.891227e-08   -2.491148e+00
    3.017183e+00    2.723535e+01    3.071797e+00    7.517925e+07    1.962079e-08    4.797215e-10    1.889684e-08   -2.486148e+00
    3.046555e+00    2.863483e+01    3.025583e+00    7.485852e+07    1.959734e-08    4.626824e-10    1.888103e-08   -2.481148e+00
    3.076210e+00    3.009818e+01    2.979623e+00    7.452739e+07    1.957409e-08    4.462474e-10    1.886483e-08   -2.476148e+00
    3.106164e+00    3.162705e+01    2.933925e+00    7.418635e+07    1.955102e-08    4.303977e-10    1.884826e-08   -2.471148e+00
    3.136427e+00    3.322293e+01    2.888492e+00    7.383565e+07    1.952812e-08    4.151144e-10    1.883130e-08   -2.466148e+00
    3.167018e+00    3.488738e+01    2.843331e+00    7.347570e+07    1.950538e-08    4.003795e-10    1.881397e-08   -2.461148e+00
    3.197951e+00    3.662188e+01    2.798445e+00    7.310686e+07    1.948277e-08    3.861748e-10    1.879624e-08   -2.456148e+00
    3.229240e+00    3.842789e+01    2.753840e+00    7.272945e+07    1.946027e-08    3.724827e-10    1.877813e-08   -2.451148e+00
    3.260906e+00    4.030690e+01    2.709519e+00    7.234387e+07    1.943788e-08    3.592862e-10    1.875962e-08   -2.446148e+00
    3.292960e+00    4.226028e+01    2.665486e+00    7.195039e+07    1.941556e-08    3.465682e-10    1.874073e-08   -2.441148e+00
    3.325423e+00    4.428946e+01    2.621746e+00    7.154934e+07    1.939332e-08    3.343124e-10    1.872143e-08   -2.436148e+00
    3.358310e+00    4.639580e+01    2.578303e+00    7.114102e+07    1.937112e-08    3.225028e-10    1.870173e-08   -2.431148e+00
    3.391638e+00    4.858070e+01    2.535160e+00    7.072572e+07    1.934896e-08    3.111238e-10    1.868164e-08   -2.426148e+00
    3.425426e+00    5.084550e+01    2.492321e+00    7.030373e+07    1.932682e-08    3.001602e-10    1.866112e-08   -2.421148e+00
    3.459693e+00    5.319158e+01    2.449788e+00    6.987533e+07    1.930467e-08    2.895973e-10    1.864019e-08   -2.416148e+00
    3.494454e+00    5.562023e+01    2.407567e+00    6.944071e+07    1.928251e-08    2.794207e-10    1.861884e-08   -2.411148e+00
    3.529733e+00    5.813290e+01    2.365658e+00    6.900022e+07    1.926032e-08    2.696165e-10    1.859707e-08   -2.406148e+00
    3.565544e+00    6.073089e+01    2.324066e+00    6.855402e+07    1.923807e-08    2.601713e-10    1.857487e-08   -2.401148e+00
    3.601909e+00    6.341554e+01    2.282794e+00    6.810233e+07    1.921576e-08    2.510719e-10    1.855221e-08   -2.396148e+00
    3.638848e+00    6.618830e+01    2.241843e+00    6.764537e+07    1.919337e-08    2.423056e-10    1.852912e-08   -2.391148e+00
    3.676380e+00    6.905052e+01    2.201217e+00    6.718332e+07    1.917087e-08    2.338603e-10    1.850557e-08   -2.386148e+00
    3.714527e+00    7.200365e+01    2.160919e+00    6.671638e+07    1.914827e-08    2.257241e-10    1.848156e-08   -2.381148e+00
    3.753309e+00    7.504908e+01    2.120950e+00    6.624473e+07    1.912553e-08    2.178855e-10    1.845707e-08   -2.376148e+00
    3.792747e+00    7.818838e+01    2.081314e+00    6.576851e+07    1.910264e-08    2.103335e-10    1.843210e-08   -2.371148e+00
    3.832864e+00    8.142302e+01    2.042012e+00    6.528792e+07    1.907959e-08    2.030574e-10    1.840665e-08   -2.366148e+00
    3.873681e+00    8.475446e+01    2.003047e+00    6.480301e+07    1.905636e-08    1.960467e-10    1.838070e-08   -2.361148e+00
    3.915222e+00    8.818442e+01    1.964421e+00    6.431399e+07    1.903293e-08    1.892917e-10    1.835423e-08   -2.356148e+00
    3.957511e+00    9.171446e+01    1.926136e+00    6.382098e+07    1.900928e-08    1.827825e-10    1.832725e-08   -2.351148e+00
    4.000570e+00    9.534626e+01    1.888194e+00    6.332405e+07    1.898542e-08    1.765102e-10    1.829973e-08   -2.346148e+00
    4.044428e+00    9.908168e+01    1.850598e+00    6.282338e+07    1.896130e-08    1.704656e-10    1.827167e-08   -2.341148e+00
    4.089103e+00    1.029223e+02    1.813349e+00    6.231899e+07    1.893691e-08    1.646401e-10    1.824307e-08   -2.336148e+00
    4.134625e+00    1.068701e+02    1.776449e+00    6.181102e+07    1.891225e-08    1.590256e-10    1.821388e-08   -2.331148e+00
    4.181019e+00    1.109270e+02    1.739900e+00    6.129953e+07    1.888728e-08    1.536139e-10    1.818413e-08   -2.326148e+00
    4.228314e+00    1.150949e+02    1.703704e+00    6.078461e+07    1.886201e-08    1.483975e-10    1.815378e-08   -2.321148e+00
    4.276535e+00    1.193759e+02    1.667863e+00    6.026632e+07    1.883640e-08    1.433689e-10    1.812283e-08   -2.316148e+00
    4.325714e+00    1.237722e+02    1.632378e+00    5.974473e+07    1.881045e-08    1.385210e-10    1.809125e-08   -2.311148e+00
    4.375876e+00    1.282858e+02    1.597252e+00    5.921986e+07    1.878413e-08    1.338469e-10    1.805904e-08   -2.306148e+00
    4.427057e+00    1.329192e+02    1.562485e+00    5.869184e+07    1.875743e-08    1.293402e-10    1.802618e-08   -2.301148e+00
    4.479281e+00    1.376745e+02    1.528080e+00    5.816063e+07    1.873033e-08    1.249943e-10    1.799266e-08   -2.296148e+00
    4.532587e+00    1.425544e+02    1.494039e+00    5.762637e+07    1.870281e-08    1.208034e-10    1.795846e-08   -2.291148e+00
    4.587003e+00    1.475611e+02    1.460362e+00    5.708899e+07    1.867486e-08    1.167615e-10    1.792356e-08   -2.286148e+00
    4.642564e+00    1.526975e+02    1.427052e+00    5.654856e+07    1.864645e-08    1.128629e-10    1.788795e-08   -2.281148e+00
    4.699301e+00    1.579660e+02    1.394111e+00    5.600507e+07    1.861758e-08    1.091023e-10    1.785160e-08   -2.276148e+00
    4.757253e+00    1.633695e+02    1.361539e+00    5.545857e+07    1.858822e-08    1.054744e-10    1.781452e-08   -2.271148e+00
    4.816456e+00    1.689110e+02    1.329340e+00    5.490909e+07    1.855835e-08    1.019744e-10    1.777666e-08   -2.266148e+00
    4.876947e+00    1.745931e+02    1.297513e+00    5.435658e+07    1.852796e-08    9.859720e-11    1.773803e-08   -2.261148e+00
    4.938763e+00    1.804192e+02    1.266061e+00    5.380110e+07    1.849702e-08    9.533840e-11    1.769858e-08   -2.256148e+00
    5.001945e+00    1.863921e+02    1.234986e+00    5.324260e+07    1.846553e-08    9.219355e-11    1.765832e-08   -2.251148e+00
    5.066529e+00    1.925150e+02    1.204288e+00    5.268106e+07    1.843345e-08    8.915830e-11    1.761722e-08   -2.246148e+00
    5.132565e+00    1.987917e+02    1.173971e+00    5.211657e+07    1.840077e-08    8.622860e-11    1.757526e-08   -2.241148e+00
    5.200086e+00    2.052249e+02    1.144034e+00    5.154898e+07    1.836748e-08    8.340055e-11    1.753242e-08   -2.236148e+00
    5.269139e+00    2.118182e+02    1.114480e+00    5.097835e+07    1.833354e-08    8.067035e-11    1.748867e-08   -2.231148e+00
    5.339769e+00    2.185755e+02    1.085311e+00    5.040465e+07    1.829895e-08    7.803430e-11    1.744401e-08   -2.226148e+00
    5.412017e+00    2.254998e+02    1.056528e+00    4.982781e+07    1.826368e-08    7.548900e-11    1.739839e-08   -2.221148e+00
    5.485935e+00    2.325953e+02    1.028132e+00    4.924787e+07    1.822772e-08    7.303105e-11    1.735182e-08   -2.216148e+00
    5.561567e+00    2.398655e+02    1.000126e+00    4.866474e+07    1.819103e-08    7.065725e-11    1.730425e-08   -2.211148e+00
    5.638960e+00    2.473141e+02    9.725100e-01    4.807840e+07    1.815362e-08    6.836450e-11    1.725568e-08   -2.206148e+00
    5.718166e+00    2.549450e+02    9.452865e-01    4.748881e+07    1.811544e-08    6.614985e-11    1.720606e-08   -2.201148e+00
    5.799229e+00    2.627619e+02    9.184575e-01    4.689592e+07    1.807650e-08    6.401040e-11    1.715540e-08   -2.196148e+00
    5.882205e+00    2.707688e+02    8.920235e-01    4.629971e+07    1.803675e-08    6.194340e-11    1.710366e-08   -2.191148e+00
    5.967139e+00    2.789694e+02    8.659870e-01    4.570010e+07    1.799619e-08    5.994625e-11    1.705081e-08   -2.186148e+00
    6.054088e+00    2.873680e+02    8.403495e-01    4.509709e+07    1.795479e-08    5.801640e-11    1.699684e-08   -2.181148e+00
    6.143091e+00    2.959676e+02    8.151125e-01    4.449054e+07    1.791253e-08    5.615145e-11    1.694171e-08   -2.176148e+00
    6.234220e+00    3.047729e+02    7.902770e-01    4.388053e+07    1.786939e-08    5.434895e-11    1.688540e-08   -2.171148e+00
    6.327515e+00    3.137871e+02    7.658450e-01    4.326692e+07    1.782536e-08    5.260680e-11    1.682791e-08   -2.166148e+00
    6.423025e+00    3.230138e+02    7.418185e-01    4.264969e+07    1.778040e-08    5.092270e-11    1.676918e-08   -2.161148e+00
    6.520808e+00    3.324568e+02    7.181985e-01    4.202880e+07    1.773451e-08    4.929465e-11    1.670920e-08   -2.156148e+00
    6.620913e+00    3.421194e+02    6.949865e-01    4.140420e+07    1.768765e-08    4.772063e-11    1.664795e-08   -2.151148e+00
    6.723388e+00    3.520045e+02    6.721845e-01    4.077584e+07    1.763981e-08    4.619872e-11    1.658540e-08   -2.146148e+00
    6.828287e+00    3.621154e+02    6.497935e-01    4.014371e+07    1.759097e-08    4.472706e-11    1.652152e-08   -2.141148e+00
    6.935650e+00    3.724547e+02    6.278155e-01    3.950776e+07    1.754111e-08    4.330389e-11    1.645630e-08   -2.136148e+00
    7.045536e+00    3.830249e+02    6.062510e-01    3.886796e+07    1.749021e-08    4.192749e-11    1.638971e-08   -2.131148e+00
    7.157979e+00    3.938278e+02    5.851020e-01    3.822430e+07    1.743824e-08    4.059622e-11    1.632172e-08   -2.126148e+00
    7.273022e+00    4.048652e+02    5.643700e-01    3.757678e+07    1.738519e-08    3.930851e-11    1.625230e-08   -2.121148e+00
    7.390705e+00    4.161386e+02    5.440560e-01    3.692537e+07    1.733105e-08    3.806281e-11    1.618144e-08   -2.116148e+00
    7.511067e+00    4.276484e+02    5.241610e-01    3.627011e+07    1.727578e-08    3.685769e-11    1.610911e-08   -2.111148e+00
    7.634141e+00    4.393948e+02    5.046860e-01    3.561100e+07    1.721938e-08    3.569172e-11    1.603527e-08   -2.106148e+00
    7.759945e+00    4.513772e+02    4.856327e-01    3.494809e+07    1.716182e-08    3.456355e-11    1.595993e-08   -2.101148e+00
    7.888507e+00    4.635945e+02    4.670015e-01    3.428144e+07    1.710308e-08    3.347188e-11    1.588304e-08   -2.096148e+00
    8.019841e+00    4.760443e+02    4.487935e-01    3.361108e+07    1.704315e-08    3.241545e-11    1.580459e-08   -2.091148e+00
    8.153958e+00    4.887243e+02    4.310092e-01    3.293715e+07    1.698201e-08    3.139307e-11    1.572456e-08   -2.086148e+00
    8.290860e+00    5.016303e+02    4.136493e-01    3.225972e+07    1.691965e-08    3.040356e-11    1.564291e-08   -2.081148e+00
    8.430539e+00    5.147574e+02    3.967143e-01    3.157893e+07    1.685605e-08    2.944580e-11    1.555965e-08   -2.076148e+00
    8.572984e+00    5.280993e+02    3.802042e-01    3.089496e+07    1.679119e-08    2.851873e-11    1.547473e-08   -2.071148e+00
    8.718166e+00    5.416495e+02    3.641194e-01    3.020795e+07    1.672507e-08    2.762128e-11    1.538815e-08   -2.066148e+00
    8.866054e+00    5.553983e+02    3.484596e-01    2.951815e+07    1.665765e-08    2.675249e-11    1.529989e-08   -2.061148e+00
    9.016596e+00    5.693367e+02    3.332247e-01    2.882578e+07    1.658894e-08    2.591137e-11    1.520993e-08   -2.056148e+00
    9.169735e+00    5.834524e+02    3.184139e-01    2.813111e+07    1.651894e-08    2.509699e-11    1.511826e-08   -2.051148e+00
    9.325398e+00    5.977328e+02    3.040266e-01    2.743446e+07    1.644761e-08    2.430848e-11    1.502485e-08   -2.046148e+00
    9.483495e+00    6.121629e+02    2.900618e-01    2.673617e+07    1.637495e-08    2.354497e-11    1.492969e-08   -2.041148e+00
    9.643922e+00    6.267262e+02    2.765182e-01    2.603662e+07    1.630095e-08    2.280561e-11    1.483278e-08   -2.036148e+00
    9.806560e+00    6.414043e+02    2.633940e-01    2.533621e+07    1.622562e-08    2.208963e-11    1.473411e-08   -2.031148e+00
    9.971273e+00    6.561773e+02    2.506875e-01    2.463540e+07    1.614894e-08    2.139624e-11    1.463365e-08   -2.026148e+00
    1.013790e+01    6.710226e+02    2.383965e-01    2.393470e+07    1.607090e-08    2.072470e-11    1.453141e-08   -2.021148e+00
    1.030627e+01    6.859167e+02    2.265183e-01    2.323462e+07    1.599150e-08    2.007430e-11    1.442738e-08   -2.016148e+00
    1.047619e+01    7.008332e+02    2.150499e-01    2.253575e+07    1.591076e-08    1.944434e-11    1.432156e-08   -2.011148e+00
    1.064745e+01    7.157447e+02    2.039880e-01    2.183870e+07    1.582865e-08    1.883416e-11    1.421394e-08   -2.006148e+00
    1.081981e+01    7.306211e+02    1.933291e-01    2.114410e+07    1.574519e-08    1.824311e-11    1.410452e-08   -2.001148e+00
    1.099302e+01    7.454312e+02    1.830688e-01    2.045265e+07    1.566036e-08    1.767059e-11    1.399331e-08   -1.996148e+00
    1.116681e+01    7.601417e+02    1.732027e-01    1.976505e+07    1.557420e-08    1.711598e-11    1.388031e-08   -1.991148e+00
