# sky130 pfet_01v8 gm/ID Processed Lookup Table
# Corner: tt
# Temperature: 75C
# W = 2.0 um
# L = 4.32 um (4320 nm)
# Columns: gm/id [1/V]  gm/gds [V/V]  id/W [A/m]  ft [Hz]  Cgg/W [F/m]  Cgd/W [F/m]  Cgs/W [F/m]  Vov [V]
#         gm/id          gm/gds            id/W              ft           Cgg/W           Cgd/W           Cgs/W             Vov
    1.804225e+00    3.291805e+00    4.495984e+00    4.785884e+07    2.697574e-08    3.280299e-09    2.409618e-08   -2.748905e+00
    1.821981e+00    3.382367e+00    4.455411e+00    4.799538e+07    2.691860e-08    3.200260e-09    2.410644e-08   -2.743905e+00
    1.840001e+00    3.477302e+00    4.414808e+00    4.813008e+07    2.686169e-08    3.120943e-09    2.421077e-08   -2.738905e+00
    1.858285e+00    3.576895e+00    4.374179e+00    4.826278e+07    2.680505e-08    3.042395e-09    2.421733e-08   -2.733905e+00
    1.876836e+00    3.681448e+00    4.333524e+00    4.839328e+07    2.674870e-08    2.964661e-09    2.422340e-08   -2.728905e+00
    1.895656e+00    3.791288e+00    4.292846e+00    4.852136e+07    2.669267e-08    2.887787e-09    2.422897e-08   -2.723905e+00
    1.914747e+00    3.906769e+00    4.252147e+00    4.864683e+07    2.663700e-08    2.811816e-09    2.423402e-08   -2.718905e+00
    1.934108e+00    4.028265e+00    4.211429e+00    4.876944e+07    2.658170e-08    2.736790e-09    2.423854e-08   -2.713905e+00
    1.953743e+00    4.156186e+00    4.170694e+00    4.888899e+07    2.652680e-08    2.662749e-09    2.424253e-08   -2.708905e+00
    1.973651e+00    4.290970e+00    4.129945e+00    4.900522e+07    2.647235e-08    2.589733e-09    2.424597e-08   -2.703905e+00
    1.993832e+00    4.433082e+00    4.089184e+00    4.911789e+07    2.641835e-08    2.517778e-09    2.424888e-08   -2.698905e+00
    2.014286e+00    4.583035e+00    4.048414e+00    4.922677e+07    2.636483e-08    2.446920e-09    2.425122e-08   -2.693905e+00
    2.035013e+00    4.741367e+00    4.007638e+00    4.933157e+07    2.631181e-08    2.377191e-09    2.425300e-08   -2.688905e+00
    2.056011e+00    4.908664e+00    3.966860e+00    4.943204e+07    2.625934e-08    2.308621e-09    2.425421e-08   -2.683905e+00
    2.077278e+00    5.085554e+00    3.926081e+00    4.952791e+07    2.620740e-08    2.241241e-09    2.425485e-08   -2.678905e+00
    2.098812e+00    5.272705e+00    3.885305e+00    4.961887e+07    2.615604e-08    2.175075e-09    2.425492e-08   -2.673905e+00
    2.120609e+00    5.470838e+00    3.844537e+00    4.970463e+07    2.610526e-08    2.110147e-09    2.425441e-08   -2.668905e+00
    2.142669e+00    5.680732e+00    3.803779e+00    4.978496e+07    2.605508e-08    2.046480e-09    2.425332e-08   -2.663905e+00
    2.164986e+00    5.903210e+00    3.763035e+00    4.985952e+07    2.600552e-08    1.984091e-09    2.425164e-08   -2.658905e+00
    2.187556e+00    6.139156e+00    3.722311e+00    4.992804e+07    2.595659e-08    1.922996e-09    2.424939e-08   -2.653905e+00
    2.210374e+00    6.389516e+00    3.681610e+00    4.999020e+07    2.590830e-08    1.863210e-09    2.424655e-08   -2.648905e+00
    2.233436e+00    6.655295e+00    3.640935e+00    5.004574e+07    2.586065e-08    1.804743e-09    2.424312e-08   -2.643905e+00
    2.256734e+00    6.937568e+00    3.600293e+00    5.009435e+07    2.581367e-08    1.747605e-09    2.423912e-08   -2.638905e+00
    2.280265e+00    7.237474e+00    3.559688e+00    5.013576e+07    2.576734e-08    1.691800e-09    2.423453e-08   -2.633905e+00
    2.304021e+00    7.556228e+00    3.519125e+00    5.016970e+07    2.572170e-08    1.637333e-09    2.422936e-08   -2.628905e+00
    2.327996e+00    7.895115e+00    3.478608e+00    5.019591e+07    2.567672e-08    1.584204e-09    2.422363e-08   -2.623905e+00
    2.352183e+00    8.255487e+00    3.438144e+00    5.021414e+07    2.563241e-08    1.532413e-09    2.421731e-08   -2.618905e+00
    2.376576e+00    8.638782e+00    3.397738e+00    5.022414e+07    2.558876e-08    1.481957e-09    2.421043e-08   -2.613905e+00
    2.401169e+00    9.046510e+00    3.357397e+00    5.022570e+07    2.554580e-08    1.432830e-09    2.420297e-08   -2.608905e+00
    2.425953e+00    9.480248e+00    3.317124e+00    5.021858e+07    2.550350e-08    1.385023e-09    2.419496e-08   -2.603905e+00
    2.450925e+00    9.941667e+00    3.276927e+00    5.020267e+07    2.546185e-08    1.338529e-09    2.418639e-08   -2.598905e+00
    2.476078e+00    1.043251e+01    3.236811e+00    5.017778e+07    2.542086e-08    1.293335e-09    2.417726e-08   -2.593905e+00
    2.501404e+00    1.095457e+01    3.196783e+00    5.014372e+07    2.538052e-08    1.249427e-09    2.416758e-08   -2.588905e+00
    2.526903e+00    1.150977e+01    3.156849e+00    5.010049e+07    2.534081e-08    1.206791e-09    2.415735e-08   -2.583905e+00
    2.552569e+00    1.210003e+01    3.117015e+00    5.004795e+07    2.530173e-08    1.165411e-09    2.414659e-08   -2.578905e+00
    2.578398e+00    1.272739e+01    3.077287e+00    4.998602e+07    2.526327e-08    1.125269e-09    2.413528e-08   -2.573905e+00
    2.604388e+00    1.339392e+01    3.037672e+00    4.991470e+07    2.522541e-08    1.086346e-09    2.412345e-08   -2.568905e+00
    2.630538e+00    1.410180e+01    2.998176e+00    4.983402e+07    2.518813e-08    1.048620e-09    2.411109e-08   -2.563905e+00
    2.656848e+00    1.485320e+01    2.958805e+00    4.974399e+07    2.515143e-08    1.012073e-09    2.409821e-08   -2.558905e+00
    2.683317e+00    1.565039e+01    2.919567e+00    4.964467e+07    2.511528e-08    9.766805e-10    2.408481e-08   -2.553905e+00
    2.709948e+00    1.649566e+01    2.880466e+00    4.953612e+07    2.507968e-08    9.424195e-10    2.407090e-08   -2.548905e+00
    2.736744e+00    1.739134e+01    2.841510e+00    4.941848e+07    2.504460e-08    9.092675e-10    2.405647e-08   -2.543905e+00
    2.763707e+00    1.833979e+01    2.802703e+00    4.929184e+07    2.501003e-08    8.771990e-10    2.404154e-08   -2.538905e+00
    2.790845e+00    1.934343e+01    2.764053e+00    4.915643e+07    2.497595e-08    8.461900e-10    2.402610e-08   -2.533905e+00
    2.818161e+00    2.040464e+01    2.725565e+00    4.901234e+07    2.494233e-08    8.162150e-10    2.401017e-08   -2.528905e+00
    2.845664e+00    2.152586e+01    2.687245e+00    4.885981e+07    2.490917e-08    7.872480e-10    2.399374e-08   -2.523905e+00
    2.873364e+00    2.270955e+01    2.649097e+00    4.869906e+07    2.487643e-08    7.592645e-10    2.397682e-08   -2.518905e+00
    2.901265e+00    2.395811e+01    2.611128e+00    4.853024e+07    2.484410e-08    7.322375e-10    2.395940e-08   -2.513905e+00
    2.929380e+00    2.527398e+01    2.573343e+00    4.835361e+07    2.481217e-08    7.061415e-10    2.394150e-08   -2.508905e+00
    2.957721e+00    2.665961e+01    2.535747e+00    4.816942e+07    2.478060e-08    6.809505e-10    2.392310e-08   -2.503905e+00
    2.986298e+00    2.811741e+01    2.498344e+00    4.797792e+07    2.474937e-08    6.566390e-10    2.390422e-08   -2.498905e+00
    3.015122e+00    2.964976e+01    2.461140e+00    4.777930e+07    2.471848e-08    6.331815e-10    2.388485e-08   -2.493905e+00
    3.044208e+00    3.125904e+01    2.424139e+00    4.757385e+07    2.468788e-08    6.105525e-10    2.386500e-08   -2.488905e+00
    3.073570e+00    3.294763e+01    2.387346e+00    4.736182e+07    2.465756e-08    5.887265e-10    2.384466e-08   -2.483905e+00
    3.103221e+00    3.471783e+01    2.350764e+00    4.714344e+07    2.462752e-08    5.676785e-10    2.382383e-08   -2.478905e+00
    3.133173e+00    3.657193e+01    2.314398e+00    4.691893e+07    2.459770e-08    5.473850e-10    2.380251e-08   -2.473905e+00
    3.163446e+00    3.851225e+01    2.278251e+00    4.668857e+07    2.456811e-08    5.278210e-10    2.378071e-08   -2.468905e+00
    3.194054e+00    4.054100e+01    2.242328e+00    4.645257e+07    2.453871e-08    5.089635e-10    2.375841e-08   -2.463905e+00
    3.225011e+00    4.266040e+01    2.206631e+00    4.621118e+07    2.450948e-08    4.907886e-10    2.373561e-08   -2.458905e+00
    3.256335e+00    4.487262e+01    2.171165e+00    4.596461e+07    2.448039e-08    4.732739e-10    2.371232e-08   -2.453905e+00
    3.288043e+00    4.717984e+01    2.135932e+00    4.571307e+07    2.445145e-08    4.563969e-10    2.368852e-08   -2.448905e+00
    3.320150e+00    4.958418e+01    2.100936e+00    4.545676e+07    2.442260e-08    4.401360e-10    2.366422e-08   -2.443905e+00
    3.352675e+00    5.208773e+01    2.066179e+00    4.519590e+07    2.439385e-08    4.244699e-10    2.363941e-08   -2.438905e+00
    3.385634e+00    5.469256e+01    2.031664e+00    4.493065e+07    2.436516e-08    4.093779e-10    2.361408e-08   -2.433905e+00
    3.419044e+00    5.740073e+01    1.997395e+00    4.466120e+07    2.433651e-08    3.948398e-10    2.358823e-08   -2.428905e+00
    3.452928e+00    6.021437e+01    1.963373e+00    4.438777e+07    2.430788e-08    3.808359e-10    2.356185e-08   -2.423905e+00
    3.487298e+00    6.313535e+01    1.929602e+00    4.411045e+07    2.427925e-08    3.673472e-10    2.353495e-08   -2.418905e+00
    3.522177e+00    6.616584e+01    1.896083e+00    4.382947e+07    2.425060e-08    3.543551e-10    2.350749e-08   -2.413905e+00
    3.557584e+00    6.930779e+01    1.862819e+00    4.354494e+07    2.422190e-08    3.418416e-10    2.347949e-08   -2.408905e+00
    3.593535e+00    7.256319e+01    1.829813e+00    4.325699e+07    2.419314e-08    3.297894e-10    2.345093e-08   -2.403905e+00
    3.630052e+00    7.593408e+01    1.797065e+00    4.296579e+07    2.416429e-08    3.181814e-10    2.342181e-08   -2.398905e+00
    3.667156e+00    7.942251e+01    1.764579e+00    4.267143e+07    2.413534e-08    3.070014e-10    2.339210e-08   -2.393905e+00
    3.704866e+00    8.303044e+01    1.732356e+00    4.237406e+07    2.410624e-08    2.962334e-10    2.336182e-08   -2.388905e+00
    3.743200e+00    8.675993e+01    1.700398e+00    4.207375e+07    2.407701e-08    2.858621e-10    2.333093e-08   -2.383905e+00
    3.782186e+00    9.061315e+01    1.668707e+00    4.177065e+07    2.404761e-08    2.758728e-10    2.329944e-08   -2.378905e+00
    3.821839e+00    9.459206e+01    1.637285e+00    4.146484e+07    2.401800e-08    2.662512e-10    2.326733e-08   -2.373905e+00
    3.862186e+00    9.869888e+01    1.606133e+00    4.115641e+07    2.398818e-08    2.569834e-10    2.323459e-08   -2.368905e+00
    3.903245e+00    1.029356e+02    1.575254e+00    4.084542e+07    2.395814e-08    2.480561e-10    2.320120e-08   -2.363905e+00
    3.945042e+00    1.073046e+02    1.544647e+00    4.053199e+07    2.392783e-08    2.394564e-10    2.316717e-08   -2.358905e+00
    3.987603e+00    1.118081e+02    1.514317e+00    4.021620e+07    2.389725e-08    2.311720e-10    2.313246e-08   -2.353905e+00
    4.030947e+00    1.164483e+02    1.484263e+00    3.989807e+07    2.386636e-08    2.231908e-10    2.309706e-08   -2.348905e+00
    4.075099e+00    1.212275e+02    1.454488e+00    3.957767e+07    2.383516e-08    2.155015e-10    2.306097e-08   -2.343905e+00
    4.120086e+00    1.261482e+02    1.424992e+00    3.925510e+07    2.380361e-08    2.080927e-10    2.302416e-08   -2.338905e+00
    4.165938e+00    1.312128e+02    1.395777e+00    3.893039e+07    2.377170e-08    2.009541e-10    2.298663e-08   -2.333905e+00
    4.212676e+00    1.364239e+02    1.366845e+00    3.860359e+07    2.373940e-08    1.940751e-10    2.294834e-08   -2.328905e+00
    4.260329e+00    1.417840e+02    1.338197e+00    3.827475e+07    2.370670e-08    1.874459e-10    2.290930e-08   -2.323905e+00
    4.308928e+00    1.472958e+02    1.309834e+00    3.794390e+07    2.367357e-08    1.810569e-10    2.286947e-08   -2.318905e+00
    4.358496e+00    1.529619e+02    1.281758e+00    3.761106e+07    2.363998e-08    1.748991e-10    2.282884e-08   -2.313905e+00
    4.409064e+00    1.587851e+02    1.253969e+00    3.727626e+07    2.360593e-08    1.689635e-10    2.278741e-08   -2.308905e+00
    4.460669e+00    1.647686e+02    1.226469e+00    3.693958e+07    2.357138e-08    1.632419e-10    2.274513e-08   -2.303905e+00
    4.513336e+00    1.709150e+02    1.199261e+00    3.660100e+07    2.353631e-08    1.577258e-10    2.270200e-08   -2.298905e+00
    4.567096e+00    1.772276e+02    1.172343e+00    3.626054e+07    2.350071e-08    1.524076e-10    2.265799e-08   -2.293905e+00
    4.621984e+00    1.837093e+02    1.145719e+00    3.591821e+07    2.346453e-08    1.472797e-10    2.261309e-08   -2.288905e+00
    4.678034e+00    1.903635e+02    1.119389e+00    3.557406e+07    2.342778e-08    1.423349e-10    2.256727e-08   -2.283905e+00
    4.735282e+00    1.971936e+02    1.093354e+00    3.522807e+07    2.339042e-08    1.375661e-10    2.252051e-08   -2.278905e+00
    4.793760e+00    2.042027e+02    1.067616e+00    3.488024e+07    2.335243e-08    1.329668e-10    2.247278e-08   -2.273905e+00
    4.853511e+00    2.113947e+02    1.042176e+00    3.453061e+07    2.331379e-08    1.285305e-10    2.242408e-08   -2.268905e+00
    4.914566e+00    2.187729e+02    1.017034e+00    3.417914e+07    2.327446e-08    1.242511e-10    2.237436e-08   -2.263905e+00
    4.976965e+00    2.263410e+02    9.921930e-01    3.382585e+07    2.323444e-08    1.201225e-10    2.232362e-08   -2.258905e+00
    5.040749e+00    2.341028e+02    9.676535e-01    3.347073e+07    2.319369e-08    1.161392e-10    2.227182e-08   -2.253905e+00
    5.105957e+00    2.420622e+02    9.434165e-01    3.311378e+07    2.315219e-08    1.122955e-10    2.221893e-08   -2.248905e+00
    5.172632e+00    2.502231e+02    9.194835e-01    3.275497e+07    2.310992e-08    1.085864e-10    2.216494e-08   -2.243905e+00
    5.240815e+00    2.585894e+02    8.958555e-01    3.239430e+07    2.306685e-08    1.050067e-10    2.210983e-08   -2.238905e+00
    5.310552e+00    2.671654e+02    8.725335e-01    3.203176e+07    2.302296e-08    1.015517e-10    2.205355e-08   -2.233905e+00
    5.381882e+00    2.759549e+02    8.495195e-01    3.166731e+07    2.297823e-08    9.821650e-11    2.199609e-08   -2.228905e+00
    5.454854e+00    2.849623e+02    8.268140e-01    3.130095e+07    2.293262e-08    9.499685e-11    2.193741e-08   -2.223905e+00
    5.529514e+00    2.941919e+02    8.044185e-01    3.093265e+07    2.288611e-08    9.188835e-11    2.187750e-08   -2.218905e+00
    5.605909e+00    3.036478e+02    7.823340e-01    3.056240e+07    2.283868e-08    8.888695e-11    2.181631e-08   -2.213905e+00
    5.684086e+00    3.133344e+02    7.605620e-01    3.019015e+07    2.279030e-08    8.598860e-11    2.175383e-08   -2.208905e+00
    5.764094e+00    3.232560e+02    7.391035e-01    2.981588e+07    2.274096e-08    8.318955e-11    2.169003e-08   -2.203905e+00
    5.845984e+00    3.334169e+02    7.179595e-01    2.943957e+07    2.269062e-08    8.048610e-11    2.162487e-08   -2.198905e+00
    5.929801e+00    3.438212e+02    6.971320e-01    2.906119e+07    2.263925e-08    7.787475e-11    2.155833e-08   -2.193905e+00
    6.015600e+00    3.544735e+02    6.766215e-01    2.868070e+07    2.258682e-08    7.535220e-11    2.149037e-08   -2.188905e+00
    6.103431e+00    3.653778e+02    6.564295e-01    2.829807e+07    2.253333e-08    7.291510e-11    2.142097e-08   -2.183905e+00
    6.193345e+00    3.765380e+02    6.365570e-01    2.791328e+07    2.247874e-08    7.056040e-11    2.135010e-08   -2.178905e+00
    6.285391e+00    3.879582e+02    6.170055e-01    2.752628e+07    2.242301e-08    6.828510e-11    2.127772e-08   -2.173905e+00
    6.379619e+00    3.996421e+02    5.977765e-01    2.713707e+07    2.236613e-08    6.608635e-11    2.120380e-08   -2.168905e+00
    6.476085e+00    4.115933e+02    5.788705e-01    2.674558e+07    2.230808e-08    6.396130e-11    2.112832e-08   -2.163905e+00
    6.574842e+00    4.238155e+02    5.602885e-01    2.635181e+07    2.224881e-08    6.190735e-11    2.105124e-08   -2.158905e+00
    6.675931e+00    4.363113e+02    5.420325e-01    2.595571e+07    2.218832e-08    5.992200e-11    2.097253e-08   -2.153905e+00
    6.779402e+00    4.490838e+02    5.241035e-01    2.555727e+07    2.212657e-08    5.800270e-11    2.089217e-08   -2.148905e+00
    6.885311e+00    4.621354e+02    5.065020e-01    2.515647e+07    2.206354e-08    5.614710e-11    2.081010e-08   -2.143905e+00
    6.993701e+00    4.754679e+02    4.892294e-01    2.475328e+07    2.199920e-08    5.435300e-11    2.072633e-08   -2.138905e+00
    7.104612e+00    4.890831e+02    4.722870e-01    2.434770e+07    2.193353e-08    5.261820e-11    2.064079e-08   -2.133905e+00
    7.218089e+00    5.029819e+02    4.556756e-01    2.393971e+07    2.186650e-08    5.094060e-11    2.055348e-08   -2.128905e+00
    7.334171e+00    5.171641e+02    4.393962e-01    2.352930e+07    2.179809e-08    4.931814e-11    2.046434e-08   -2.123905e+00
    7.452895e+00    5.316302e+02    4.234498e-01    2.311648e+07    2.172828e-08    4.774893e-11    2.037337e-08   -2.118905e+00
    7.574291e+00    5.463783e+02    4.078373e-01    2.270126e+07    2.165704e-08    4.623109e-11    2.028052e-08   -2.113905e+00
    7.698390e+00    5.614072e+02    3.925593e-01    2.228366e+07    2.158434e-08    4.476283e-11    2.018577e-08   -2.108905e+00
    7.825214e+00    5.767132e+02    3.776167e-01    2.186371e+07    2.151017e-08    4.334243e-11    2.008908e-08   -2.103905e+00
    7.954781e+00    5.922925e+02    3.630102e-01    2.144143e+07    2.143450e-08    4.196822e-11    1.999044e-08   -2.098905e+00
    8.087101e+00    6.081402e+02    3.487403e-01    2.101689e+07    2.135732e-08    4.063861e-11    1.988981e-08   -2.093905e+00
    8.222181e+00    6.242498e+02    3.348074e-01    2.059014e+07    2.127859e-08    3.935206e-11    1.978717e-08   -2.088905e+00
    8.360017e+00    6.406136e+02    3.212119e-01    2.016126e+07    2.119831e-08    3.810709e-11    1.968248e-08   -2.083905e+00
    8.500594e+00    6.572223e+02    3.079540e-01    1.973033e+07    2.111645e-08    3.690228e-11    1.957573e-08   -2.078905e+00
    8.643897e+00    6.740653e+02    2.950339e-01    1.929748e+07    2.103300e-08    3.573625e-11    1.946689e-08   -2.073905e+00
    8.789890e+00    6.911300e+02    2.824515e-01    1.886282e+07    2.094792e-08    3.460769e-11    1.935594e-08   -2.068905e+00
    8.938533e+00    7.084025e+02    2.702066e-01    1.842648e+07    2.086123e-08    3.351534e-11    1.924286e-08   -2.063905e+00
    9.089768e+00    7.258664e+02    2.582989e-01    1.798864e+07    2.077289e-08    3.245795e-11    1.912763e-08   -2.058905e+00
    9.243528e+00    7.435037e+02    2.467277e-01    1.754949e+07    2.068290e-08    3.143435e-11    1.901021e-08   -2.053905e+00
    9.399734e+00    7.612943e+02    2.354923e-01    1.710921e+07    2.059124e-08    3.044342e-11    1.889062e-08   -2.048905e+00
    9.558285e+00    7.792159e+02    2.245917e-01    1.666804e+07    2.049790e-08    2.948405e-11    1.876882e-08   -2.043905e+00
    9.719072e+00    7.972440e+02    2.140247e-01    1.622623e+07    2.040287e-08    2.855519e-11    1.864480e-08   -2.038905e+00
    9.881962e+00    8.153517e+02    2.037900e-01    1.578406e+07    2.030614e-08    2.765583e-11    1.851855e-08   -2.033905e+00
    1.004681e+01    8.335102e+02    1.938856e-01    1.534183e+07    2.020770e-08    2.678499e-11    1.839006e-08   -2.028905e+00
    1.021345e+01    8.516876e+02    1.843099e-01    1.489984e+07    2.010757e-08    2.594172e-11    1.825933e-08   -2.023905e+00
    1.038170e+01    8.698508e+02    1.750605e-01    1.445847e+07    2.000573e-08    2.512511e-11    1.812633e-08   -2.018905e+00
    1.055135e+01    8.879635e+02    1.661348e-01    1.401807e+07    1.990217e-08    2.433430e-11    1.799108e-08   -2.013905e+00
    1.072218e+01    9.059874e+02    1.575300e-01    1.357904e+07    1.979691e-08    2.356843e-11    1.785357e-08   -2.008905e+00
    1.089395e+01    9.238830e+02    1.492430e-01    1.314181e+07    1.968994e-08    2.282668e-11    1.771381e-08   -2.003905e+00
    1.106639e+01    9.416076e+02    1.412703e-01    1.270680e+07    1.958128e-08    2.210828e-11    1.757178e-08   -1.998905e+00
    1.123923e+01    9.591179e+02    1.336082e-01    1.227449e+07    1.947092e-08    2.141246e-11    1.742751e-08   -1.993905e+00
