# sky130 pfet_01v8 gm/ID Processed Lookup Table
# Corner: tt
# Temperature: 75C
# W = 2.0 um
# L = 3.6 um (3600 nm)
# Columns: gm/id [1/V]  gm/gds [V/V]  id/W [A/m]  ft [Hz]  Cgg/W [F/m]  Cgd/W [F/m]  Cgs/W [F/m]  Vov [V]
#         gm/id          gm/gds            id/W              ft           Cgg/W           Cgd/W           Cgs/W             Vov
    1.788880e+00    3.198127e+00    5.385175e+00    6.811701e+07    2.250845e-08    2.699033e-09    2.008001e-08   -2.746783e+00
    1.806449e+00    3.283927e+00    5.336985e+00    6.831284e+07    2.246154e-08    2.633005e-09    2.017055e-08   -2.741783e+00
    1.824276e+00    3.373770e+00    5.288765e+00    6.850613e+07    2.241483e-08    2.567592e-09    2.017652e-08   -2.736783e+00
    1.842367e+00    3.467915e+00    5.240505e+00    6.869665e+07    2.236835e-08    2.502833e-09    2.018208e-08   -2.731783e+00
    1.860723e+00    3.566634e+00    5.192215e+00    6.888411e+07    2.232212e-08    2.438764e-09    2.018723e-08   -2.726783e+00
    1.879346e+00    3.670222e+00    5.143895e+00    6.906824e+07    2.227618e-08    2.375422e-09    2.019195e-08   -2.721783e+00
    1.898240e+00    3.778994e+00    5.095545e+00    6.924877e+07    2.223053e-08    2.312840e-09    2.019624e-08   -2.716783e+00
    1.917403e+00    3.893292e+00    5.047170e+00    6.942536e+07    2.218520e-08    2.251056e-09    2.020010e-08   -2.711783e+00
    1.936840e+00    4.013479e+00    4.998770e+00    6.959777e+07    2.214022e-08    2.190099e-09    2.020350e-08   -2.706783e+00
    1.956549e+00    4.139944e+00    4.950352e+00    6.976556e+07    2.209560e-08    2.130001e-09    2.020646e-08   -2.701783e+00
    1.976532e+00    4.273108e+00    4.901915e+00    6.992848e+07    2.205137e-08    2.070791e-09    2.020896e-08   -2.696783e+00
    1.996788e+00    4.413422e+00    4.853465e+00    7.008616e+07    2.200755e-08    2.012498e-09    2.021099e-08   -2.691783e+00
    2.017317e+00    4.561365e+00    4.805003e+00    7.023823e+07    2.196415e-08    1.955148e-09    2.021257e-08   -2.686783e+00
    2.038120e+00    4.717458e+00    4.756534e+00    7.038436e+07    2.192120e-08    1.898765e-09    2.021366e-08   -2.681783e+00
    2.059192e+00    4.882249e+00    4.708060e+00    7.052410e+07    2.187869e-08    1.843371e-09    2.021428e-08   -2.676783e+00
    2.080534e+00    5.056339e+00    4.659587e+00    7.065713e+07    2.183667e-08    1.788988e-09    2.021443e-08   -2.671783e+00
    2.102145e+00    5.240358e+00    4.611117e+00    7.078307e+07    2.179513e-08    1.735632e-09    2.021408e-08   -2.666783e+00
    2.124018e+00    5.434983e+00    4.562656e+00    7.090146e+07    2.175409e-08    1.683323e-09    2.021326e-08   -2.661783e+00
    2.146154e+00    5.640942e+00    4.514207e+00    7.101195e+07    2.171356e-08    1.632072e-09    2.021197e-08   -2.656783e+00
    2.168546e+00    5.859001e+00    4.465776e+00    7.111407e+07    2.167356e-08    1.581894e-09    2.021017e-08   -2.651783e+00
    2.191192e+00    6.089989e+00    4.417367e+00    7.120749e+07    2.163408e-08    1.532797e-09    2.020791e-08   -2.646783e+00
    2.214087e+00    6.334774e+00    4.368985e+00    7.129176e+07    2.159513e-08    1.484791e-09    2.020515e-08   -2.641783e+00
    2.237224e+00    6.594288e+00    4.320635e+00    7.136646e+07    2.155674e-08    1.437882e-09    2.020192e-08   -2.636783e+00
    2.260601e+00    6.869518e+00    4.272324e+00    7.143129e+07    2.151889e-08    1.392072e-09    2.019820e-08   -2.631783e+00
    2.284209e+00    7.161501e+00    4.224057e+00    7.148576e+07    2.148158e-08    1.347367e-09    2.019400e-08   -2.626783e+00
    2.308044e+00    7.471342e+00    4.175839e+00    7.152953e+07    2.144483e-08    1.303764e-09    2.018933e-08   -2.621783e+00
    2.332098e+00    7.800198e+00    4.127679e+00    7.156223e+07    2.140863e-08    1.261263e-09    2.018418e-08   -2.616783e+00
    2.356366e+00    8.149291e+00    4.079580e+00    7.158356e+07    2.137298e-08    1.219859e-09    2.017856e-08   -2.611783e+00
    2.380842e+00    8.519904e+00    4.031551e+00    7.159316e+07    2.133788e-08    1.179549e-09    2.017246e-08   -2.606783e+00
    2.405519e+00    8.913377e+00    3.983598e+00    7.159077e+07    2.130332e-08    1.140323e-09    2.016591e-08   -2.601783e+00
    2.430391e+00    9.331102e+00    3.935727e+00    7.157605e+07    2.126932e-08    1.102176e-09    2.015889e-08   -2.596783e+00
    2.455453e+00    9.774549e+00    3.887947e+00    7.154886e+07    2.123583e-08    1.065096e-09    2.015141e-08   -2.591783e+00
    2.480699e+00    1.024522e+01    3.840263e+00    7.150891e+07    2.120289e-08    1.029073e-09    2.014349e-08   -2.586783e+00
    2.506124e+00    1.074469e+01    3.792684e+00    7.145606e+07    2.117045e-08    9.940935e-10    2.013511e-08   -2.581783e+00
    2.531723e+00    1.127457e+01    3.745216e+00    7.139016e+07    2.113854e-08    9.601435e-10    2.012628e-08   -2.576783e+00
    2.557496e+00    1.183654e+01    3.697868e+00    7.131116e+07    2.110712e-08    9.272085e-10    2.011700e-08   -2.571783e+00
    2.583436e+00    1.243230e+01    3.650646e+00    7.121893e+07    2.107619e-08    8.952720e-10    2.010729e-08   -2.566783e+00
    2.609545e+00    1.306359e+01    3.603558e+00    7.111350e+07    2.104575e-08    8.643180e-10    2.009715e-08   -2.561783e+00
    2.635819e+00    1.373223e+01    3.556612e+00    7.099487e+07    2.101577e-08    8.343280e-10    2.008657e-08   -2.556783e+00
    2.662259e+00    1.443999e+01    3.509815e+00    7.086305e+07    2.098625e-08    8.052845e-10    2.007556e-08   -2.551783e+00
    2.688867e+00    1.518873e+01    3.463174e+00    7.071823e+07    2.095716e-08    7.771675e-10    2.006413e-08   -2.546783e+00
    2.715645e+00    1.598032e+01    3.416697e+00    7.056045e+07    2.092850e-08    7.499575e-10    2.005228e-08   -2.541783e+00
    2.742594e+00    1.681662e+01    3.370391e+00    7.038987e+07    2.090027e-08    7.236355e-10    2.004002e-08   -2.536783e+00
    2.769722e+00    1.769953e+01    3.324263e+00    7.020677e+07    2.087242e-08    6.981795e-10    2.002733e-08   -2.531783e+00
    2.797031e+00    1.863091e+01    3.278320e+00    7.001126e+07    2.084496e-08    6.735700e-10    2.001424e-08   -2.526783e+00
    2.824530e+00    1.961267e+01    3.232570e+00    6.980367e+07    2.081786e-08    6.497860e-10    2.000073e-08   -2.521783e+00
    2.852224e+00    2.064667e+01    3.187018e+00    6.958422e+07    2.079111e-08    6.268060e-10    1.998682e-08   -2.516783e+00
    2.880125e+00    2.173480e+01    3.141671e+00    6.935323e+07    2.076469e-08    6.046085e-10    1.997251e-08   -2.511783e+00
    2.908237e+00    2.287889e+01    3.096536e+00    6.911094e+07    2.073859e-08    5.831730e-10    1.995779e-08   -2.506783e+00
    2.936574e+00    2.408079e+01    3.051619e+00    6.885774e+07    2.071279e-08    5.624775e-10    1.994267e-08   -2.501783e+00
    2.965145e+00    2.534231e+01    3.006925e+00    6.859389e+07    2.068728e-08    5.425020e-10    1.992714e-08   -2.496783e+00
    2.993964e+00    2.666523e+01    2.962461e+00    6.831979e+07    2.066202e-08    5.232250e-10    1.991122e-08   -2.491783e+00
    3.023042e+00    2.805132e+01    2.918232e+00    6.803574e+07    2.063701e-08    5.046255e-10    1.989489e-08   -2.486783e+00
    3.052390e+00    2.950230e+01    2.874243e+00    6.774208e+07    2.061224e-08    4.866832e-10    1.987817e-08   -2.481783e+00
    3.082024e+00    3.101989e+01    2.830500e+00    6.743916e+07    2.058767e-08    4.693778e-10    1.986103e-08   -2.476783e+00
    3.111957e+00    3.260573e+01    2.787008e+00    6.712731e+07    2.056330e-08    4.526894e-10    1.984350e-08   -2.471783e+00
    3.142205e+00    3.426149e+01    2.743771e+00    6.680686e+07    2.053910e-08    4.365981e-10    1.982557e-08   -2.466783e+00
    3.172781e+00    3.598877e+01    2.700795e+00    6.647816e+07    2.051506e-08    4.210848e-10    1.980723e-08   -2.461783e+00
    3.203702e+00    3.778915e+01    2.658083e+00    6.614151e+07    2.049117e-08    4.061304e-10    1.978849e-08   -2.456783e+00
    3.234984e+00    3.966418e+01    2.615639e+00    6.579724e+07    2.046739e-08    3.917163e-10    1.976933e-08   -2.451783e+00
    3.266643e+00    4.161541e+01    2.573468e+00    6.544564e+07    2.044371e-08    3.778244e-10    1.974976e-08   -2.446783e+00
    3.298695e+00    4.364434e+01    2.531574e+00    6.508700e+07    2.042014e-08    3.644370e-10    1.972978e-08   -2.441783e+00
    3.331155e+00    4.575242e+01    2.489961e+00    6.472160e+07    2.039662e-08    3.515366e-10    1.970938e-08   -2.436783e+00
    3.364045e+00    4.794117e+01    2.448631e+00    6.434977e+07    2.037315e-08    3.391064e-10    1.968854e-08   -2.431783e+00
    3.397379e+00    5.021200e+01    2.407589e+00    6.397169e+07    2.034972e-08    3.271299e-10    1.966729e-08   -2.426783e+00
    3.431176e+00    5.256640e+01    2.366837e+00    6.358766e+07    2.032632e-08    3.155911e-10    1.964560e-08   -2.421783e+00
    3.465454e+00    5.500576e+01    2.326380e+00    6.319791e+07    2.030290e-08    3.044746e-10    1.962347e-08   -2.416783e+00
    3.500230e+00    5.753150e+01    2.286218e+00    6.280263e+07    2.027947e-08    2.937650e-10    1.960089e-08   -2.411783e+00
    3.535526e+00    6.014514e+01    2.246358e+00    6.240212e+07    2.025600e-08    2.834478e-10    1.957787e-08   -2.406783e+00
    3.571358e+00    6.284804e+01    2.206799e+00    6.199652e+07    2.023247e-08    2.735087e-10    1.955438e-08   -2.401783e+00
    3.607749e+00    6.564166e+01    2.167546e+00    6.158604e+07    2.020888e-08    2.639339e-10    1.953043e-08   -2.396783e+00
    3.644715e+00    6.852748e+01    2.128600e+00    6.117087e+07    2.018520e-08    2.547102e-10    1.950601e-08   -2.391783e+00
    3.682277e+00    7.150693e+01    2.089965e+00    6.075116e+07    2.016142e-08    2.458244e-10    1.948111e-08   -2.386783e+00
    3.720458e+00    7.458160e+01    2.051643e+00    6.032713e+07    2.013750e-08    2.372642e-10    1.945571e-08   -2.381783e+00
    3.759276e+00    7.775288e+01    2.013635e+00    5.989886e+07    2.011345e-08    2.290175e-10    1.942982e-08   -2.376783e+00
    3.798755e+00    8.102245e+01    1.975945e+00    5.946654e+07    2.008924e-08    2.210726e-10    1.940342e-08   -2.371783e+00
    3.838916e+00    8.439187e+01    1.938575e+00    5.903033e+07    2.006485e-08    2.134182e-10    1.937650e-08   -2.366783e+00
    3.879780e+00    8.786268e+01    1.901526e+00    5.859028e+07    2.004028e-08    2.060434e-10    1.934906e-08   -2.361783e+00
    3.921371e+00    9.143662e+01    1.864801e+00    5.814659e+07    2.001549e-08    1.989377e-10    1.932107e-08   -2.356783e+00
    3.963713e+00    9.511539e+01    1.828401e+00    5.769930e+07    1.999048e-08    1.920910e-10    1.929254e-08   -2.351783e+00
    4.006830e+00    9.890083e+01    1.792328e+00    5.724857e+07    1.996521e-08    1.854936e-10    1.926344e-08   -2.346783e+00
    4.050745e+00    1.027946e+02    1.756586e+00    5.679444e+07    1.993970e-08    1.791360e-10    1.923377e-08   -2.341783e+00
    4.095484e+00    1.067986e+02    1.721174e+00    5.633702e+07    1.991390e-08    1.730091e-10    1.920352e-08   -2.336783e+00
    4.141072e+00    1.109148e+02    1.686096e+00    5.587642e+07    1.988779e-08    1.671042e-10    1.917266e-08   -2.331783e+00
    4.187537e+00    1.151453e+02    1.651353e+00    5.541268e+07    1.986138e-08    1.614130e-10    1.914120e-08   -2.326783e+00
    4.234908e+00    1.194921e+02    1.616946e+00    5.494590e+07    1.983464e-08    1.559272e-10    1.910910e-08   -2.321783e+00
    4.283207e+00    1.239572e+02    1.582877e+00    5.447609e+07    1.980753e-08    1.506391e-10    1.907637e-08   -2.316783e+00
    4.332469e+00    1.285429e+02    1.549148e+00    5.400334e+07    1.978007e-08    1.455414e-10    1.904298e-08   -2.311783e+00
    4.382716e+00    1.332514e+02    1.515761e+00    5.352768e+07    1.975221e-08    1.406266e-10    1.900892e-08   -2.306783e+00
    4.433985e+00    1.380852e+02    1.482717e+00    5.304916e+07    1.972396e-08    1.358878e-10    1.897417e-08   -2.301783e+00
    4.486306e+00    1.430468e+02    1.450018e+00    5.256787e+07    1.969528e-08    1.313184e-10    1.893872e-08   -2.296783e+00
    4.539706e+00    1.481384e+02    1.417666e+00    5.208374e+07    1.966616e-08    1.269121e-10    1.890255e-08   -2.291783e+00
    4.594224e+00    1.533629e+02    1.385660e+00    5.159689e+07    1.963657e-08    1.226625e-10    1.886565e-08   -2.286783e+00
    4.649889e+00    1.587228e+02    1.354005e+00    5.110730e+07    1.960650e-08    1.185637e-10    1.882799e-08   -2.281783e+00
    4.706735e+00    1.642209e+02    1.322701e+00    5.061497e+07    1.957595e-08    1.146102e-10    1.878955e-08   -2.276783e+00
    4.764800e+00    1.698601e+02    1.291750e+00    5.011993e+07    1.954487e-08    1.107964e-10    1.875033e-08   -2.271783e+00
    4.824123e+00    1.756435e+02    1.261152e+00    4.962224e+07    1.951326e-08    1.071169e-10    1.871030e-08   -2.266783e+00
    4.884732e+00    1.815737e+02    1.230911e+00    4.912181e+07    1.948109e-08    1.035669e-10    1.866944e-08   -2.261783e+00
    4.946677e+00    1.876544e+02    1.201026e+00    4.861874e+07    1.944834e-08    1.001414e-10    1.862774e-08   -2.256783e+00
    5.009989e+00    1.938883e+02    1.171501e+00    4.811295e+07    1.941500e-08    9.683575e-11    1.858517e-08   -2.251783e+00
    5.074711e+00    2.002790e+02    1.142335e+00    4.760447e+07    1.938105e-08    9.364540e-11    1.854170e-08   -2.246783e+00
    5.140881e+00    2.068296e+02    1.113531e+00    4.709323e+07    1.934646e-08    9.056610e-11    1.849733e-08   -2.241783e+00
    5.208550e+00    2.135440e+02    1.085090e+00    4.657931e+07    1.931122e-08    8.759375e-11    1.845203e-08   -2.236783e+00
    5.277749e+00    2.204253e+02    1.057014e+00    4.606260e+07    1.927530e-08    8.472425e-11    1.840577e-08   -2.231783e+00
    5.348532e+00    2.274773e+02    1.029304e+00    4.554314e+07    1.923868e-08    8.195385e-11    1.835853e-08   -2.226783e+00
    5.420939e+00    2.347038e+02    1.001962e+00    4.502087e+07    1.920136e-08    7.927890e-11    1.831031e-08   -2.221783e+00
    5.495021e+00    2.421084e+02    9.749890e-01    4.449580e+07    1.916330e-08    7.669585e-11    1.826106e-08   -2.216783e+00
    5.570819e+00    2.496948e+02    9.483865e-01    4.396784e+07    1.912447e-08    7.420125e-11    1.821077e-08   -2.211783e+00
    5.648385e+00    2.574671e+02    9.221565e-01    4.343700e+07    1.908487e-08    7.179195e-11    1.815940e-08   -2.206783e+00
    5.727764e+00    2.654289e+02    8.963000e-01    4.290322e+07    1.904447e-08    6.946470e-11    1.810695e-08   -2.201783e+00
    5.809009e+00    2.735843e+02    8.708190e-01    4.236647e+07    1.900325e-08    6.721660e-11    1.805338e-08   -2.196783e+00
    5.892170e+00    2.819373e+02    8.457145e-01    4.182672e+07    1.896118e-08    6.504470e-11    1.799867e-08   -2.191783e+00
    5.977294e+00    2.904917e+02    8.209885e-01    4.128392e+07    1.891825e-08    6.294625e-11    1.794279e-08   -2.186783e+00
    6.064437e+00    2.992513e+02    7.966420e-01    4.073801e+07    1.887444e-08    6.091855e-11    1.788573e-08   -2.181783e+00
    6.153646e+00    3.082202e+02    7.726770e-01    4.018897e+07    1.882972e-08    5.895905e-11    1.782745e-08   -2.176783e+00
    6.244972e+00    3.174021e+02    7.490950e-01    3.963673e+07    1.878407e-08    5.706530e-11    1.776793e-08   -2.171783e+00
    6.338471e+00    3.268008e+02    7.258970e-01    3.908127e+07    1.873747e-08    5.523495e-11    1.770714e-08   -2.166783e+00
    6.434195e+00    3.364198e+02    7.030845e-01    3.852255e+07    1.868990e-08    5.346570e-11    1.764505e-08   -2.161783e+00
    6.532191e+00    3.462628e+02    6.806595e-01    3.796051e+07    1.864133e-08    5.175530e-11    1.758165e-08   -2.156783e+00
    6.632514e+00    3.563329e+02    6.586230e-01    3.739512e+07    1.859175e-08    5.010175e-11    1.751690e-08   -2.151783e+00
    6.735206e+00    3.666335e+02    6.369770e-01    3.682633e+07    1.854114e-08    4.850297e-11    1.745079e-08   -2.146783e+00
    6.840328e+00    3.771675e+02    6.157220e-01    3.625413e+07    1.848946e-08    4.695703e-11    1.738326e-08   -2.141783e+00
    6.947920e+00    3.879373e+02    5.948600e-01    3.567847e+07    1.843671e-08    4.546206e-11    1.731433e-08   -2.136783e+00
    7.058030e+00    3.989451e+02    5.743920e-01    3.509935e+07    1.838286e-08    4.401625e-11    1.724394e-08   -2.131783e+00
    7.170702e+00    4.101932e+02    5.543195e-01    3.451674e+07    1.832788e-08    4.261789e-11    1.717208e-08   -2.126783e+00
    7.285979e+00    4.216829e+02    5.346435e-01    3.393062e+07    1.827176e-08    4.126530e-11    1.709871e-08   -2.121783e+00
    7.403888e+00    4.334152e+02    5.153660e-01    3.334101e+07    1.821449e-08    3.995689e-11    1.702382e-08   -2.116783e+00
    7.524481e+00    4.453905e+02    4.964870e-01    3.274791e+07    1.815603e-08    3.869112e-11    1.694737e-08   -2.111783e+00
    7.647777e+00    4.576088e+02    4.780081e-01    3.215135e+07    1.809637e-08    3.746650e-11    1.686936e-08   -2.106783e+00
    7.773806e+00    4.700690e+02    4.599303e-01    3.155135e+07    1.803549e-08    3.628162e-11    1.678974e-08   -2.101783e+00
    7.902589e+00    4.827698e+02    4.422543e-01    3.094797e+07    1.797337e-08    3.513509e-11    1.670849e-08   -2.096783e+00
    8.034140e+00    4.957082e+02    4.249810e-01    3.034126e+07    1.790999e-08    3.402562e-11    1.662559e-08   -2.091783e+00
    8.168467e+00    5.088813e+02    4.081110e-01    2.973132e+07    1.784534e-08    3.295191e-11    1.654103e-08   -2.086783e+00
    8.305575e+00    5.222844e+02    3.916447e-01    2.911825e+07    1.777939e-08    3.191275e-11    1.645478e-08   -2.081783e+00
    8.445452e+00    5.359123e+02    3.755827e-01    2.850215e+07    1.771214e-08    3.090696e-11    1.636681e-08   -2.076783e+00
    8.588083e+00    5.497575e+02    3.599251e-01    2.788317e+07    1.764356e-08    2.993342e-11    1.627710e-08   -2.071783e+00
    8.733442e+00    5.638126e+02    3.446720e-01    2.726149e+07    1.757365e-08    2.899101e-11    1.618563e-08   -2.066783e+00
    8.881492e+00    5.780682e+02    3.298233e-01    2.663731e+07    1.750238e-08    2.807870e-11    1.609240e-08   -2.061783e+00
    9.032184e+00    5.925135e+02    3.153786e-01    2.601082e+07    1.742975e-08    2.719549e-11    1.599738e-08   -2.056783e+00
    9.185457e+00    6.071357e+02    3.013375e-01    2.538230e+07    1.735574e-08    2.634037e-11    1.590055e-08   -2.051783e+00
    9.341234e+00    6.219206e+02    2.876991e-01    2.475202e+07    1.728034e-08    2.551242e-11    1.580189e-08   -2.046783e+00
    9.499423e+00    6.368526e+02    2.744625e-01    2.412029e+07    1.720355e-08    2.471074e-11    1.570139e-08   -2.041783e+00
    9.659923e+00    6.519137e+02    2.616263e-01    2.348745e+07    1.712535e-08    2.393445e-11    1.559906e-08   -2.036783e+00
    9.822611e+00    6.670848e+02    2.491890e-01    2.285390e+07    1.704573e-08    2.318271e-11    1.549486e-08   -2.031783e+00
    9.987341e+00    6.823438e+02    2.371487e-01    2.222004e+07    1.696470e-08    2.245471e-11    1.538878e-08   -2.026783e+00
    1.015396e+01    6.976678e+02    2.255034e-01    2.158633e+07    1.688224e-08    2.174967e-11    1.528083e-08   -2.021783e+00
    1.032230e+01    7.130310e+02    2.142504e-01    2.095325e+07    1.679835e-08    2.106683e-11    1.517100e-08   -2.016783e+00
    1.049214e+01    7.284059e+02    2.033868e-01    2.032131e+07    1.671304e-08    2.040547e-11    1.505928e-08   -2.011783e+00
    1.066329e+01    7.437635e+02    1.929096e-01    1.969109e+07    1.662630e-08    1.976488e-11    1.494567e-08   -2.006783e+00
    1.083551e+01    7.590724e+02    1.828151e-01    1.906316e+07    1.653813e-08    1.914439e-11    1.483017e-08   -2.001783e+00
    1.100853e+01    7.742995e+02    1.730992e-01    1.843815e+07    1.644854e-08    1.854337e-11    1.471279e-08   -1.996783e+00
    1.118208e+01    7.894099e+02    1.637578e-01    1.781670e+07    1.635753e-08    1.796115e-11    1.459351e-08   -1.991783e+00
