# sky130 nfet_01v8 gm/ID Processed Lookup Table
# Corner: ff
# Temperature: -40C
# W = 2.0 um
# L = 3.5 um (3500 nm)
# Columns: gm/id [1/V]  gm/gds [V/V]  id/W [A/m]  ft [Hz]  Cgg/W [F/m]  Cgd/W [F/m]  Cgs/W [F/m]  Cdb/W [F/m]  vgs [V]  vth [V]  vdsat [V]
# vdsat = BSIM4 saturation voltage (|VDS|_sat, positive); use for headroom / saturation / cascode-bias calculations
#           gm/id          gm/gds            id/W              ft           Cgg/W           Cgd/W           Cgs/W           Cdb/W             vgs             vth           vdsat
    3.320485e+01    1.895652e+02    3.802454e-05    2.115629e+04    9.498305e-09    1.117243e-12    4.107307e-09    5.054615e-10    3.400000e-01    5.925313e-01    3.047317e-02
    3.319816e+01    1.891228e+02    5.299930e-05    2.863917e+04    9.777860e-09    1.233496e-12    4.492905e-09    5.452325e-10    3.500000e-01    5.925313e-01    3.047848e-02
    3.315629e+01    1.886146e+02    7.385310e-05    3.867989e+04    1.007557e-08    1.361349e-12    4.900114e-09    5.866910e-10    3.600000e-01    5.925313e-01    3.048587e-02
    3.308356e+01    1.880343e+02    1.028531e-04    5.212094e+04    1.039053e-08    1.501768e-12    5.327715e-09    6.296845e-10    3.700000e-01    5.925313e-01    3.049615e-02
    3.298248e+01    1.873768e+02    1.431159e-04    7.007039e+04    1.072153e-08    1.655773e-12    5.774155e-09    6.740315e-10    3.800000e-01    5.925313e-01    3.051040e-02
    3.285428e+01    1.866384e+02    1.989117e-04    9.398029e+04    1.106715e-08    1.824433e-12    6.237575e-09    7.195275e-10    3.900000e-01    5.925313e-01    3.053012e-02
    3.269936e+01    1.858182e+02    2.760691e-04    1.257462e+05    1.142569e-08    2.008870e-12    6.715820e-09    7.659470e-10    4.000000e-01    5.925313e-01    3.055737e-02
    3.251763e+01    1.849196e+02    3.825116e-04    1.678321e+05    1.179529e-08    2.210257e-12    7.206510e-09    8.130490e-10    4.100000e-01    5.925313e-01    3.059488e-02
    3.230887e+01    1.839522e+02    5.289605e-04    2.234269e+05    1.217390e-08    2.429821e-12    7.707055e-09    8.605800e-10    4.200000e-01    5.925313e-01    3.064636e-02
    3.207301e+01    1.829336e+02    7.298550e-04    2.966393e+05    1.255937e-08    2.668846e-12    8.214740e-09    9.082830e-10    4.300000e-01    5.925313e-01    3.071672e-02
    3.181052e+01    1.818919e+02    1.004540e-03    3.927415e+05    1.294945e-08    2.928668e-12    8.726765e-09    9.558990e-10    4.400000e-01    5.925313e-01    3.081246e-02
    3.152258e+01    1.808693e+02    1.378803e-03    5.184735e+05    1.334189e-08    3.210688e-12    9.240315e-09    1.003175e-09    4.500000e-01    5.925313e-01    3.094207e-02
    3.121138e+01    1.799233e+02    1.886840e-03    6.824278e+05    1.373446e-08    3.516366e-12    9.752620e-09    1.049869e-09    4.600000e-01    5.925313e-01    3.111646e-02
    3.088017e+01    1.791297e+02    2.573783e-03    8.955377e+05    1.412498e-08    3.847230e-12    1.026101e-08    1.095753e-09    4.700000e-01    5.925313e-01    3.134955e-02
    3.053317e+01    1.785828e+02    3.498921e-03    1.171701e+06    1.451140e-08    4.204878e-12    1.076295e-08    1.140619e-09    4.800000e-01    5.925313e-01    3.165872e-02
    3.017513e+01    1.783942e+02    4.739839e-03    1.528571e+06    1.489181e-08    4.590988e-12    1.125613e-08    1.184281e-09    4.900000e-01    5.925313e-01    3.206531e-02
    2.981063e+01    1.786890e+02    6.397680e-03    1.988531e+06    1.526446e-08    5.007315e-12    1.173844e-08    1.226577e-09    5.000000e-01    5.925313e-01    3.259495e-02
    2.944292e+01    1.795975e+02    8.603815e-03    2.579843e+06    1.562783e-08    5.455710e-12    1.220801e-08    1.267372e-09    5.100000e-01    5.925313e-01    3.327770e-02
    2.907263e+01    1.812436e+02    1.152809e-02    3.337867e+06    1.598058e-08    5.938125e-12    1.266328e-08    1.306555e-09    5.200000e-01    5.925313e-01    3.414781e-02
    2.869646e+01    1.837308e+02    1.538879e-02    4.306161e+06    1.632159e-08    6.456600e-12    1.310293e-08    1.344045e-09    5.300000e-01    5.925313e-01    3.524312e-02
    2.830631e+01    1.871241e+02    2.046404e-02    5.537089e+06    1.664997e-08    7.013320e-12    1.352593e-08    1.379782e-09    5.400000e-01    5.925313e-01    3.660390e-02
    2.788953e+01    1.914347e+02    2.710389e-02    7.091505e+06    1.696502e-08    7.610570e-12    1.393149e-08    1.413733e-09    5.500000e-01    5.925313e-01    3.827122e-02
    2.743000e+01    1.966063e+02    3.574168e-02    9.036963e+06    1.726626e-08    8.250790e-12    1.431910e-08    1.445884e-09    5.600000e-01    5.925313e-01    4.028492e-02
    2.691067e+01    2.025096e+02    4.690279e-02    1.144411e+07    1.755339e-08    8.936570e-12    1.468847e-08    1.476243e-09    5.700000e-01    5.925313e-01    4.268126e-02
    2.631654e+01    2.089449e+02    6.120815e-02    1.438126e+07    1.782630e-08    9.670665e-12    1.503950e-08    1.504834e-09    5.800000e-01    5.925313e-01    4.549058e-02
    2.563752e+01    2.156558e+02    7.937030e-02    1.790756e+07    1.808498e-08    1.045600e-11    1.537230e-08    1.531695e-09    5.900000e-01    5.925313e-01    4.873525e-02
    2.487050e+01    2.223489e+02    1.021801e-01    2.206572e+07    1.832959e-08    1.129570e-11    1.568713e-08    1.556876e-09    6.000000e-01    5.925313e-01    5.242809e-02
    2.401981e+01    2.287217e+02    1.304845e-01    2.687577e+07    1.856042e-08    1.219312e-11    1.598437e-08    1.580439e-09    6.100000e-01    5.925313e-01    5.657152e-02
    2.309660e+01    2.344888e+02    1.651560e-01    3.233093e+07    1.877779e-08    1.315181e-11    1.626454e-08    1.602452e-09    6.200000e-01    5.925313e-01    6.115760e-02
    2.211704e+01    2.394070e+02    2.070579e-01    3.839661e+07    1.898218e-08    1.417560e-11    1.652822e-08    1.622987e-09    6.300000e-01    5.925313e-01    6.616875e-02
    2.110009e+01    2.432914e+02    2.570080e-01    4.501291e+07    1.917405e-08    1.526859e-11    1.677608e-08    1.642122e-09    6.400000e-01    5.925313e-01    7.157923e-02
    2.006533e+01    2.460246e+02    3.157469e-01    5.209976e+07    1.935395e-08    1.643515e-11    1.700882e-08    1.659937e-09    6.500000e-01    5.925313e-01    7.735698e-02
    1.903124e+01    2.475568e+02    3.839130e-01    5.956424e+07    1.952246e-08    1.768001e-11    1.722718e-08    1.676512e-09    6.600000e-01    5.925313e-01    8.346568e-02
    1.801400e+01    2.478998e+02    4.620265e-01    6.730837e+07    1.968013e-08    1.900822e-11    1.743192e-08    1.691926e-09    6.700000e-01    5.925313e-01    8.986684e-02
    1.702679e+01    2.471146e+02    5.504830e-01    7.523620e+07    1.982760e-08    2.042518e-11    1.762382e-08    1.706258e-09    6.800000e-01    5.925313e-01    9.652157e-02
    1.607962e+01    2.452989e+02    6.495575e-01    8.325972e+07    1.996543e-08    2.193675e-11    1.780361e-08    1.719586e-09    6.900000e-01    5.925313e-01    1.033922e-01
    1.517952e+01    2.425732e+02    7.594130e-01    9.130298e+07    2.009423e-08    2.354919e-11    1.797206e-08    1.731981e-09    7.000000e-01    5.925313e-01    1.104432e-01
    1.433083e+01    2.390691e+02    8.801160e-01    9.930412e+07    2.021455e-08    2.526926e-11    1.812988e-08    1.743516e-09    7.100000e-01    5.925313e-01    1.176422e-01
    1.353568e+01    2.349192e+02    1.011654e+00    1.072158e+08    2.032699e-08    2.710422e-11    1.827779e-08    1.754258e-09    7.200000e-01    5.925313e-01    1.249605e-01
    1.279439e+01    2.302494e+02    1.153951e+00    1.150046e+08    2.043205e-08    2.906188e-11    1.841646e-08    1.764271e-09    7.300000e-01    5.925313e-01    1.323729e-01
    1.210598e+01    2.251753e+02    1.306890e+00    1.226492e+08    2.053027e-08    3.115068e-11    1.854653e-08    1.773615e-09    7.400000e-01    5.925313e-01    1.398578e-01
    1.146851e+01    2.197983e+02    1.470322e+00    1.301385e+08    2.062213e-08    3.337970e-11    1.866860e-08    1.782347e-09    7.500000e-01    5.925313e-01    1.473972e-01
    1.087936e+01    2.142057e+02    1.644081e+00    1.374695e+08    2.070811e-08    3.575873e-11    1.878327e-08    1.790521e-09    7.600000e-01    5.925313e-01    1.549761e-01
    1.033558e+01    2.084700e+02    1.827995e+00    1.446451e+08    2.078864e-08    3.829833e-11    1.889107e-08    1.798188e-09    7.700000e-01    5.925313e-01    1.625823e-01
    9.833977e+00    2.026504e+02    2.021892e+00    1.516724e+08    2.086415e-08    4.100989e-11    1.899251e-08    1.805391e-09    7.800000e-01    5.925313e-01    1.702062e-01
    9.371342e+00    1.967937e+02    2.225605e+00    1.585612e+08    2.093501e-08    4.390571e-11    1.908806e-08    1.812175e-09    7.900000e-01    5.925313e-01    1.778399e-01
    8.944503e+00    1.909369e+02    2.438980e+00    1.653225e+08    2.100161e-08    4.699906e-11    1.917818e-08    1.818581e-09    8.000000e-01    5.925313e-01    1.854777e-01
    8.550417e+00    1.851077e+02    2.661869e+00    1.719679e+08    2.106429e-08    5.030430e-11    1.926326e-08    1.824645e-09    8.100000e-01    5.925313e-01    1.931149e-01
    8.186208e+00    1.793268e+02    2.894139e+00    1.785087e+08    2.112336e-08    5.383685e-11    1.934369e-08    1.830402e-09    8.200000e-01    5.925313e-01    2.007484e-01
    7.849194e+00    1.736090e+02    3.135671e+00    1.849557e+08    2.117912e-08    5.761355e-11    1.941984e-08    1.835885e-09    8.300000e-01    5.925313e-01    2.083758e-01
    7.536898e+00    1.679647e+02    3.386355e+00    1.913185e+08    2.123187e-08    6.165240e-11    1.949202e-08    1.841122e-09    8.400000e-01    5.925313e-01    2.159954e-01
    7.247050e+00    1.624007e+02    3.646092e+00    1.976058e+08    2.128185e-08    6.597295e-11    1.956053e-08    1.846142e-09    8.500000e-01    5.925313e-01    2.236063e-01
    6.977580e+00    1.569212e+02    3.914795e+00    2.038249e+08    2.132931e-08    7.059640e-11    1.962566e-08    1.850970e-09    8.600000e-01    5.925313e-01    2.312078e-01
    6.726612e+00    1.515287e+02    4.192382e+00    2.099819e+08    2.137448e-08    7.554555e-11    1.968765e-08    1.855631e-09    8.700000e-01    5.925313e-01    2.387999e-01
    6.492449e+00    1.462241e+02    4.478782e+00    2.160820e+08    2.141756e-08    8.084510e-11    1.974674e-08    1.860146e-09    8.800000e-01    5.925313e-01    2.463824e-01
    6.273560e+00    1.410076e+02    4.773926e+00    2.221290e+08    2.145876e-08    8.652190e-11    1.980315e-08    1.864538e-09    8.900000e-01    5.925313e-01    2.539557e-01
    6.068571e+00    1.358789e+02    5.077750e+00    2.281258e+08    2.149827e-08    9.260475e-11    1.985707e-08    1.868825e-09    9.000000e-01    5.925313e-01    2.615201e-01
    5.876236e+00    1.308372e+02    5.390200e+00    2.340746e+08    2.153624e-08    9.912495e-11    1.990868e-08    1.873026e-09    9.100000e-01    5.925313e-01    2.690761e-01
    5.695447e+00    1.258820e+02    5.711215e+00    2.399765e+08    2.157286e-08    1.061164e-10    1.995815e-08    1.877159e-09    9.200000e-01    5.925313e-01    2.766241e-01
    5.525203e+00    1.210127e+02    6.040740e+00    2.458322e+08    2.160826e-08    1.136156e-10    2.000561e-08    1.881239e-09    9.300000e-01    5.925313e-01    2.841647e-01
    5.364602e+00    1.162288e+02    6.378725e+00    2.516414e+08    2.164260e-08    1.216622e-10    2.005121e-08    1.885285e-09    9.400000e-01    5.925313e-01    2.916985e-01
    5.212840e+00    1.115301e+02    6.725110e+00    2.574036e+08    2.167600e-08    1.302988e-10    2.009508e-08    1.889310e-09    9.500000e-01    5.925313e-01    2.992259e-01
    5.069186e+00    1.069168e+02    7.079845e+00    2.631176e+08    2.170862e-08    1.395717e-10    2.013731e-08    1.893329e-09    9.600000e-01    5.925313e-01    3.067476e-01
    4.932988e+00    1.023893e+02    7.442870e+00    2.687818e+08    2.174056e-08    1.495308e-10    2.017801e-08    1.897356e-09    9.700000e-01    5.925313e-01    3.142640e-01
    4.803649e+00    9.794829e+01    7.814135e+00    2.743942e+08    2.177195e-08    1.602299e-10    2.021727e-08    1.901406e-09    9.800000e-01    5.925313e-01    3.217756e-01
    4.680637e+00    9.359472e+01    8.193580e+00    2.799526e+08    2.180290e-08    1.717271e-10    2.025517e-08    1.905493e-09    9.900000e-01    5.925313e-01    3.292828e-01
    4.563471e+00    8.932984e+01    8.581140e+00    2.854543e+08    2.183352e-08    1.840850e-10    2.029177e-08    1.909629e-09    1.000000e+00    5.925313e-01    3.367862e-01
    4.451709e+00    8.515517e+01    8.976755e+00    2.908962e+08    2.186393e-08    1.973711e-10    2.032714e-08    1.913827e-09    1.010000e+00    5.925313e-01    3.442860e-01
    4.344958e+00    8.107248e+01    9.380355e+00    2.962751e+08    2.189423e-08    2.116578e-10    2.036134e-08    1.918103e-09    1.020000e+00    5.925313e-01    3.517828e-01
    4.242850e+00    7.708356e+01    9.791875e+00    3.015874e+08    2.192454e-08    2.270231e-10    2.039440e-08    1.922468e-09    1.030000e+00    5.925313e-01    3.592767e-01
    4.145056e+00    7.319060e+01    1.021124e+01    3.068294e+08    2.195493e-08    2.435506e-10    2.042637e-08    1.926937e-09    1.040000e+00    5.925313e-01    3.667682e-01
    4.051275e+00    6.939575e+01    1.063837e+01    3.119967e+08    2.198553e-08    2.613298e-10    2.045727e-08    1.931522e-09    1.050000e+00    5.925313e-01    3.742576e-01
    3.961227e+00    6.570132e+01    1.107319e+01    3.170848e+08    2.201644e-08    2.804565e-10    2.048714e-08    1.936236e-09    1.060000e+00    5.925313e-01    3.817451e-01
    3.874657e+00    6.210956e+01    1.151561e+01    3.220889e+08    2.204777e-08    3.010328e-10    2.051598e-08    1.941095e-09    1.070000e+00    5.925313e-01    3.892310e-01
    3.791330e+00    5.862288e+01    1.196554e+01    3.270038e+08    2.207960e-08    3.231674e-10    2.054381e-08    1.946111e-09    1.080000e+00    5.925313e-01    3.967156e-01
    3.711028e+00    5.524361e+01    1.242289e+01    3.318239e+08    2.211206e-08    3.469758e-10    2.057064e-08    1.951300e-09    1.090000e+00    5.925313e-01    4.041991e-01
    3.633550e+00    5.197404e+01    1.288754e+01    3.365431e+08    2.214524e-08    3.725801e-10    2.059647e-08    1.956674e-09    1.100000e+00    5.925313e-01    4.116817e-01
    3.558705e+00    4.881628e+01    1.335939e+01    3.411550e+08    2.217927e-08    4.001090e-10    2.062128e-08    1.962247e-09    1.110000e+00    5.925313e-01    4.191636e-01
    3.486318e+00    4.577246e+01    1.383834e+01    3.456527e+08    2.221423e-08    4.296979e-10    2.064507e-08    1.968037e-09    1.120000e+00    5.925313e-01    4.266450e-01
    3.416224e+00    4.284439e+01    1.432425e+01    3.500286e+08    2.225025e-08    4.614886e-10    2.066782e-08    1.974055e-09    1.130000e+00    5.925313e-01    4.341262e-01
    3.348266e+00    4.003380e+01    1.481700e+01    3.542748e+08    2.228743e-08    4.956283e-10    2.068950e-08    1.980317e-09    1.140000e+00    5.925313e-01    4.416072e-01
    3.282300e+00    3.734209e+01    1.531643e+01    3.583828e+08    2.232588e-08    5.322700e-10    2.071008e-08    1.986837e-09    1.150000e+00    5.925313e-01    4.490883e-01
    3.218183e+00    3.477042e+01    1.582240e+01    3.623435e+08    2.236572e-08    5.715700e-10    2.072953e-08    1.993629e-09    1.160000e+00    5.925313e-01    4.565696e-01
    3.155786e+00    3.231961e+01    1.633476e+01    3.661472e+08    2.240705e-08    6.136900e-10    2.074783e-08    2.000708e-09    1.170000e+00    5.925313e-01    4.640513e-01
    3.094983e+00    2.999015e+01    1.685332e+01    3.697838e+08    2.244999e-08    6.587925e-10    2.076491e-08    2.008087e-09    1.180000e+00    5.925313e-01    4.715335e-01
    3.035653e+00    2.778211e+01    1.737791e+01    3.732424e+08    2.249463e-08    7.070410e-10    2.078074e-08    2.015778e-09    1.190000e+00    5.925313e-01    4.790164e-01
    2.977680e+00    2.569515e+01    1.790832e+01    3.765116e+08    2.254108e-08    7.585980e-10    2.079527e-08    2.023795e-09    1.200000e+00    5.925313e-01    4.865002e-01
    2.920960e+00    2.372852e+01    1.844434e+01    3.795802e+08    2.258944e-08    8.136235e-10    2.080843e-08    2.032148e-09    1.210000e+00    5.925313e-01    4.939849e-01
    2.865389e+00    2.188095e+01    1.898575e+01    3.824360e+08    2.263980e-08    8.722720e-10    2.082019e-08    2.040848e-09    1.220000e+00    5.925313e-01    5.014708e-01
    2.810866e+00    2.015067e+01    1.953229e+01    3.850666e+08    2.269225e-08    9.346910e-10    2.083048e-08    2.049904e-09    1.230000e+00    5.925313e-01    5.089580e-01
    2.757307e+00    1.853549e+01    2.008371e+01    3.874607e+08    2.274686e-08    1.001018e-09    2.083925e-08    2.059323e-09    1.240000e+00    5.925313e-01    5.164465e-01
    2.704625e+00    1.703264e+01    2.063974e+01    3.896064e+08    2.280369e-08    1.071376e-09    2.084643e-08    2.069111e-09    1.250000e+00    5.925313e-01    5.239366e-01
    2.652749e+00    1.563891e+01    2.120007e+01    3.914929e+08    2.286281e-08    1.145875e-09    2.085199e-08    2.079272e-09    1.260000e+00    5.925313e-01    5.314284e-01
    2.601609e+00    1.435058e+01    2.176440e+01    3.931098e+08    2.292424e-08    1.224605e-09    2.085586e-08    2.089808e-09    1.270000e+00    5.925313e-01    5.389221e-01
    2.551152e+00    1.316353e+01    2.233241e+01    3.944486e+08    2.298802e-08    1.307634e-09    2.085800e-08    2.100719e-09    1.280000e+00    5.925313e-01    5.464176e-01
    2.501333e+00    1.207322e+01    2.290375e+01    3.955027e+08    2.305413e-08    1.395007e-09    2.085837e-08    2.112003e-09    1.290000e+00    5.925313e-01    5.539153e-01
    2.452121e+00    1.107477e+01    2.347809e+01    3.962673e+08    2.312258e-08    1.486742e-09    2.085692e-08    2.123655e-09    1.300000e+00    5.925313e-01    5.614152e-01
    2.403495e+00    1.016305e+01    2.405505e+01    3.967404e+08    2.319334e-08    1.582830e-09    2.085364e-08    2.135668e-09    1.310000e+00    5.925313e-01    5.689175e-01
    2.355447e+00    9.332677e+00    2.463429e+01    3.969219e+08    2.326636e-08    1.683232e-09    2.084850e-08    2.148034e-09    1.320000e+00    5.925313e-01    5.764223e-01
    2.307978e+00    8.578181e+00    2.521543e+01    3.968152e+08    2.334155e-08    1.787877e-09    2.084148e-08    2.160739e-09    1.330000e+00    5.925313e-01    5.839297e-01
    2.261108e+00    7.894046e+00    2.579810e+01    3.964274e+08    2.341885e-08    1.896665e-09    2.083260e-08    2.173772e-09    1.340000e+00    5.925313e-01    5.914399e-01
    2.214859e+00    7.274757e+00    2.638195e+01    3.957671e+08    2.349813e-08    2.009461e-09    2.082186e-08    2.187116e-09    1.350000e+00    5.925313e-01    5.989530e-01
    2.169261e+00    6.714934e+00    2.696663e+01    3.948461e+08    2.357929e-08    2.126106e-09    2.080927e-08    2.200754e-09    1.360000e+00    5.925313e-01    6.064692e-01
    2.124353e+00    6.209358e+00    2.755180e+01    3.936791e+08    2.366217e-08    2.246407e-09    2.079487e-08    2.214668e-09    1.370000e+00    5.925313e-01    6.139885e-01
    2.080177e+00    5.753044e+00    2.813712e+01    3.922821e+08    2.374661e-08    2.370146e-09    2.077871e-08    2.228837e-09    1.380000e+00    5.925313e-01    6.215112e-01
    2.036773e+00    5.341268e+00    2.872230e+01    3.906728e+08    2.383246e-08    2.497084e-09    2.076084e-08    2.243242e-09    1.390000e+00    5.925313e-01    6.290373e-01
    1.994180e+00    4.969618e+00    2.930704e+01    3.888694e+08    2.391953e-08    2.626958e-09    2.074131e-08    2.257860e-09    1.400000e+00    5.925313e-01    6.365670e-01
    1.952437e+00    4.634010e+00    2.989108e+01    3.868918e+08    2.400762e-08    2.759491e-09    2.061644e-08    2.157497e-09    1.410000e+00    5.925313e-01    6.441005e-01
    1.911575e+00    4.330685e+00    3.047417e+01    3.847582e+08    2.409658e-08    2.894389e-09    2.058813e-08    2.166286e-09    1.420000e+00    5.925313e-01    6.516378e-01
