# sky130 nfet_01v8 gm/ID Processed Lookup Table
# Corner: ff
# Temperature: -40C
# W = 2.0 um
# L = 2 um (2000 nm)
# Columns: gm/id [1/V]  gm/gds [V/V]  id/W [A/m]  ft [Hz]  Cgg/W [F/m]  Cgd/W [F/m]  Cgs/W [F/m]  Cdb/W [F/m]  vgs [V]  vth [V]  vdsat [V]
# vdsat = BSIM4 saturation voltage (|VDS|_sat, positive); use for headroom / saturation / cascode-bias calculations
#           gm/id          gm/gds            id/W              ft           Cgg/W           Cgd/W           Cgs/W           Cdb/W             vgs             vth           vdsat
    3.414973e+01    1.493203e+02    4.706929e-05    4.741091e+04    5.395935e-09    5.479725e-13    2.266731e-09    2.706592e-10    3.500000e-01    6.057081e-01    2.954599e-02
    3.413980e+01    1.490108e+02    6.622755e-05    6.476856e+04    5.555915e-09    6.058730e-13    2.486921e-09    2.928391e-10    3.600000e-01    6.057081e-01    2.954968e-02
    3.409826e+01    1.486516e+02    9.315935e-05    8.827697e+04    5.727055e-09    6.696330e-13    2.720437e-09    3.160546e-10    3.700000e-01    6.057081e-01    2.955488e-02
    3.402867e+01    1.482371e+02    1.309701e-04    1.200419e+05    5.908870e-09    7.397435e-13    2.966647e-09    3.402240e-10    3.800000e-01    6.057081e-01    2.956218e-02
    3.393291e+01    1.477615e+02    1.839747e-04    1.628615e+05    6.100715e-09    8.167185e-13    3.224700e-09    3.652482e-10    3.900000e-01    6.057081e-01    2.957240e-02
    3.381158e+01    1.472198e+02    2.581502e-04    2.204426e+05    6.301770e-09    9.010965e-13    3.493545e-09    3.910120e-10    4.000000e-01    6.057081e-01    2.958669e-02
    3.366444e+01    1.466088e+02    3.617465e-04    2.976757e+05    6.511070e-09    9.934370e-13    3.771934e-09    4.173865e-10    4.100000e-01    6.057081e-01    2.960663e-02
    3.349069e+01    1.459266e+02    5.061040e-04    4.009869e+05    6.727500e-09    1.094323e-12    4.058460e-09    4.442312e-10    4.200000e-01    6.057081e-01    2.963438e-02
    3.328940e+01    1.451756e+02    7.067420e-04    5.387810e+05    6.949840e-09    1.204359e-12    4.351574e-09    4.713974e-10    4.300000e-01    6.057081e-01    2.967286e-02
    3.305961e+01    1.443631e+02    9.847960e-04    7.219966e+05    7.176770e-09    1.324172e-12    4.649626e-09    4.987313e-10    4.400000e-01    6.057081e-01    2.972606e-02
    3.280075e+01    1.435030e+02    1.368897e-03    9.647985e+05    7.406930e-09    1.454411e-12    4.950901e-09    5.260775e-10    4.500000e-01    6.057081e-01    2.979928e-02
    3.251299e+01    1.426189e+02    1.897616e-03    1.285444e+06    7.638920e-09    1.595748e-12    5.253660e-09    5.532820e-10    4.600000e-01    6.057081e-01    2.989954e-02
    3.219734e+01    1.417450e+02    2.622616e-03    1.707364e+06    7.871340e-09    1.748877e-12    5.556175e-09    5.801975e-10    4.700000e-01    6.057081e-01    3.003609e-02
    3.185606e+01    1.409297e+02    3.612714e-03    2.260520e+06    8.102845e-09    1.914519e-12    5.856775e-09    6.066825e-10    4.800000e-01    6.057081e-01    3.022085e-02
    3.149262e+01    1.402358e+02    4.959076e-03    2.983140e+06    8.332130e-09    2.093421e-12    6.153870e-09    6.326095e-10    4.900000e-01    6.057081e-01    3.046901e-02
    3.111149e+01    1.397414e+02    6.781870e-03    3.923901e+06    8.558000e-09    2.286358e-12    6.445990e-09    6.578610e-10    5.000000e-01    6.057081e-01    3.079955e-02
    3.071769e+01    1.395378e+02    9.238755e-03    5.144699e+06    8.779345e-09    2.494133e-12    6.731795e-09    6.823365e-10    5.100000e-01    6.057081e-01    3.123574e-02
    3.031579e+01    1.397251e+02    1.253569e-02    6.723984e+06    8.995195e-09    2.717587e-12    7.010115e-09    7.059505e-10    5.200000e-01    6.057081e-01    3.180541e-02
    2.990866e+01    1.404046e+02    1.694048e-02    8.760585e+06    9.204700e-09    2.957594e-12    7.279940e-09    7.286330e-10    5.300000e-01    6.057081e-01    3.254096e-02
    2.949595e+01    1.416676e+02    2.279942e-02    1.137754e+07    9.407150e-09    3.215071e-12    7.540435e-09    7.503310e-10    5.400000e-01    6.057081e-01    3.347895e-02
    2.907273e+01    1.435820e+02    3.055690e-02    1.472497e+07    9.601980e-09    3.490976e-12    7.790935e-09    7.710065e-10    5.500000e-01    6.057081e-01    3.465920e-02
    2.862898e+01    1.461779e+02    4.077714e-02    1.898085e+07    9.788750e-09    3.786319e-12    8.030945e-09    7.906370e-10    5.600000e-01    6.057081e-01    3.612330e-02
    2.815013e+01    1.494351e+02    5.416600e-02    2.434760e+07    9.967155e-09    4.102160e-12    8.260130e-09    8.092125e-10    5.700000e-01    6.057081e-01    3.791262e-02
    2.761892e+01    1.532748e+02    7.158960e-02    3.104325e+07    1.013700e-08    4.439621e-12    8.478300e-09    8.267355e-10    5.800000e-01    6.057081e-01    4.006588e-02
    2.701843e+01    1.575591e+02    9.408520e-02    3.928616e+07    1.029822e-08    4.799885e-12    8.685405e-09    8.432200e-10    5.900000e-01    6.057081e-01    4.261667e-02
    2.633544e+01    1.620982e+02    1.228597e-01    4.927425e+07    1.045081e-08    5.184205e-12    8.881500e-09    8.586875e-10    6.000000e-01    6.057081e-01    4.559092e-02
    2.556315e+01    1.666663e+02    1.592716e-01    6.116134e+07    1.059487e-08    5.593910e-12    9.066745e-09    8.731680e-10    6.100000e-01    6.057081e-01    4.900509e-02
    2.470272e+01    1.710233e+02    2.047953e-01    7.503450e+07    1.073060e-08    6.030410e-12    9.241395e-09    8.866980e-10    6.200000e-01    6.057081e-01    5.286485e-02
    2.376307e+01    1.749384e+02    2.609687e-01    9.089787e+07    1.085819e-08    6.495215e-12    9.405755e-09    8.993175e-10    6.300000e-01    6.057081e-01    5.716483e-02
    2.275944e+01    1.782117e+02    3.293295e-01    1.086656e+08    1.097793e-08    6.989915e-12    9.560205e-09    9.110705e-10    6.400000e-01    6.057081e-01    6.188915e-02
    2.171110e+01    1.806902e+02    4.113482e-01    1.281666e+08    1.109013e-08    7.516220e-12    9.705150e-09    9.220030e-10    6.500000e-01    6.057081e-01    6.701287e-02
    2.063885e+01    1.822771e+02    5.083655e-01    1.491602e+08    1.119512e-08    8.075945e-12    9.841030e-09    9.321620e-10    6.600000e-01    6.057081e-01    7.250388e-02
    1.956288e+01    1.829328e+02    6.215430e-01    1.713581e+08    1.129327e-08    8.671030e-12    9.968310e-09    9.415965e-10    6.700000e-01    6.057081e-01    7.832514e-02
    1.850124e+01    1.826692e+02    7.518275e-01    1.944505e+08    1.138492e-08    9.303550e-12    1.008746e-08    9.503525e-10    6.800000e-01    6.057081e-01    8.443693e-02
    1.746889e+01    1.815407e+02    8.999395e-01    2.181310e+08    1.147047e-08    9.975720e-12    1.019895e-08    9.584775e-10    6.900000e-01    6.057081e-01    9.079892e-02
    1.647731e+01    1.796316e+02    1.066375e+00    2.421167e+08    1.155027e-08    1.068991e-11    1.030325e-08    9.660170e-10    7.000000e-01    6.057081e-01    9.737184e-02
    1.553471e+01    1.770453e+02    1.251424e+00    2.661625e+08    1.162468e-08    1.144866e-11    1.040081e-08    9.730140e-10    7.100000e-01    6.057081e-01    1.041188e-01
    1.464618e+01    1.738927e+02    1.455196e+00    2.900688e+08    1.169405e-08    1.225468e-11    1.049208e-08    9.795105e-10    7.200000e-01    6.057081e-01    1.110063e-01
    1.381435e+01    1.702844e+02    1.677652e+00    3.136839e+08    1.175873e-08    1.311088e-11    1.057750e-08    9.855465e-10    7.300000e-01    6.057081e-01    1.180043e-01
    1.303978e+01    1.663242e+02    1.918643e+00    3.369007e+08    1.181905e-08    1.402038e-11    1.065746e-08    9.911595e-10    7.400000e-01    6.057081e-01    1.250871e-01
    1.232149e+01    1.621056e+02    2.177938e+00    3.596527e+08    1.187532e-08    1.498651e-11    1.073237e-08    9.963840e-10    7.500000e-01    6.057081e-01    1.322325e-01
    1.165742e+01    1.577098e+02    2.455251e+00    3.819063e+08    1.192783e-08    1.601287e-11    1.080260e-08    1.001254e-09    7.600000e-01    6.057081e-01    1.394222e-01
    1.104479e+01    1.532047e+02    2.750268e+00    4.036535e+08    1.197688e-08    1.710327e-11    1.086848e-08    1.005800e-09    7.700000e-01    6.057081e-01    1.466411e-01
    1.048035e+01    1.486462e+02    3.062664e+00    4.249058e+08    1.202272e-08    1.826185e-11    1.093035e-08    1.010051e-09    7.800000e-01    6.057081e-01    1.538770e-01
    9.960654e+00    1.440784e+02    3.392118e+00    4.456872e+08    1.206560e-08    1.949302e-11    1.098851e-08    1.014033e-09    7.900000e-01    6.057081e-01    1.611204e-01
    9.482202e+00    1.395354e+02    3.738318e+00    4.660300e+08    1.210575e-08    2.080153e-11    1.104324e-08    1.017772e-09    8.000000e-01    6.057081e-01    1.683638e-01
    9.041552e+00    1.350429e+02    4.100974e+00    4.859706e+08    1.214340e-08    2.219246e-11    1.109482e-08    1.021289e-09    8.100000e-01    6.057081e-01    1.756015e-01
    8.635405e+00    1.306196e+02    4.479815e+00    5.055460e+08    1.217874e-08    2.367130e-11    1.114349e-08    1.024606e-09    8.200000e-01    6.057081e-01    1.828292e-01
    8.260652e+00    1.262785e+02    4.874595e+00    5.247925e+08    1.221196e-08    2.524392e-11    1.118946e-08    1.027744e-09    8.300000e-01    6.057081e-01    1.900441e-01
    7.914404e+00    1.220281e+02    5.285090e+00    5.437439e+08    1.224324e-08    2.691663e-11    1.123296e-08    1.030719e-09    8.400000e-01    6.057081e-01    1.972439e-01
    7.593997e+00    1.178735e+02    5.711100e+00    5.624302e+08    1.227275e-08    2.869622e-11    1.127418e-08    1.033548e-09    8.500000e-01    6.057081e-01    2.044274e-01
    7.297008e+00    1.138171e+02    6.152435e+00    5.808783e+08    1.230062e-08    3.058998e-11    1.131329e-08    1.036246e-09    8.600000e-01    6.057081e-01    2.115937e-01
    7.021221e+00    1.098597e+02    6.608935e+00    5.991104e+08    1.232700e-08    3.260577e-11    1.135046e-08    1.038828e-09    8.700000e-01    6.057081e-01    2.187425e-01
    6.764650e+00    1.060005e+02    7.080440e+00    6.171454e+08    1.235203e-08    3.475201e-11    1.138583e-08    1.041306e-09    8.800000e-01    6.057081e-01    2.258737e-01
    6.525484e+00    1.022379e+02    7.566820e+00    6.349987e+08    1.237581e-08    3.703779e-11    1.141955e-08    1.043692e-09    8.900000e-01    6.057081e-01    2.329877e-01
    6.302113e+00    9.856978e+01    8.067945e+00    6.526820e+08    1.239846e-08    3.947286e-11    1.145173e-08    1.045999e-09    9.000000e-01    6.057081e-01    2.400847e-01
    6.093082e+00    9.499351e+01    8.583685e+00    6.702033e+08    1.242008e-08    4.206772e-11    1.148250e-08    1.048235e-09    9.100000e-01    6.057081e-01    2.471653e-01
    5.897097e+00    9.150665e+01    9.113925e+00    6.875692e+08    1.244077e-08    4.483368e-11    1.151195e-08    1.050411e-09    9.200000e-01    6.057081e-01    2.542300e-01
    5.712984e+00    8.810656e+01    9.658560e+00    7.047835e+08    1.246062e-08    4.778291e-11    1.154019e-08    1.052535e-09    9.300000e-01    6.057081e-01    2.612794e-01
    5.539705e+00    8.479073e+01    1.021748e+01    7.218479e+08    1.247972e-08    5.092850e-11    1.156730e-08    1.054616e-09    9.400000e-01    6.057081e-01    2.683142e-01
    5.376315e+00    8.155660e+01    1.079056e+01    7.387613e+08    1.249812e-08    5.428450e-11    1.159336e-08    1.056662e-09    9.500000e-01    6.057081e-01    2.753350e-01
    5.221982e+00    7.840224e+01    1.137771e+01    7.555232e+08    1.251592e-08    5.786610e-11    1.161843e-08    1.058679e-09    9.600000e-01    6.057081e-01    2.823423e-01
    5.075957e+00    7.532558e+01    1.197881e+01    7.721307e+08    1.253317e-08    6.168960e-11    1.164260e-08    1.060675e-09    9.700000e-01    6.057081e-01    2.893369e-01
    4.937548e+00    7.232479e+01    1.259375e+01    7.885788e+08    1.254994e-08    6.577255e-11    1.166590e-08    1.062658e-09    9.800000e-01    6.057081e-01    2.963192e-01
    4.806153e+00    6.939825e+01    1.322241e+01    8.048623e+08    1.256629e-08    7.013380e-11    1.168841e-08    1.064631e-09    9.900000e-01    6.057081e-01    3.032898e-01
    4.681228e+00    6.654481e+01    1.386469e+01    8.209769e+08    1.258227e-08    7.479365e-11    1.171016e-08    1.066603e-09    1.000000e+00    6.057081e-01    3.102492e-01
    4.562271e+00    6.376314e+01    1.452045e+01    8.369151e+08    1.259795e-08    7.977390e-11    1.173120e-08    1.068578e-09    1.010000e+00    6.057081e-01    3.171979e-01
    4.448829e+00    6.105225e+01    1.518957e+01    8.526688e+08    1.261337e-08    8.509805e-11    1.175156e-08    1.070563e-09    1.020000e+00    6.057081e-01    3.241364e-01
    4.340505e+00    5.841127e+01    1.587192e+01    8.682318e+08    1.262857e-08    9.079120e-11    1.177128e-08    1.072563e-09    1.030000e+00    6.057081e-01    3.310651e-01
    4.236926e+00    5.583953e+01    1.656737e+01    8.835945e+08    1.264362e-08    9.688040e-11    1.179039e-08    1.074584e-09    1.040000e+00    6.057081e-01    3.379843e-01
    4.137756e+00    5.333639e+01    1.727576e+01    8.987485e+08    1.265855e-08    1.033946e-10    1.180890e-08    1.076630e-09    1.050000e+00    6.057081e-01    3.448946e-01
    4.042685e+00    5.090130e+01    1.799697e+01    9.136834e+08    1.267342e-08    1.103650e-10    1.182686e-08    1.078707e-09    1.060000e+00    6.057081e-01    3.517962e-01
    3.951442e+00    4.853396e+01    1.873083e+01    9.283903e+08    1.268827e-08    1.178246e-10    1.184426e-08    1.080820e-09    1.070000e+00    6.057081e-01    3.586895e-01
    3.863760e+00    4.623393e+01    1.947720e+01    9.428575e+08    1.270312e-08    1.258091e-10    1.186113e-08    1.082975e-09    1.080000e+00    6.057081e-01    3.655748e-01
    3.779410e+00    4.400097e+01    2.023588e+01    9.570750e+08    1.271805e-08    1.343566e-10    1.187748e-08    1.085177e-09    1.090000e+00    6.057081e-01    3.724525e-01
    3.698172e+00    4.183483e+01    2.100673e+01    9.710294e+08    1.273307e-08    1.435075e-10    1.189332e-08    1.087430e-09    1.100000e+00    6.057081e-01    3.793228e-01
    3.619848e+00    3.973530e+01    2.178955e+01    9.847095e+08    1.274825e-08    1.533051e-10    1.190866e-08    1.089740e-09    1.110000e+00    6.057081e-01    3.861860e-01
    3.544250e+00    3.770222e+01    2.258416e+01    9.981010e+08    1.276362e-08    1.637952e-10    1.192349e-08    1.092113e-09    1.120000e+00    6.057081e-01    3.930424e-01
    3.471204e+00    3.573537e+01    2.339036e+01    1.011190e+09    1.277922e-08    1.750265e-10    1.193781e-08    1.094553e-09    1.130000e+00    6.057081e-01    3.998923e-01
    3.400553e+00    3.383463e+01    2.420794e+01    1.023962e+09    1.279510e-08    1.870508e-10    1.195163e-08    1.097067e-09    1.140000e+00    6.057081e-01    4.067359e-01
    3.332147e+00    3.199982e+01    2.503670e+01    1.036401e+09    1.281131e-08    1.999225e-10    1.196495e-08    1.099659e-09    1.150000e+00    6.057081e-01    4.135735e-01
    3.265845e+00    3.023073e+01    2.587639e+01    1.048491e+09    1.282788e-08    2.136989e-10    1.197774e-08    1.102335e-09    1.160000e+00    6.057081e-01    4.204054e-01
    3.201512e+00    2.852713e+01    2.672678e+01    1.060212e+09    1.284486e-08    2.284407e-10    1.199001e-08    1.105100e-09    1.170000e+00    6.057081e-01    4.272317e-01
    3.139029e+00    2.688882e+01    2.758763e+01    1.071547e+09    1.286230e-08    2.442106e-10    1.200173e-08    1.107960e-09    1.180000e+00    6.057081e-01    4.340527e-01
    3.078276e+00    2.531545e+01    2.845866e+01    1.082476e+09    1.288024e-08    2.610747e-10    1.201291e-08    1.110921e-09    1.190000e+00    6.057081e-01    4.408687e-01
    3.019143e+00    2.380672e+01    2.933960e+01    1.092977e+09    1.289874e-08    2.791012e-10    1.202350e-08    1.113986e-09    1.200000e+00    6.057081e-01    4.476799e-01
    2.961527e+00    2.236221e+01    3.023017e+01    1.103029e+09    1.291783e-08    2.983608e-10    1.203351e-08    1.117163e-09    1.210000e+00    6.057081e-01    4.544866e-01
    2.905325e+00    2.098145e+01    3.113004e+01    1.112608e+09    1.293757e-08    3.189260e-10    1.204290e-08    1.120456e-09    1.220000e+00    6.057081e-01    4.612888e-01
    2.850445e+00    1.966389e+01    3.203891e+01    1.121690e+09    1.295799e-08    3.408710e-10    1.205166e-08    1.123872e-09    1.230000e+00    6.057081e-01    4.680870e-01
    2.796796e+00    1.840891e+01    3.295643e+01    1.130250e+09    1.297915e-08    3.642711e-10    1.205975e-08    1.127413e-09    1.240000e+00    6.057081e-01    4.748813e-01
    2.744295e+00    1.721579e+01    3.388224e+01    1.138264e+09    1.300110e-08    3.892021e-10    1.206716e-08    1.131084e-09    1.250000e+00    6.057081e-01    4.816720e-01
    2.692858e+00    1.608368e+01    3.481596e+01    1.145702e+09    1.302388e-08    4.157396e-10    1.207384e-08    1.134892e-09    1.260000e+00    6.057081e-01    4.884592e-01
    2.642413e+00    1.501168e+01    3.575719e+01    1.152541e+09    1.304751e-08    4.439584e-10    1.207979e-08    1.138840e-09    1.270000e+00    6.057081e-01    4.952433e-01
    2.592885e+00    1.399870e+01    3.670552e+01    1.158752e+09    1.307207e-08    4.739315e-10    1.208495e-08    1.142931e-09    1.280000e+00    6.057081e-01    5.020244e-01
    2.544212e+00    1.304361e+01    3.766051e+01    1.164310e+09    1.309757e-08    5.057290e-10    1.208931e-08    1.147169e-09    1.290000e+00    6.057081e-01    5.088027e-01
    2.496329e+00    1.214507e+01    3.862169e+01    1.169190e+09    1.312406e-08    5.394185e-10    1.209283e-08    1.151557e-09    1.300000e+00    6.057081e-01    5.155786e-01
    2.449185e+00    1.130168e+01    3.958860e+01    1.173370e+09    1.315155e-08    5.750610e-10    1.209548e-08    1.156097e-09    1.310000e+00    6.057081e-01    5.223522e-01
    2.402730e+00    1.051185e+01    4.056072e+01    1.176827e+09    1.318009e-08    6.127130e-10    1.209723e-08    1.160790e-09    1.320000e+00    6.057081e-01    5.291237e-01
    2.356922e+00    9.773899e+00    4.153755e+01    1.179543e+09    1.320969e-08    6.524235e-10    1.209806e-08    1.165638e-09    1.330000e+00    6.057081e-01    5.358935e-01
    2.311725e+00    9.085990e+00    4.251855e+01    1.181504e+09    1.324036e-08    6.942330e-10    1.209794e-08    1.170641e-09    1.340000e+00    6.057081e-01    5.426616e-01
    2.267114e+00    8.446200e+00    4.350319e+01    1.182700e+09    1.327211e-08    7.381735e-10    1.209684e-08    1.175798e-09    1.350000e+00    6.057081e-01    5.494284e-01
    2.223071e+00    7.852476e+00    4.449090e+01    1.183126e+09    1.330497e-08    7.842660e-10    1.209474e-08    1.181110e-09    1.360000e+00    6.057081e-01    5.561942e-01
    2.179583e+00    7.302661e+00    4.548113e+01    1.182782e+09    1.333890e-08    8.325205e-10    1.209164e-08    1.186573e-09    1.370000e+00    6.057081e-01    5.629590e-01
    2.136648e+00    6.794544e+00    4.647331e+01    1.181676e+09    1.337391e-08    8.829350e-10    1.208750e-08    1.192186e-09    1.380000e+00    6.057081e-01    5.697232e-01
    2.094268e+00    6.325830e+00    4.746688e+01    1.179820e+09    1.340997e-08    9.354935e-10    1.208234e-08    1.197944e-09    1.390000e+00    6.057081e-01    5.764870e-01
    2.052458e+00    5.894206e+00    4.846130e+01    1.177233e+09    1.344705e-08    9.901690e-10    1.207613e-08    1.203844e-09    1.400000e+00    6.057081e-01    5.832506e-01
    2.011231e+00    5.497328e+00    4.945600e+01    1.173942e+09    1.348512e-08    1.046919e-09    1.206888e-08    1.209882e-09    1.410000e+00    6.057081e-01    5.900142e-01
    1.970613e+00    5.132871e+00    5.045045e+01    1.169976e+09    1.352413e-08    1.105688e-09    1.206060e-08    1.216052e-09    1.420000e+00    6.057081e-01    5.967782e-01
    1.930625e+00    4.798533e+00    5.144420e+01    1.165374e+09    1.356405e-08    1.166408e-09    1.205131e-08    1.222348e-09    1.430000e+00    6.057081e-01    6.035427e-01
