# sky130 nfet_01v8 gm/ID Processed Lookup Table
# Corner: ff
# Temperature: -40C
# W = 2.0 um
# L = 0.18 um (180 nm)
# Columns: gm/id [1/V]  gm/gds [V/V]  id/W [A/m]  ft [Hz]  Cgg/W [F/m]  Cgd/W [F/m]  Cgs/W [F/m]  Cdb/W [F/m]  vgs [V]  vth [V]  vdsat [V]
# vdsat = BSIM4 saturation voltage (|VDS|_sat, positive); use for headroom / saturation / cascode-bias calculations
#           gm/id          gm/gds            id/W              ft           Cgg/W           Cgd/W           Cgs/W           Cdb/W             vgs             vth           vdsat
    3.359134e+01    2.492135e+01    8.330065e-05    1.104967e+06    4.030384e-10    2.182798e-13    4.046608e-11    5.535235e-12    2.800000e-01    6.966663e-01    3.245327e-02
    3.359089e+01    2.502483e+01    1.165572e-04    1.538733e+06    4.049651e-10    2.342741e-13    4.455635e-11    6.042750e-12    2.900000e-01    6.966663e-01    3.245344e-02
    3.357392e+01    2.512440e+01    1.630764e-04    2.139715e+06    4.072465e-10    2.512577e-13    4.906410e-11    6.594425e-12    3.000000e-01    6.966663e-01    3.245367e-02
    3.354221e+01    2.521915e+01    2.281063e-04    2.970695e+06    4.099124e-10    2.692385e-13    5.402575e-11    7.193290e-12    3.100000e-01    6.966663e-01    3.245399e-02
    3.349655e+01    2.530793e+01    3.189445e-04    4.117100e+06    4.129942e-10    2.882129e-13    5.947920e-11    7.842390e-12    3.200000e-01    6.966663e-01    3.245445e-02
    3.343692e+01    2.538943e+01    4.457224e-04    5.694701e+06    4.165239e-10    3.081629e-13    6.546360e-11    8.544765e-12    3.300000e-01    6.966663e-01    3.245508e-02
    3.336269e+01    2.546211e+01    6.224770e-04    7.859637e+06    4.205348e-10    3.290547e-13    7.201885e-11    9.303385e-12    3.400000e-01    6.966663e-01    3.245596e-02
    3.327264e+01    2.552422e+01    8.686125e-04    1.082139e+07    4.250602e-10    3.508356e-13    7.918495e-11    1.012109e-11    3.500000e-01    6.966663e-01    3.245719e-02
    3.316515e+01    2.557372e+01    1.210879e-03    1.485935e+07    4.301331e-10    3.734316e-13    8.700145e-11    1.100052e-11    3.600000e-01    6.966663e-01    3.245890e-02
    3.303812e+01    2.560833e+01    1.686035e-03    2.034367e+07    4.357857e-10    3.967453e-13    9.550635e-11    1.194403e-11    3.700000e-01    6.966663e-01    3.246128e-02
    3.288911e+01    2.562544e+01    2.344414e-03    2.776111e+07    4.420484e-10    4.206540e-13    1.047355e-10    1.295363e-11    3.800000e-01    6.966663e-01    3.246457e-02
    3.271532e+01    2.562219e+01    3.254633e-03    3.774647e+07    4.489489e-10    4.450076e-13    1.147211e-10    1.403084e-11    3.900000e-01    6.966663e-01    3.246911e-02
    3.251368e+01    2.559547e+01    4.509783e-03    5.111993e+07    4.565115e-10    4.696280e-13    1.254906e-10    1.517665e-11    4.000000e-01    6.966663e-01    3.247538e-02
    3.228088e+01    2.554192e+01    6.235440e-03    6.892998e+07    4.647555e-10    4.943086e-13    1.370659e-10    1.639139e-11    4.100000e-01    6.966663e-01    3.248400e-02
    3.201352e+01    2.545809e+01    8.599905e-03    9.250147e+07    4.736948e-10    5.188155e-13    1.494612e-10    1.767465e-11    4.200000e-01    6.966663e-01    3.249580e-02
    3.170818e+01    2.534049e+01    1.182709e-02    1.234866e+08    4.833364e-10    5.428890e-13    1.626824e-10    1.902517e-11    4.300000e-01    6.966663e-01    3.251191e-02
    3.136164e+01    2.518581e+01    1.621242e-02    1.639161e+08    4.936796e-10    5.662470e-13    1.767258e-10    2.044083e-11    4.400000e-01    6.966663e-01    3.253378e-02
    3.097103e+01    2.499106e+01    2.214205e-02    2.162456e+08    5.047150e-10    5.885890e-13    1.915770e-10    2.191853e-11    4.500000e-01    6.966663e-01    3.256334e-02
    3.053416e+01    2.475395e+01    3.011562e-02    2.833945e+08    5.164240e-10    6.096020e-13    2.072101e-10    2.345422e-11    4.600000e-01    6.966663e-01    3.260306e-02
    3.004970e+01    2.447303e+01    4.077230e-02    3.687671e+08    5.287780e-10    6.289670e-13    2.235877e-10    2.504287e-11    4.700000e-01    6.966663e-01    3.265609e-02
    2.951748e+01    2.414808e+01    5.492005e-02    4.762553e+08    5.417395e-10    6.463665e-13    2.406600e-10    2.667853e-11    4.800000e-01    6.966663e-01    3.272638e-02
    2.893880e+01    2.378041e+01    7.356705e-02    6.102212e+08    5.552605e-10    6.614920e-13    2.583659e-10    2.835441e-11    4.900000e-01    6.966663e-01    3.281885e-02
    2.831651e+01    2.337304e+01    9.795505e-02    7.754569e+08    5.692840e-10    6.740545e-13    2.766331e-10    3.006290e-11    5.000000e-01    6.966663e-01    3.293949e-02
    2.765519e+01    2.293078e+01    1.295928e-01    9.771358e+08    5.837445e-10    6.837890e-13    2.953797e-10    3.179581e-11    5.100000e-01    6.966663e-01    3.309548e-02
    2.696106e+01    2.246033e+01    1.702900e-01    1.220763e+09    5.985700e-10    6.904645e-13    3.145153e-10    3.354447e-11    5.200000e-01    6.966663e-01    3.329531e-02
    2.624176e+01    2.196996e+01    2.221904e-01    1.512150e+09    6.136820e-10    6.938905e-13    3.339433e-10    3.529990e-11    5.300000e-01    6.966663e-01    3.354880e-02
    2.550597e+01    2.146921e+01    2.878050e-01    1.857421e+09    6.289990e-10    6.939200e-13    3.535621e-10    3.705304e-11    5.400000e-01    6.966663e-01    3.386714e-02
    2.476298e+01    2.096844e+01    3.700470e-01    2.263081e+09    6.444360e-10    6.904540e-13    3.732686e-10    3.879488e-11    5.500000e-01    6.966663e-01    3.426285e-02
    2.402196e+01    2.047819e+01    4.722693e-01    2.736119e+09    6.599080e-10    6.834430e-13    3.929589e-10    4.051673e-11    5.600000e-01    6.966663e-01    3.474970e-02
    2.329146e+01    2.000856e+01    5.983070e-01    3.284155e+09    6.753320e-10    6.728860e-13    4.125318e-10    4.221030e-11    5.700000e-01    6.966663e-01    3.534257e-02
    2.257875e+01    1.956873e+01    7.525280e-01    3.915608e+09    6.906270e-10    6.588295e-13    4.318902e-10    4.386792e-11    5.800000e-01    6.966663e-01    3.605722e-02
    2.188948e+01    1.916643e+01    9.398855e-01    4.639804e+09    7.057175e-10    6.413630e-13    4.509431e-10    4.548266e-11    5.900000e-01    6.966663e-01    3.691011e-02
    2.122725e+01    1.880762e+01    1.165981e+00    5.467034e+09    7.205325e-10    6.206140e-13    4.696068e-10    4.704840e-11    6.000000e-01    6.966663e-01    3.791798e-02
    2.059358e+01    1.849629e+01    1.437123e+00    6.408450e+09    7.350090e-10    5.967420e-13    4.878068e-10    4.855993e-11    6.100000e-01    6.966663e-01    3.909750e-02
    1.998791e+01    1.823442e+01    1.760377e+00    7.475808e+09    7.490915e-10    5.699320e-13    5.054780e-10    5.001295e-11    6.200000e-01    6.966663e-01    4.046474e-02
    1.940789e+01    1.802201e+01    2.143600e+00    8.681003e+09    7.627325e-10    5.403875e-13    5.225655e-10    5.140415e-11    6.300000e-01    6.966663e-01    4.203455e-02
    1.884966e+01    1.785716e+01    2.595446e+00    1.003538e+10    7.758925e-10    5.083240e-13    5.390245e-10    5.273105e-11    6.400000e-01    6.966663e-01    4.381985e-02
    1.830832e+01    1.773628e+01    3.125319e+00    1.154885e+10    7.885410e-10    4.739616e-13    5.548205e-10    5.399210e-11    6.500000e-01    6.966663e-01    4.583089e-02
    1.777846e+01    1.765434e+01    3.743283e+00    1.322885e+10    8.006540e-10    4.375200e-13    5.699290e-10    5.518660e-11    6.600000e-01    6.966663e-01    4.807446e-02
    1.725460e+01    1.760506e+01    4.459896e+00    1.507919e+10    8.122160e-10    3.992122e-13    5.843340e-10    5.631455e-11    6.700000e-01    6.966663e-01    5.055318e-02
    1.673179e+01    1.758136e+01    5.285980e+00    1.709907e+10    8.232195e-10    3.592404e-13    5.980285e-10    5.737660e-11    6.800000e-01    6.966663e-01    5.326495e-02
    1.620596e+01    1.757552e+01    6.232335e+00    1.928219e+10    8.336610e-10    3.177921e-13    6.110130e-10    5.837395e-11    6.900000e-01    6.966663e-01    5.620259e-02
    1.567432e+01    1.757973e+01    7.309375e+00    2.161630e+10    8.435440e-10    2.750376e-13    6.232940e-10    5.930830e-11    7.000000e-01    6.966663e-01    5.935382e-02
    1.513544e+01    1.758640e+01    8.526790e+00    2.408323e+10    8.528765e-10    2.311275e-13    6.348845e-10    6.018180e-11    7.100000e-01    6.966663e-01    6.270156e-02
    1.458940e+01    1.758853e+01    9.893155e+00    2.665943e+10    8.616710e-10    1.861917e-13    6.458020e-10    6.099680e-11    7.200000e-01    6.966663e-01    6.622454e-02
    1.403759e+01    1.758002e+01    1.141561e+01    2.931709e+10    8.699430e-10    1.403384e-13    6.560670e-10    6.175595e-11    7.300000e-01    6.966663e-01    6.989820e-02
    1.348249e+01    1.755590e+01    1.309963e+01    3.202567e+10    8.777095e-10    9.365430e-14    6.657045e-10    6.246200e-11    7.400000e-01    6.966663e-01    7.369578e-02
    1.292739e+01    1.751253e+01    1.494881e+01    3.475349e+10    8.849920e-10    4.620481e-14    6.747410e-10    6.311790e-11    7.500000e-01    6.966663e-01    7.758942e-02
    1.237604e+01    1.744750e+01    1.696486e+01    3.746960e+10    8.918110e-10    1.965515e-15    6.832040e-10    6.372660e-11    7.600000e-01    6.966663e-01    8.155136e-02
    1.183225e+01    1.735971e+01    1.914760e+01    4.014524e+10    8.981890e-10    5.083175e-14    6.911230e-10    6.429100e-11    7.700000e-01    6.966663e-01    8.555488e-02
    1.129971e+01    1.724914e+01    2.149513e+01    4.275500e+10    9.041500e-10    1.003877e-13    6.985270e-10    6.481405e-11    7.800000e-01    6.966663e-01    8.957511e-02
    1.078170e+01    1.711669e+01    2.400399e+01    4.527773e+10    9.097170e-10    1.506446e-13    7.054465e-10    6.529850e-11    7.900000e-01    6.966663e-01    9.358964e-02
    1.028100e+01    1.696394e+01    2.666944e+01    4.769683e+10    9.149130e-10    2.016299e-13    7.119100e-10    6.574715e-11    8.000000e-01    6.966663e-01    9.757884e-02
    9.799767e+00    1.679298e+01    2.948569e+01    5.000028e+10    9.197605e-10    2.533861e-13    7.179465e-10    6.616270e-11    8.100000e-01    6.966663e-01    1.015260e-01
    9.339578e+00    1.660616e+01    3.244622e+01    5.218034e+10    9.242820e-10    3.059696e-13    7.235835e-10    6.654755e-11    8.200000e-01    6.966663e-01    1.054175e-01
    8.901429e+00    1.640598e+01    3.554396e+01    5.423305e+10    9.284995e-10    3.594491e-13    7.288485e-10    6.690420e-11    8.300000e-01    6.966663e-01    1.092423e-01
    8.485811e+00    1.619491e+01    3.877158e+01    5.615770e+10    9.324330e-10    4.139051e-13    7.337660e-10    6.723480e-11    8.400000e-01    6.966663e-01    1.129919e-01
    8.092769e+00    1.597530e+01    4.212165e+01    5.795614e+10    9.361020e-10    4.694290e-13    7.383615e-10    6.754155e-11    8.500000e-01    6.966663e-01    1.166603e-01
    7.722007e+00    1.574933e+01    4.558676e+01    5.963211e+10    9.395260e-10    5.261220e-13    7.426575e-10    6.782640e-11    8.600000e-01    6.966663e-01    1.202433e-01
    7.372944e+00    1.551896e+01    4.915970e+01    6.119084e+10    9.427225e-10    5.840935e-13    7.466760e-10    6.809120e-11    8.700000e-01    6.966663e-01    1.237383e-01
    7.044799e+00    1.528591e+01    5.283350e+01    6.263846e+10    9.457080e-10    6.434630e-13    7.504375e-10    6.833765e-11    8.800000e-01    6.966663e-01    1.271443e-01
    6.736643e+00    1.505168e+01    5.660155e+01    6.398164e+10    9.484985e-10    7.043575e-13    7.539610e-10    6.856735e-11    8.900000e-01    6.966663e-01    1.304613e-01
    6.447455e+00    1.481751e+01    6.045760e+01    6.522728e+10    9.511085e-10    7.669105e-13    7.572645e-10    6.878175e-11    9.000000e-01    6.966663e-01    1.336902e-01
    6.176184e+00    1.458444e+01    6.439560e+01    6.638232e+10    9.535515e-10    8.312650e-13    7.603650e-10    6.898225e-11    9.100000e-01    6.966663e-01    1.368325e-01
    5.921732e+00    1.435332e+01    6.841020e+01    6.745344e+10    9.558410e-10    8.975695e-13    7.632780e-10    6.917010e-11    9.200000e-01    6.966663e-01    1.398903e-01
    5.683040e+00    1.412484e+01    7.249610e+01    6.844712e+10    9.579885e-10    9.659810e-13    7.660175e-10    6.934640e-11    9.300000e-01    6.966663e-01    1.428662e-01
    5.459051e+00    1.389952e+01    7.664860e+01    6.936942e+10    9.600050e-10    1.036663e-12    7.685965e-10    6.951225e-11    9.400000e-01    6.966663e-01    1.457629e-01
    5.248764e+00    1.367777e+01    8.086325e+01    7.022605e+10    9.619005e-10    1.109787e-12    7.710285e-10    6.966860e-11    9.500000e-01    6.966663e-01    1.485834e-01
    5.051220e+00    1.345989e+01    8.513595e+01    7.102224e+10    9.636850e-10    1.185531e-12    7.733235e-10    6.981635e-11    9.600000e-01    6.966663e-01    1.513307e-01
    4.865517e+00    1.324608e+01    8.946285e+01    7.176277e+10    9.653675e-10    1.264083e-12    7.754930e-10    6.995630e-11    9.700000e-01    6.966663e-01    1.540079e-01
    4.690804e+00    1.303650e+01    9.384045e+01    7.245214e+10    9.669550e-10    1.345635e-12    7.775460e-10    7.008925e-11    9.800000e-01    6.966663e-01    1.566181e-01
    4.526287e+00    1.283122e+01    9.826555e+01    7.309428e+10    9.684565e-10    1.430392e-12    7.794920e-10    7.021580e-11    9.900000e-01    6.966663e-01    1.591644e-01
    4.371234e+00    1.263026e+01    1.027351e+02    7.369295e+10    9.698775e-10    1.518568e-12    7.813380e-10    7.033665e-11    1.000000e+00    6.966663e-01    1.616497e-01
    4.224958e+00    1.243363e+01    1.072463e+02    7.425138e+10    9.712255e-10    1.610381e-12    7.830930e-10    7.045230e-11    1.010000e+00    6.966663e-01    1.640769e-01
    4.086831e+00    1.224129e+01    1.117965e+02    7.477265e+10    9.725055e-10    1.706066e-12    7.847625e-10    7.056340e-11    1.020000e+00    6.966663e-01    1.664489e-01
    3.956269e+00    1.205319e+01    1.163833e+02    7.525943e+10    9.737235e-10    1.805865e-12    7.863530e-10    7.067030e-11    1.030000e+00    6.966663e-01    1.687685e-01
    3.832732e+00    1.186923e+01    1.210046e+02    7.571424e+10    9.748840e-10    1.910032e-12    7.878710e-10    7.077350e-11    1.040000e+00    6.966663e-01    1.710381e-01
    3.715730e+00    1.168936e+01    1.256582e+02    7.613929e+10    9.759920e-10    2.018833e-12    7.893215e-10    7.087345e-11    1.050000e+00    6.966663e-01    1.732603e-01
    3.604803e+00    1.151346e+01    1.303422e+02    7.653658e+10    9.770520e-10    2.132550e-12    7.907085e-10    7.097045e-11    1.060000e+00    6.966663e-01    1.754374e-01
    3.499535e+00    1.134143e+01    1.350548e+02    7.690807e+10    9.780670e-10    2.251474e-12    7.920375e-10    7.106490e-11    1.070000e+00    6.966663e-01    1.775719e-01
    3.399539e+00    1.117317e+01    1.397943e+02    7.725532e+10    9.790415e-10    2.375914e-12    7.933120e-10    7.115715e-11    1.080000e+00    6.966663e-01    1.796657e-01
    3.304461e+00    1.100857e+01    1.445590e+02    7.757989e+10    9.799790e-10    2.506195e-12    7.945355e-10    7.124740e-11    1.090000e+00    6.966663e-01    1.817211e-01
    3.213974e+00    1.084752e+01    1.493476e+02    7.788325e+10    9.808815e-10    2.642658e-12    7.957120e-10    7.133600e-11    1.100000e+00    6.966663e-01    1.837399e-01
    3.127776e+00    1.068993e+01    1.541585e+02    7.816663e+10    9.817525e-10    2.785661e-12    7.968435e-10    7.142320e-11    1.110000e+00    6.966663e-01    1.857240e-01
    3.045591e+00    1.053567e+01    1.589906e+02    7.843116e+10    9.825950e-10    2.935584e-12    7.979340e-10    7.150920e-11    1.120000e+00    6.966663e-01    1.876752e-01
    2.967163e+00    1.038465e+01    1.638426e+02    7.867798e+10    9.834110e-10    3.092825e-12    7.989850e-10    7.159430e-11    1.130000e+00    6.966663e-01    1.895952e-01
    2.892257e+00    1.023678e+01    1.687132e+02    7.890806e+10    9.842030e-10    3.257804e-12    7.999995e-10    7.167860e-11    1.140000e+00    6.966663e-01    1.914855e-01
    2.820654e+00    1.009195e+01    1.736014e+02    7.912230e+10    9.849730e-10    3.430965e-12    8.009790e-10    7.176245e-11    1.150000e+00    6.966663e-01    1.933477e-01
    2.752153e+00    9.950060e+00    1.785062e+02    7.932155e+10    9.857230e-10    3.612776e-12    8.019260e-10    7.184590e-11    1.160000e+00    6.966663e-01    1.951831e-01
    2.686568e+00    9.811034e+00    1.834266e+02    7.950659e+10    9.864550e-10    3.803730e-12    8.028415e-10    7.192925e-11    1.170000e+00    6.966663e-01    1.969933e-01
    2.623727e+00    9.674773e+00    1.883617e+02    7.967814e+10    9.871705e-10    4.004349e-12    8.037280e-10    7.201255e-11    1.180000e+00    6.966663e-01    1.987794e-01
    2.563469e+00    9.541192e+00    1.933106e+02    7.983688e+10    9.878710e-10    4.215184e-12    8.045860e-10    7.209610e-11    1.190000e+00    6.966663e-01    2.005427e-01
    2.505647e+00    9.410216e+00    1.982724e+02    7.998336e+10    9.885590e-10    4.436817e-12    8.054170e-10    7.217995e-11    1.200000e+00    6.966663e-01    2.022844e-01
    2.450124e+00    9.281771e+00    2.032463e+02    8.011827e+10    9.892345e-10    4.669862e-12    8.062225e-10    7.226435e-11    1.210000e+00    6.966663e-01    2.040055e-01
    2.396771e+00    9.155773e+00    2.082317e+02    8.024201e+10    9.899005e-10    4.914969e-12    8.070035e-10    7.234940e-11    1.220000e+00    6.966663e-01    2.057072e-01
    2.345469e+00    9.032147e+00    2.132278e+02    8.035521e+10    9.905570e-10    5.172825e-12    8.077600e-10    7.243525e-11    1.230000e+00    6.966663e-01    2.073904e-01
    2.296106e+00    8.910829e+00    2.182338e+02    8.045818e+10    9.912060e-10    5.444150e-12    8.084935e-10    7.252205e-11    1.240000e+00    6.966663e-01    2.090561e-01
    2.248583e+00    8.791759e+00    2.232493e+02    8.055152e+10    9.918485e-10    5.729710e-12    8.092045e-10    7.261000e-11    1.250000e+00    6.966663e-01    2.107051e-01
    2.202798e+00    8.674854e+00    2.282735e+02    8.063549e+10    9.924855e-10    6.030320e-12    8.098935e-10    7.269915e-11    1.260000e+00    6.966663e-01    2.123384e-01
    2.158666e+00    8.560069e+00    2.333059e+02    8.071053e+10    9.931185e-10    6.346830e-12    8.105610e-10    7.278975e-11    1.270000e+00    6.966663e-01    2.139568e-01
    2.116101e+00    8.447339e+00    2.383459e+02    8.077704e+10    9.937480e-10    6.680140e-12    8.112070e-10    7.288190e-11    1.280000e+00    6.966663e-01    2.155610e-01
    2.075025e+00    8.336611e+00    2.433930e+02    8.083526e+10    9.943760e-10    7.031195e-12    8.118325e-10    7.297575e-11    1.290000e+00    6.966663e-01    2.171518e-01
    2.035362e+00    8.227828e+00    2.484467e+02    8.088554e+10    9.950025e-10    7.401010e-12    8.124375e-10    7.307140e-11    1.300000e+00    6.966663e-01    2.187300e-01
    1.997044e+00    8.120921e+00    2.535065e+02    8.092803e+10    9.956295e-10    7.790635e-12    8.130220e-10    7.316910e-11    1.310000e+00    6.966663e-01    2.202961e-01
    1.960009e+00    8.015864e+00    2.585718e+02    8.096325e+10    9.962570e-10    8.201190e-12    8.135860e-10    7.326895e-11    1.320000e+00    6.966663e-01    2.218508e-01
    1.924194e+00    7.912601e+00    2.636423e+02    8.099127e+10    9.968870e-10    8.633845e-12    8.141295e-10    7.337105e-11    1.330000e+00    6.966663e-01    2.233948e-01
    1.889541e+00    7.811068e+00    2.687176e+02    8.101231e+10    9.975200e-10    9.089835e-12    8.146530e-10    7.347570e-11    1.340000e+00    6.966663e-01    2.249287e-01
    1.855997e+00    7.711242e+00    2.737973e+02    8.102658e+10    9.981575e-10    9.570465e-12    8.151555e-10    7.358290e-11    1.350000e+00    6.966663e-01    2.264529e-01
    1.823514e+00    7.613067e+00    2.788809e+02    8.103441e+10    9.987995e-10    1.007710e-11    8.156370e-10    7.369295e-11    1.360000e+00    6.966663e-01    2.279681e-01
