# sky130 nfet_01v8 gm/ID Processed Lookup Table
# Corner: tt
# Temperature: 25C
# W = 2.0 um
# L = 1 um (1000 nm)
# Columns: gm/id [1/V]  gm/gds [V/V]  id/W [A/m]  ft [Hz]  Cgg/W [F/m]  Cgd/W [F/m]  Cgs/W [F/m]  Cdb/W [F/m]  vgs [V]  vth [V]  vdsat [V]
# vdsat = BSIM4 saturation voltage (|VDS|_sat, positive); use for headroom / saturation / cascode-bias calculations
#           gm/id          gm/gds            id/W              ft           Cgg/W           Cgd/W           Cgs/W           Cdb/W             vgs             vth           vdsat
    2.797044e+01    1.522564e+02    5.661640e-05    1.181741e+05    2.132747e-09    1.767223e-13    5.531045e-10    7.542775e-11    2.600000e-01    6.051376e-01    4.212087e-02
    2.796719e+01    1.520427e+02    7.488845e-05    1.539370e+05    2.165413e-09    1.922067e-13    6.052630e-10    8.126190e-11    2.700000e-01    6.051376e-01    4.212304e-02
    2.794912e+01    1.517994e+02    9.904685e-05    2.001268e+05    2.201526e-09    2.090996e-13    6.615165e-10    8.746245e-11    2.800000e-01    6.051376e-01    4.212590e-02
    2.791773e+01    1.515232e+02    1.309660e-04    2.596454e+05    2.241188e-09    2.275219e-13    7.219900e-10    9.403440e-11    2.900000e-01    6.051376e-01    4.212969e-02
    2.787389e+01    1.512104e+02    1.731064e-04    3.361574e+05    2.284483e-09    2.476030e-13    7.867820e-10    1.009798e-10    3.000000e-01    6.051376e-01    4.213469e-02
    2.781800e+01    1.508571e+02    2.286919e-04    4.342770e+05    2.331471e-09    2.694808e-13    8.559605e-10    1.082977e-10    3.100000e-01    6.051376e-01    4.214128e-02
    2.775011e+01    1.504593e+02    3.019393e-04    5.597961e+05    2.382180e-09    2.933018e-13    9.295555e-10    1.159835e-10    3.200000e-01    6.051376e-01    4.214996e-02
    2.766993e+01    1.500128e+02    3.983523e-04    7.199608e+05    2.436614e-09    3.192221e-13    1.007561e-09    1.240293e-10    3.300000e-01    6.051376e-01    4.216139e-02
    2.757699e+01    1.495140e+02    5.250965e-04    9.238073e+05    2.494737e-09    3.474068e-13    1.089926e-09    1.324232e-10    3.400000e-01    6.051376e-01    4.217640e-02
    2.747062e+01    1.489592e+02    6.914785e-04    1.182563e+06    2.556482e-09    3.780309e-13    1.176558e-09    1.411498e-10    3.500000e-01    6.051376e-01    4.219609e-02
    2.735013e+01    1.483458e+02    9.095480e-04    1.510130e+06    2.621747e-09    4.112793e-13    1.267319e-09    1.501895e-10    3.600000e-01    6.051376e-01    4.222187e-02
    2.721476e+01    1.476720e+02    1.194861e-03    1.923651e+06    2.690392e-09    4.473470e-13    1.362026e-09    1.595192e-10    3.700000e-01    6.051376e-01    4.225555e-02
    2.706376e+01    1.469374e+02    1.567427e-03    2.444187e+06    2.762239e-09    4.864398e-13    1.460448e-09    1.691122e-10    3.800000e-01    6.051376e-01    4.229946e-02
    2.689654e+01    1.461435e+02    2.052895e-03    3.097502e+06    2.837080e-09    5.287740e-13    1.562318e-09    1.789387e-10    3.900000e-01    6.051376e-01    4.235655e-02
    2.671271e+01    1.452950e+02    2.684007e-03    3.915007e+06    2.914669e-09    5.745775e-13    1.667321e-09    1.889656e-10    4.000000e-01    6.051376e-01    4.243054e-02
    2.651211e+01    1.443989e+02    3.502402e-03    4.934830e+06    2.994733e-09    6.240900e-13    1.775112e-09    1.991579e-10    4.100000e-01    6.051376e-01    4.252613e-02
    2.629497e+01    1.434668e+02    4.560800e-03    6.203116e+06    3.076975e-09    6.775635e-13    1.885312e-09    2.094781e-10    4.200000e-01    6.051376e-01    4.264914e-02
    2.606195e+01    1.425142e+02    5.925680e-03    7.775546e+06    3.161071e-09    7.352610e-13    1.997517e-09    2.198875e-10    4.300000e-01    6.051376e-01    4.280680e-02
    2.581417e+01    1.415619e+02    7.680525e-03    9.719170e+06    3.246684e-09    7.974615e-13    2.111301e-09    2.303466e-10    4.400000e-01    6.051376e-01    4.300792e-02
    2.555324e+01    1.406357e+02    9.929745e-03    1.211459e+07    3.333461e-09    8.644560e-13    2.226228e-09    2.408155e-10    4.500000e-01    6.051376e-01    4.326314e-02
    2.528117e+01    1.397660e+02    1.280346e-02    1.505864e+07    3.421047e-09    9.365505e-13    2.341854e-09    2.512549e-10    4.600000e-01    6.051376e-01    4.358519e-02
    2.500031e+01    1.389872e+02    1.646322e-02    1.866753e+07    3.509083e-09    1.014067e-12    2.457735e-09    2.616262e-10    4.700000e-01    6.051376e-01    4.398905e-02
    2.471302e+01    1.383360e+02    2.110901e-02    2.308064e+07    3.597213e-09    1.097345e-12    2.573434e-09    2.718924e-10    4.800000e-01    6.051376e-01    4.449207e-02
    2.442147e+01    1.378493e+02    2.698755e-02    2.846471e+07    3.685094e-09    1.186738e-12    2.688527e-09    2.820184e-10    4.900000e-01    6.051376e-01    4.511405e-02
    2.412713e+01    1.375600e+02    3.440219e-02    3.501829e+07    3.772393e-09    1.282623e-12    2.802610e-09    2.919715e-10    5.000000e-01    6.051376e-01    4.587709e-02
    2.383049e+01    1.374943e+02    4.372459e-02    4.297611e+07    3.858796e-09    1.385394e-12    2.915299e-09    3.017218e-10    5.100000e-01    6.051376e-01    4.680540e-02
    2.353064e+01    1.376668e+02    5.540775e-02    5.261220e+07    3.944010e-09    1.495467e-12    3.026245e-09    3.112425e-10    5.200000e-01    6.051376e-01    4.792481e-02
    2.322498e+01    1.380760e+02    7.000060e-02    6.424107e+07    4.027768e-09    1.613282e-12    3.135121e-09    3.205100e-10    5.300000e-01    6.051376e-01    4.926223e-02
    2.290926e+01    1.387015e+02    8.816285e-02    7.821557e+07    4.109827e-09    1.739303e-12    3.241641e-09    3.295037e-10    5.400000e-01    6.051376e-01    5.084476e-02
    2.257786e+01    1.395016e+02    1.106793e-01    9.492014e+07    4.189973e-09    1.874023e-12    3.345550e-09    3.382070e-10    5.500000e-01    6.051376e-01    5.269881e-02
    2.222428e+01    1.404134e+02    1.384722e-01    1.147583e+08    4.268019e-09    2.017960e-12    3.446631e-09    3.466062e-10    5.600000e-01    6.051376e-01    5.484903e-02
    2.184187e+01    1.413554e+02    1.726086e-01    1.381344e+08    4.343809e-09    2.171667e-12    3.544703e-09    3.546911e-10    5.700000e-01    6.051376e-01    5.731723e-02
    2.142471e+01    1.422321e+02    2.143029e-01    1.654302e+08    4.417213e-09    2.335728e-12    3.639618e-09    3.624545e-10    5.800000e-01    6.051376e-01    6.012132e-02
    2.096836e+01    1.429408e+02    2.649099e-01    1.969778e+08    4.488130e-09    2.510764e-12    3.731266e-09    3.698922e-10    5.900000e-01    6.051376e-01    6.327451e-02
    2.047051e+01    1.433798e+02    3.259093e-01    2.330320e+08    4.556485e-09    2.697436e-12    3.819566e-09    3.770028e-10    6.000000e-01    6.051376e-01    6.678455e-02
    1.993125e+01    1.434562e+02    3.988804e-01    2.737449e+08    4.622227e-09    2.896448e-12    3.904469e-09    3.837872e-10    6.100000e-01    6.051376e-01    7.065342e-02
    1.935306e+01    1.430936e+02    4.854683e-01    3.191468e+08    4.685328e-09    3.108545e-12    3.985952e-09    3.902487e-10    6.200000e-01    6.051376e-01    7.487716e-02
    1.874055e+01    1.422368e+02    5.873425e-01    3.691358e+08    4.745781e-09    3.334528e-12    4.064019e-09    3.963925e-10    6.300000e-01    6.051376e-01    7.944615e-02
    1.809999e+01    1.408559e+02    7.061525e-01    4.234776e+08    4.803597e-09    3.575245e-12    4.138696e-09    4.022253e-10    6.400000e-01    6.051376e-01    8.434554e-02
    1.743871e+01    1.389458e+02    8.434820e-01    4.818157e+08    4.858804e-09    3.831606e-12    4.210029e-09    4.077556e-10    6.500000e-01    6.051376e-01    8.955603e-02
    1.676451e+01    1.365250e+02    1.000807e+00    5.436911e+08    4.911445e-09    4.104582e-12    4.278079e-09    4.129928e-10    6.600000e-01    6.051376e-01    9.505469e-02
    1.608515e+01    1.336319e+02    1.179460e+00    6.085682e+08    4.961572e-09    4.395207e-12    4.342923e-09    4.179473e-10    6.700000e-01    6.051376e-01    1.008159e-01
    1.540796e+01    1.303202e+02    1.380599e+00    6.758653e+08    5.009250e-09    4.704595e-12    4.404651e-09    4.226302e-10    6.800000e-01    6.051376e-01    1.068125e-01
    1.473945e+01    1.266534e+02    1.605195e+00    7.449827e+08    5.054555e-09    5.033930e-12    4.463360e-09    4.270534e-10    6.900000e-01    6.051376e-01    1.130164e-01
    1.408524e+01    1.227007e+02    1.854017e+00    8.153333e+08    5.097565e-09    5.384485e-12    4.519156e-09    4.312286e-10    7.000000e-01    6.051376e-01    1.193995e-01
    1.344990e+01    1.185318e+02    2.127639e+00    8.863638e+08    5.138365e-09    5.757625e-12    4.572151e-09    4.351683e-10    7.100000e-01    6.051376e-01    1.259348e-01
    1.283699e+01    1.142139e+02    2.426445e+00    9.575726e+08    5.177045e-09    6.154810e-12    4.622460e-09    4.388848e-10    7.200000e-01    6.051376e-01    1.325962e-01
    1.224911e+01    1.098091e+02    2.750647e+00    1.028522e+09    5.213695e-09    6.577605e-12    4.670200e-09    4.423903e-10    7.300000e-01    6.051376e-01    1.393597e-01
    1.168800e+01    1.053724e+02    3.100299e+00    1.098845e+09    5.248405e-09    7.027700e-12    4.715489e-09    4.456969e-10    7.400000e-01    6.051376e-01    1.462029e-01
    1.115464e+01    1.009515e+02    3.475326e+00    1.168242e+09    5.281270e-09    7.506890e-12    4.758446e-09    4.488165e-10    7.500000e-01    6.051376e-01    1.531058e-01
    1.064939e+01    9.658598e+01    3.875541e+00    1.236482e+09    5.312385e-09    8.017130e-12    4.799189e-09    4.517607e-10    7.600000e-01    6.051376e-01    1.600505e-01
    1.017212e+01    9.230776e+01    4.300664e+00    1.303397e+09    5.341835e-09    8.560490e-12    4.837831e-09    4.545407e-10    7.700000e-01    6.051376e-01    1.670214e-01
    9.722264e+00    8.814171e+01    4.750353e+00    1.368869e+09    5.369720e-09    9.139225e-12    4.874486e-09    4.571675e-10    7.800000e-01    6.051376e-01    1.740047e-01
    9.298980e+00    8.410627e+01    5.224210e+00    1.432829e+09    5.396120e-09    9.755740e-12    4.909261e-09    4.596515e-10    7.900000e-01    6.051376e-01    1.809886e-01
    8.901211e+00    8.021449e+01    5.721800e+00    1.495247e+09    5.421120e-09    1.041263e-11    4.942264e-09    4.620026e-10    8.000000e-01    6.051376e-01    1.879633e-01
    8.527739e+00    7.647479e+01    6.242675e+00    1.556118e+09    5.444805e-09    1.111270e-11    4.973595e-09    4.642305e-10    8.100000e-01    6.051376e-01    1.949204e-01
    8.177279e+00    7.289172e+01    6.786365e+00    1.615462e+09    5.467255e-09    1.185893e-11    5.003350e-09    4.663444e-10    8.200000e-01    6.051376e-01    2.018528e-01
    7.848478e+00    6.946657e+01    7.352400e+00    1.673313e+09    5.488550e-09    1.265459e-11    5.031625e-09    4.683529e-10    8.300000e-01    6.051376e-01    2.087550e-01
    7.539995e+00    6.619855e+01    7.940310e+00    1.729718e+09    5.508755e-09    1.350315e-11    5.058510e-09    4.702642e-10    8.400000e-01    6.051376e-01    2.156224e-01
    7.250494e+00    6.308477e+01    8.549645e+00    1.784728e+09    5.527945e-09    1.440838e-11    5.084085e-09    4.720864e-10    8.500000e-01    6.051376e-01    2.224512e-01
    6.978696e+00    6.012118e+01    9.179945e+00    1.838399e+09    5.546190e-09    1.537433e-11    5.108430e-09    4.738268e-10    8.600000e-01    6.051376e-01    2.292386e-01
    6.723353e+00    5.730258e+01    9.830780e+00    1.890784e+09    5.563550e-09    1.640538e-11    5.131620e-09    4.754924e-10    8.700000e-01    6.051376e-01    2.359824e-01
    6.483287e+00    5.462319e+01    1.050173e+01    1.941937e+09    5.580085e-09    1.750624e-11    5.153725e-09    4.770900e-10    8.800000e-01    6.051376e-01    2.426810e-01
    6.257402e+00    5.207688e+01    1.119236e+01    1.991909e+09    5.595855e-09    1.868200e-11    5.174820e-09    4.786258e-10    8.900000e-01    6.051376e-01    2.493334e-01
    6.044645e+00    4.965729e+01    1.190230e+01    2.040741e+09    5.610915e-09    1.993816e-11    5.194960e-09    4.801059e-10    9.000000e-01    6.051376e-01    2.559386e-01
    5.844051e+00    4.735801e+01    1.263114e+01    2.088475e+09    5.625320e-09    2.128063e-11    5.214205e-09    4.815360e-10    9.100000e-01    6.051376e-01    2.624964e-01
    5.654718e+00    4.517275e+01    1.337851e+01    2.135147e+09    5.639115e-09    2.271582e-11    5.232610e-09    4.829216e-10    9.200000e-01    6.051376e-01    2.690066e-01
    5.475815e+00    4.309535e+01    1.414405e+01    2.180789e+09    5.652350e-09    2.425061e-11    5.250225e-09    4.842677e-10    9.300000e-01    6.051376e-01    2.754693e-01
    5.306566e+00    4.111984e+01    1.492740e+01    2.225422e+09    5.665070e-09    2.589248e-11    5.267100e-09    4.855793e-10    9.400000e-01    6.051376e-01    2.818846e-01
    5.146258e+00    3.924053e+01    1.572819e+01    2.269066e+09    5.677320e-09    2.764945e-11    5.283280e-09    4.868611e-10    9.500000e-01    6.051376e-01    2.882530e-01
    4.994243e+00    3.745207e+01    1.654611e+01    2.311743e+09    5.689135e-09    2.953019e-11    5.298805e-09    4.881176e-10    9.600000e-01    6.051376e-01    2.945750e-01
    4.849915e+00    3.574928e+01    1.738079e+01    2.353457e+09    5.700560e-09    3.154409e-11    5.313715e-09    4.893530e-10    9.700000e-01    6.051376e-01    3.008511e-01
    4.712722e+00    3.412736e+01    1.823191e+01    2.394219e+09    5.711630e-09    3.370123e-11    5.328045e-09    4.905717e-10    9.800000e-01    6.051376e-01    3.070821e-01
    4.582157e+00    3.258178e+01    1.909912e+01    2.434032e+09    5.722385e-09    3.601253e-11    5.341825e-09    4.917776e-10    9.900000e-01    6.051376e-01    3.132685e-01
    4.457753e+00    3.110829e+01    1.998210e+01    2.472900e+09    5.732850e-09    3.848971e-11    5.355085e-09    4.929745e-10    1.000000e+00    6.051376e-01    3.194112e-01
    4.339082e+00    2.970291e+01    2.088051e+01    2.510819e+09    5.743065e-09    4.114544e-11    5.367855e-09    4.941665e-10    1.010000e+00    6.051376e-01    3.255108e-01
    4.225751e+00    2.836194e+01    2.179403e+01    2.547782e+09    5.753065e-09    4.399336e-11    5.380155e-09    4.953571e-10    1.020000e+00    6.051376e-01    3.315682e-01
    4.117400e+00    2.708191e+01    2.272233e+01    2.583787e+09    5.762875e-09    4.704813e-11    5.392015e-09    4.965501e-10    1.030000e+00    6.051376e-01    3.375842e-01
    4.013696e+00    2.585956e+01    2.366506e+01    2.618822e+09    5.772530e-09    5.032555e-11    5.403455e-09    4.977490e-10    1.040000e+00    6.051376e-01    3.435595e-01
    3.914332e+00    2.469189e+01    2.462190e+01    2.652875e+09    5.782060e-09    5.384260e-11    5.414485e-09    4.989574e-10    1.050000e+00    6.051376e-01    3.494951e-01
    3.819031e+00    2.357608e+01    2.559252e+01    2.685938e+09    5.791490e-09    5.761745e-11    5.425130e-09    5.001790e-10    1.060000e+00    6.051376e-01    3.553916e-01
    3.727531e+00    2.250949e+01    2.657656e+01    2.717994e+09    5.800850e-09    6.166960e-11    5.435400e-09    5.014170e-10    1.070000e+00    6.051376e-01    3.612498e-01
    3.639595e+00    2.148968e+01    2.757370e+01    2.749029e+09    5.810170e-09    6.602000e-11    5.445310e-09    5.026755e-10    1.080000e+00    6.051376e-01    3.670707e-01
    3.555002e+00    2.051434e+01    2.858359e+01    2.779025e+09    5.819480e-09    7.069095e-11    5.454870e-09    5.039575e-10    1.090000e+00    6.051376e-01    3.728550e-01
    3.473549e+00    1.958133e+01    2.960588e+01    2.807966e+09    5.828805e-09    7.570630e-11    5.464090e-09    5.052670e-10    1.100000e+00    6.051376e-01    3.786034e-01
    3.395046e+00    1.868867e+01    3.064022e+01    2.835832e+09    5.838175e-09    8.109140e-11    5.472975e-09    5.066070e-10    1.110000e+00    6.051376e-01    3.843168e-01
    3.319321e+00    1.783446e+01    3.168625e+01    2.862606e+09    5.847615e-09    8.687325e-11    5.481530e-09    5.079815e-10    1.120000e+00    6.051376e-01    3.899959e-01
    3.246211e+00    1.701694e+01    3.274363e+01    2.888265e+09    5.857155e-09    9.308045e-11    5.489760e-09    5.093940e-10    1.130000e+00    6.051376e-01    3.956416e-01
    3.175566e+00    1.623447e+01    3.381199e+01    2.912785e+09    5.866830e-09    9.974310e-11    5.497670e-09    5.108480e-10    1.140000e+00    6.051376e-01    4.012545e-01
    3.107245e+00    1.548551e+01    3.489095e+01    2.936148e+09    5.876660e-09    1.068931e-10    5.505260e-09    5.123480e-10    1.150000e+00    6.051376e-01    4.068355e-01
    3.041120e+00    1.476859e+01    3.598016e+01    2.958331e+09    5.886675e-09    1.145638e-10    5.512525e-09    5.138965e-10    1.160000e+00    6.051376e-01    4.123852e-01
    2.977070e+00    1.408237e+01    3.707923e+01    2.979313e+09    5.896900e-09    1.227901e-10    5.519465e-09    5.154975e-10    1.170000e+00    6.051376e-01    4.179045e-01
    2.914981e+00    1.342554e+01    3.818778e+01    2.999064e+09    5.907375e-09    1.316083e-10    5.526080e-09    5.171555e-10    1.180000e+00    6.051376e-01    4.233941e-01
    2.854746e+00    1.279689e+01    3.930544e+01    3.017564e+09    5.918120e-09    1.410559e-10    5.532355e-09    5.188730e-10    1.190000e+00    6.051376e-01    4.288546e-01
    2.796270e+00    1.219529e+01    4.043180e+01    3.034788e+09    5.929170e-09    1.511717e-10    5.538295e-09    5.206540e-10    1.200000e+00    6.051376e-01    4.342869e-01
    2.739457e+00    1.161964e+01    4.156647e+01    3.050714e+09    5.940545e-09    1.619952e-10    5.543885e-09    5.225020e-10    1.210000e+00    6.051376e-01    4.396916e-01
    2.684221e+00    1.106894e+01    4.270905e+01    3.065315e+09    5.952280e-09    1.735665e-10    5.549120e-09    5.244205e-10    1.220000e+00    6.051376e-01    4.450695e-01
    2.630482e+00    1.054221e+01    4.385914e+01    3.078572e+09    5.964395e-09    1.859260e-10    5.553990e-09    5.264125e-10    1.230000e+00    6.051376e-01    4.504213e-01
    2.578165e+00    1.003853e+01    4.501633e+01    3.090459e+09    5.976925e-09    1.991141e-10    5.558480e-09    5.284815e-10    1.240000e+00    6.051376e-01    4.557476e-01
    2.527195e+00    9.557027e+00    4.618019e+01    3.100955e+09    5.989895e-09    2.131704e-10    5.562585e-09    5.306305e-10    1.250000e+00    6.051376e-01    4.610491e-01
    2.477508e+00    9.096882e+00    4.735031e+01    3.110041e+09    6.003325e-09    2.281337e-10    5.566285e-09    5.328610e-10    1.260000e+00    6.051376e-01    4.663266e-01
    2.429038e+00    8.657295e+00    4.852626e+01    3.117698e+09    6.017240e-09    2.440407e-10    5.569570e-09    5.351770e-10    1.270000e+00    6.051376e-01    4.715807e-01
    2.381729e+00    8.237517e+00    4.970761e+01    3.123912e+09    6.031655e-09    2.609266e-10    5.572430e-09    5.375790e-10    1.280000e+00    6.051376e-01    4.768121e-01
    2.335525e+00    7.836826e+00    5.089390e+01    3.128669e+09    6.046595e-09    2.788230e-10    5.574850e-09    5.400695e-10    1.290000e+00    6.051376e-01    4.820215e-01
    2.290372e+00    7.454527e+00    5.208475e+01    3.131957e+09    6.062070e-09    2.977585e-10    5.576820e-09    5.426495e-10    1.300000e+00    6.051376e-01    4.872096e-01
    2.246223e+00    7.089960e+00    5.327965e+01    3.133766e+09    6.078100e-09    3.177572e-10    5.578325e-09    5.453200e-10    1.310000e+00    6.051376e-01    4.923769e-01
    2.203035e+00    6.742483e+00    5.447815e+01    3.134100e+09    6.094680e-09    3.388386e-10    5.579355e-09    5.480810e-10    1.320000e+00    6.051376e-01    4.975241e-01
    2.160761e+00    6.411482e+00    5.567985e+01    3.132954e+09    6.111825e-09    3.610166e-10    5.579900e-09    5.509325e-10    1.330000e+00    6.051376e-01    5.026520e-01
    2.119367e+00    6.096358e+00    5.688420e+01    3.130332e+09    6.129535e-09    3.842990e-10    5.579955e-09    5.538735e-10    1.340000e+00    6.051376e-01    5.077610e-01
