# sky130 nfet_01v8 gm/ID Processed Lookup Table
# Corner: tt
# Temperature: 25C
# W = 2.0 um
# L = 4 um (4000 nm)
# Columns: gm/id [1/V]  gm/gds [V/V]  id/W [A/m]  ft [Hz]  Cgg/W [F/m]  Cgd/W [F/m]  Cgs/W [F/m]  Cdb/W [F/m]  vgs [V]  vth [V]  vdsat [V]
# vdsat = BSIM4 saturation voltage (|VDS|_sat, positive); use for headroom / saturation / cascode-bias calculations
#           gm/id          gm/gds            id/W              ft           Cgg/W           Cgd/W           Cgs/W           Cdb/W             vgs             vth           vdsat
    2.647813e+01    1.963667e+02    3.979600e-05    1.632493e+04    1.027296e-08    1.409775e-12    4.062551e-09    5.553730e-10    2.600000e-01    5.447702e-01    3.856196e-02
    2.647520e+01    1.960208e+02    5.186005e-05    2.084114e+04    1.048506e-08    1.527735e-12    4.373772e-09    5.904845e-10    2.700000e-01    5.447702e-01    3.856842e-02
    2.645468e+01    1.956361e+02    6.757325e-05    2.656446e+04    1.071017e-08    1.655417e-12    4.700498e-09    6.269190e-10    2.800000e-01    5.447702e-01    3.857683e-02
    2.641856e+01    1.952105e+02    8.802235e-05    3.380544e+04    1.094802e-08    1.793543e-12    5.042320e-09    6.646065e-10    2.900000e-01    5.447702e-01    3.858777e-02
    2.636815e+01    1.947420e+02    1.146101e-04    4.295117e+04    1.119818e-08    1.942872e-12    5.398685e-09    7.034645e-10    3.000000e-01    5.447702e-01    3.860198e-02
    2.630432e+01    1.942296e+02    1.491435e-04    5.448313e+04    1.146013e-08    2.104211e-12    5.768885e-09    7.433990e-10    3.100000e-01    5.447702e-01    3.862042e-02
    2.622760e+01    1.936735e+02    1.939459e-04    6.899885e+04    1.173323e-08    2.278410e-12    6.152080e-09    7.843015e-10    3.200000e-01    5.447702e-01    3.864432e-02
    2.613832e+01    1.930757e+02    2.519975e-04    8.723843e+04    1.201673e-08    2.466364e-12    6.547285e-09    8.260535e-10    3.300000e-01    5.447702e-01    3.867526e-02
    2.603665e+01    1.924403e+02    3.271125e-04    1.101165e+05    1.230977e-08    2.669023e-12    6.953390e-09    8.685270e-10    3.400000e-01    5.447702e-01    3.871521e-02
    2.592272e+01    1.917742e+02    4.241602e-04    1.387608e+05    1.261141e-08    2.887384e-12    7.369165e-09    9.115850e-10    3.500000e-01    5.447702e-01    3.876672e-02
    2.579670e+01    1.910884e+02    5.493405e-04    1.745591e+05    1.292062e-08    3.122497e-12    7.793285e-09    9.550850e-10    3.600000e-01    5.447702e-01    3.883298e-02
    2.565892e+01    1.903980e+02    7.105265e-04    2.192160e+05    1.323630e-08    3.375474e-12    8.224345e-09    9.988790e-10    3.700000e-01    5.447702e-01    3.891799e-02
    2.550993e+01    1.897242e+02    9.176895e-04    2.748224e+05    1.355730e-08    3.647481e-12    8.660870e-09    1.042817e-09    3.800000e-01    5.447702e-01    3.902676e-02
    2.535049e+01    1.890946e+02    1.183427e-03    3.439402e+05    1.388242e-08    3.939750e-12    9.101355e-09    1.086748e-09    3.900000e-01    5.447702e-01    3.916546e-02
    2.518176e+01    1.885445e+02    1.523611e-03    4.297070e+05    1.421045e-08    4.253580e-12    9.544265e-09    1.130523e-09    4.000000e-01    5.447702e-01    3.934173e-02
    2.500518e+01    1.881174e+02    1.958195e-03    5.359656e+05    1.454016e-08    4.590342e-12    9.988060e-09    1.173997e-09    4.100000e-01    5.447702e-01    3.956484e-02
    2.482256e+01    1.878659e+02    2.512219e-03    6.674251e+05    1.487037e-08    4.951479e-12    1.043124e-08    1.217029e-09    4.200000e-01    5.447702e-01    3.984600e-02
    2.463585e+01    1.878509e+02    3.217038e-03    8.298580e+05    1.519988e-08    5.338515e-12    1.087233e-08    1.259488e-09    4.300000e-01    5.447702e-01    4.019862e-02
    2.444709e+01    1.881416e+02    4.111864e-03    1.030346e+06    1.552755e-08    5.753070e-12    1.130992e-08    1.301249e-09    4.400000e-01    5.447702e-01    4.063848e-02
    2.425806e+01    1.888128e+02    5.245665e-03    1.277569e+06    1.585230e-08    6.196840e-12    1.174267e-08    1.342197e-09    4.500000e-01    5.447702e-01    4.118396e-02
    2.406995e+01    1.899426e+02    6.679485e-03    1.582139e+06    1.617311e-08    6.671630e-12    1.216933e-08    1.382229e-09    4.600000e-01    5.447702e-01    4.185615e-02
    2.388291e+01    1.916073e+02    8.489285e-03    1.956964e+06    1.648905e-08    7.179350e-12    1.258876e-08    1.421254e-09    4.700000e-01    5.447702e-01    4.267876e-02
    2.369564e+01    1.938759e+02    1.076929e-02    2.417607e+06    1.679925e-08    7.722025e-12    1.299991e-08    1.459192e-09    4.800000e-01    5.447702e-01    4.367801e-02
    2.350500e+01    1.968030e+02    1.363591e-02    2.982592e+06    1.710294e-08    8.301795e-12    1.340188e-08    1.495974e-09    4.900000e-01    5.447702e-01    4.488223e-02
    2.330584e+01    2.004215e+02    1.723204e-02    3.673557e+06    1.739942e-08    8.920940e-12    1.379383e-08    1.531548e-09    5.000000e-01    5.447702e-01    4.632128e-02
    2.309105e+01    2.047350e+02    2.173169e-02    4.515180e+06    1.768814e-08    9.581880e-12    1.417510e-08    1.565868e-09    5.100000e-01    5.447702e-01    4.802577e-02
    2.285201e+01    2.097114e+02    2.734438e-02    5.534759e+06    1.796859e-08    1.028719e-11    1.454510e-08    1.598905e-09    5.200000e-01    5.447702e-01    5.002605e-02
    2.257926e+01    2.152781e+02    3.431900e-02    6.761314e+06    1.824036e-08    1.103959e-11    1.490339e-08    1.630638e-09    5.300000e-01    5.447702e-01    5.235102e-02
    2.226356e+01    2.213212e+02    4.294639e-02    8.224248e+06    1.850313e-08    1.184202e-11    1.524962e-08    1.661057e-09    5.400000e-01    5.447702e-01    5.502692e-02
    2.189703e+01    2.276880e+02    5.355990e-02    9.951506e+06    1.875669e-08    1.269757e-11    1.558355e-08    1.690161e-09    5.500000e-01    5.447702e-01    5.807606e-02
    2.147400e+01    2.341931e+02    6.653345e-02    1.196739e+07    1.900088e-08    1.360957e-11    1.590506e-08    1.717959e-09    5.600000e-01    5.447702e-01    6.151565e-02
    2.099193e+01    2.406285e+02    8.227635e-02    1.429031e+07    1.923561e-08    1.458154e-11    1.621407e-08    1.744468e-09    5.700000e-01    5.447702e-01    6.535693e-02
    2.045149e+01    2.467767e+02    1.012253e-01    1.693058e+07    1.946086e-08    1.561728e-11    1.651063e-08    1.769709e-09    5.800000e-01    5.447702e-01    6.960448e-02
    1.985671e+01    2.524243e+02    1.238327e-01    1.988888e+07    1.967671e-08    1.672081e-11    1.679484e-08    1.793711e-09    5.900000e-01    5.447702e-01    7.425599e-02
    1.921430e+01    2.573759e+02    1.505543e-01    2.315533e+07    1.988322e-08    1.789647e-11    1.706685e-08    1.816510e-09    6.000000e-01    5.447702e-01    7.930235e-02
    1.853312e+01    2.614659e+02    1.818330e-01    2.670947e+07    2.008057e-08    1.914887e-11    1.732690e-08    1.838140e-09    6.100000e-01    5.447702e-01    8.472817e-02
    1.782322e+01    2.645671e+02    2.180861e-01    3.052135e+07    2.026892e-08    2.048299e-11    1.757526e-08    1.858645e-09    6.200000e-01    5.447702e-01    9.051255e-02
    1.709515e+01    2.665955e+02    2.596910e-01    3.455322e+07    2.044850e-08    2.190413e-11    1.781223e-08    1.878067e-09    6.300000e-01    5.447702e-01    9.663011e-02
    1.635918e+01    2.675117e+02    3.069751e-01    3.876194e+07    2.061955e-08    2.341798e-11    1.803815e-08    1.896453e-09    6.400000e-01    5.447702e-01    1.030522e-01
    1.562483e+01    2.673176e+02    3.602080e-01    4.310168e+07    2.078235e-08    2.503066e-11    1.825341e-08    1.913849e-09    6.500000e-01    5.447702e-01    1.097479e-01
    1.490047e+01    2.660518e+02    4.195978e-01    4.752640e+07    2.093719e-08    2.674873e-11    1.845836e-08    1.930304e-09    6.600000e-01    5.447702e-01    1.166856e-01
    1.419315e+01    2.637834e+02    4.852907e-01    5.199248e+07    2.108436e-08    2.857923e-11    1.865344e-08    1.945864e-09    6.700000e-01    5.447702e-01    1.238336e-01
    1.350848e+01    2.606019e+02    5.573735e-01    5.646014e+07    2.122419e-08    3.052975e-11    1.883903e-08    1.960579e-09    6.800000e-01    5.447702e-01    1.311611e-01
    1.285076e+01    2.566119e+02    6.358785e-01    6.089524e+07    2.135697e-08    3.260841e-11    1.901554e-08    1.974495e-09    6.900000e-01    5.447702e-01    1.386392e-01
    1.222297e+01    2.519248e+02    7.207920e-01    6.526963e+07    2.148304e-08    3.482397e-11    1.918340e-08    1.987658e-09    7.000000e-01    5.447702e-01    1.462408e-01
    1.162705e+01    2.466528e+02    8.120595e-01    6.956153e+07    2.160272e-08    3.718587e-11    1.934302e-08    2.000113e-09    7.100000e-01    5.447702e-01    1.539416e-01
    1.106395e+01    2.409045e+02    9.095965e-01    7.375527e+07    2.171631e-08    3.970425e-11    1.949479e-08    2.011907e-09    7.200000e-01    5.447702e-01    1.617198e-01
    1.053388e+01    2.347813e+02    1.013295e+00    7.784077e+07    2.182414e-08    4.239002e-11    1.963912e-08    2.023081e-09    7.300000e-01    5.447702e-01    1.695564e-01
    1.003642e+01    2.283752e+02    1.123032e+00    8.181289e+07    2.192651e-08    4.525495e-11    1.977639e-08    2.033677e-09    7.400000e-01    5.447702e-01    1.774349e-01
    9.570710e+00    2.217673e+02    1.238674e+00    8.567039e+07    2.202373e-08    4.831175e-11    1.990697e-08    2.043735e-09    7.500000e-01    5.447702e-01    1.853414e-01
    9.135533e+00    2.150283e+02    1.360086e+00    8.941540e+07    2.211608e-08    5.157410e-11    2.003124e-08    2.053293e-09    7.600000e-01    5.447702e-01    1.932643e-01
    8.729437e+00    2.082173e+02    1.487132e+00    9.305241e+07    2.220384e-08    5.505670e-11    2.014953e-08    2.062387e-09    7.700000e-01    5.447702e-01    2.011940e-01
    8.350831e+00    2.013836e+02    1.619680e+00    9.658762e+07    2.228730e-08    5.877550e-11    2.026217e-08    2.071054e-09    7.800000e-01    5.447702e-01    2.091228e-01
    7.998048e+00    1.945674e+02    1.757605e+00    1.000284e+08    2.236671e-08    6.274770e-11    2.036951e-08    2.079328e-09    7.900000e-01    5.447702e-01    2.170447e-01
    7.669385e+00    1.878004e+02    1.900790e+00    1.033824e+08    2.244234e-08    6.699185e-11    2.047183e-08    2.087238e-09    8.000000e-01    5.447702e-01    2.249550e-01
    7.363166e+00    1.811071e+02    2.049128e+00    1.066579e+08    2.251442e-08    7.152790e-11    2.056942e-08    2.094818e-09    8.100000e-01    5.447702e-01    2.328504e-01
    7.077753e+00    1.745065e+02    2.202520e+00    1.098627e+08    2.258318e-08    7.637760e-11    2.066256e-08    2.102096e-09    8.200000e-01    5.447702e-01    2.407282e-01
    6.811578e+00    1.680123e+02    2.360878e+00    1.130043e+08    2.264886e-08    8.156415e-11    2.075152e-08    2.109099e-09    8.300000e-01    5.447702e-01    2.485870e-01
    6.563153e+00    1.616342e+02    2.524122e+00    1.160897e+08    2.271168e-08    8.711295e-11    2.083653e-08    2.115855e-09    8.400000e-01    5.447702e-01    2.564257e-01
    6.331075e+00    1.553788e+02    2.692179e+00    1.191253e+08    2.277182e-08    9.305115e-11    2.091783e-08    2.122388e-09    8.500000e-01    5.447702e-01    2.642439e-01
    6.114033e+00    1.492499e+02    2.864990e+00    1.221166e+08    2.282950e-08    9.940830e-11    2.099563e-08    2.128724e-09    8.600000e-01    5.447702e-01    2.720417e-01
    5.910813e+00    1.432500e+02    3.042495e+00    1.250686e+08    2.288489e-08    1.062161e-10    2.107013e-08    2.134885e-09    8.700000e-01    5.447702e-01    2.798194e-01
    5.720291e+00    1.373797e+02    3.224647e+00    1.279856e+08    2.293820e-08    1.135093e-10    2.114155e-08    2.140895e-09    8.800000e-01    5.447702e-01    2.875777e-01
    5.541427e+00    1.316390e+02    3.411399e+00    1.308710e+08    2.298957e-08    1.213247e-10    2.121004e-08    2.146773e-09    8.900000e-01    5.447702e-01    2.953173e-01
    5.373271e+00    1.260270e+02    3.602714e+00    1.337277e+08    2.303920e-08    1.297026e-10    2.127577e-08    2.152542e-09    9.000000e-01    5.447702e-01    3.030392e-01
    5.214949e+00    1.205428e+02    3.798555e+00    1.365579e+08    2.308723e-08    1.386864e-10    2.133890e-08    2.158221e-09    9.100000e-01    5.447702e-01    3.107443e-01
    5.065663e+00    1.151852e+02    3.998889e+00    1.393634e+08    2.313381e-08    1.483229e-10    2.139957e-08    2.163829e-09    9.200000e-01    5.447702e-01    3.184339e-01
    4.924683e+00    1.099531e+02    4.203685e+00    1.421451e+08    2.317910e-08    1.586627e-10    2.145793e-08    2.169386e-09    9.300000e-01    5.447702e-01    3.261090e-01
    4.791344e+00    1.048454e+02    4.412916e+00    1.449039e+08    2.322325e-08    1.697604e-10    2.151408e-08    2.174910e-09    9.400000e-01    5.447702e-01    3.337706e-01
    4.665036e+00    9.986150e+01    4.626552e+00    1.476398e+08    2.326640e-08    1.816746e-10    2.156815e-08    2.180420e-09    9.500000e-01    5.447702e-01    3.414199e-01
    4.545206e+00    9.500096e+01    4.844568e+00    1.503527e+08    2.330867e-08    1.944688e-10    2.162022e-08    2.185933e-09    9.600000e-01    5.447702e-01    3.490579e-01
    4.431347e+00    9.026361e+01    5.066935e+00    1.530419e+08    2.335021e-08    2.082113e-10    2.167041e-08    2.191466e-09    9.700000e-01    5.447702e-01    3.566857e-01
    4.322997e+00    8.564975e+01    5.293625e+00    1.557065e+08    2.339114e-08    2.229752e-10    2.171878e-08    2.197038e-09    9.800000e-01    5.447702e-01    3.643043e-01
    4.219735e+00    8.115994e+01    5.524610e+00    1.583452e+08    2.343161e-08    2.388395e-10    2.176543e-08    2.202665e-09    9.900000e-01    5.447702e-01    3.719145e-01
    4.121171e+00    7.679504e+01    5.759865e+00    1.609564e+08    2.347172e-08    2.558887e-10    2.181042e-08    2.208366e-09    1.000000e+00    5.447702e-01    3.795172e-01
    4.026958e+00    7.255619e+01    5.999350e+00    1.635381e+08    2.351161e-08    2.742134e-10    2.185380e-08    2.214156e-09    1.010000e+00    5.447702e-01    3.871133e-01
    3.936770e+00    6.844484e+01    6.243035e+00    1.660882e+08    2.355142e-08    2.939103e-10    2.189564e-08    2.220054e-09    1.020000e+00    5.447702e-01    3.947036e-01
    3.850306e+00    6.446255e+01    6.490885e+00    1.686042e+08    2.359125e-08    3.150830e-10    2.193597e-08    2.226078e-09    1.030000e+00    5.447702e-01    4.022887e-01
    3.767295e+00    6.061105e+01    6.742860e+00    1.710832e+08    2.363124e-08    3.378416e-10    2.197483e-08    2.232244e-09    1.040000e+00    5.447702e-01    4.098694e-01
    3.687485e+00    5.689224e+01    6.998915e+00    1.735223e+08    2.367150e-08    3.623031e-10    2.201226e-08    2.238570e-09    1.050000e+00    5.447702e-01    4.174462e-01
    3.610638e+00    5.330793e+01    7.259010e+00    1.759179e+08    2.371218e-08    3.885916e-10    2.204826e-08    2.245074e-09    1.060000e+00    5.447702e-01    4.250199e-01
    3.536542e+00    4.986001e+01    7.523090e+00    1.782665e+08    2.375339e-08    4.168381e-10    2.208287e-08    2.251774e-09    1.070000e+00    5.447702e-01    4.325908e-01
    3.464991e+00    4.655023e+01    7.791105e+00    1.805640e+08    2.379525e-08    4.471805e-10    2.211609e-08    2.258687e-09    1.080000e+00    5.447702e-01    4.401595e-01
    3.395797e+00    4.338015e+01    8.062995e+00    1.828059e+08    2.383790e-08    4.797635e-10    2.214791e-08    2.265832e-09    1.090000e+00    5.447702e-01    4.477265e-01
    3.328787e+00    4.035119e+01    8.338690e+00    1.849877e+08    2.388147e-08    5.147380e-10    2.217835e-08    2.273227e-09    1.100000e+00    5.447702e-01    4.552922e-01
    3.263792e+00    3.746441e+01    8.618125e+00    1.871044e+08    2.392607e-08    5.522615e-10    2.220738e-08    2.280890e-09    1.110000e+00    5.447702e-01    4.628570e-01
    3.200658e+00    3.472051e+01    8.901220e+00    1.891504e+08    2.397185e-08    5.924950e-10    2.223498e-08    2.288837e-09    1.120000e+00    5.447702e-01    4.704213e-01
    3.139238e+00    3.211987e+01    9.187890e+00    1.911202e+08    2.401892e-08    6.356060e-10    2.226115e-08    2.297087e-09    1.130000e+00    5.447702e-01    4.779854e-01
    3.079391e+00    2.966230e+01    9.478045e+00    1.930076e+08    2.406741e-08    6.817640e-10    2.228584e-08    2.305657e-09    1.140000e+00    5.447702e-01    4.855496e-01
    3.020989e+00    2.734713e+01    9.771585e+00    1.948063e+08    2.411745e-08    7.311405e-10    2.230903e-08    2.314562e-09    1.150000e+00    5.447702e-01    4.931142e-01
    2.963905e+00    2.517311e+01    1.006841e+01    1.965097e+08    2.416914e-08    7.839070e-10    2.233068e-08    2.323820e-09    1.160000e+00    5.447702e-01    5.006796e-01
    2.908028e+00    2.313841e+01    1.036838e+01    1.981110e+08    2.422261e-08    8.402345e-10    2.235075e-08    2.333444e-09    1.170000e+00    5.447702e-01    5.082459e-01
    2.853245e+00    2.124054e+01    1.067139e+01    1.996033e+08    2.427797e-08    9.002900e-10    2.236918e-08    2.343447e-09    1.180000e+00    5.447702e-01    5.158135e-01
    2.799460e+00    1.947641e+01    1.097730e+01    2.009799e+08    2.433532e-08    9.642345e-10    2.238594e-08    2.353844e-09    1.190000e+00    5.447702e-01    5.233825e-01
    2.746581e+00    1.784228e+01    1.128595e+01    2.022340e+08    2.439476e-08    1.032220e-09    2.240097e-08    2.364643e-09    1.200000e+00    5.447702e-01    5.309531e-01
    2.694528e+00    1.633383e+01    1.159720e+01    2.033594e+08    2.445636e-08    1.104389e-09    2.241424e-08    2.375854e-09    1.210000e+00    5.447702e-01    5.385256e-01
    2.643234e+00    1.494613e+01    1.191088e+01    2.043504e+08    2.452019e-08    1.180867e-09    2.242568e-08    2.387484e-09    1.220000e+00    5.447702e-01    5.461001e-01
    2.592639e+00    1.367376e+01    1.222681e+01    2.052019e+08    2.458634e-08    1.261766e-09    2.243525e-08    2.399539e-09    1.230000e+00    5.447702e-01    5.536768e-01
    2.542700e+00    1.251086e+01    1.254481e+01    2.059099e+08    2.465482e-08    1.347176e-09    2.244290e-08    2.412021e-09    1.240000e+00    5.447702e-01    5.612559e-01
    2.493384e+00    1.145119e+01    1.286470e+01    2.064718e+08    2.472567e-08    1.437165e-09    2.244859e-08    2.424929e-09    1.250000e+00    5.447702e-01    5.688376e-01
    2.444674e+00    1.048827e+01    1.318628e+01    2.068858e+08    2.479891e-08    1.531775e-09    2.245228e-08    2.438262e-09    1.260000e+00    5.447702e-01    5.764220e-01
    2.396565e+00    9.615439e+00    1.350935e+01    2.071521e+08    2.487451e-08    1.631020e-09    2.245395e-08    2.452014e-09    1.270000e+00    5.447702e-01    5.840092e-01
    2.349063e+00    8.825978e+00    1.383373e+01    2.072722e+08    2.495245e-08    1.734888e-09    2.245357e-08    2.466177e-09    1.280000e+00    5.447702e-01    5.915995e-01
    2.302188e+00    8.113220e+00    1.415921e+01    2.072492e+08    2.503268e-08    1.843330e-09    2.245113e-08    2.480742e-09    1.290000e+00    5.447702e-01    5.991928e-01
    2.255966e+00    7.470626e+00    1.448561e+01    2.070876e+08    2.511513e-08    1.956269e-09    2.244662e-08    2.495694e-09    1.300000e+00    5.447702e-01    6.067895e-01
    2.210432e+00    6.891883e+00    1.481273e+01    2.067935e+08    2.519970e-08    2.073594e-09    2.244005e-08    2.511019e-09    1.310000e+00    5.447702e-01    6.143895e-01
    2.165621e+00    6.370966e+00    1.514040e+01    2.063738e+08    2.528631e-08    2.195163e-09    2.243143e-08    2.526698e-09    1.320000e+00    5.447702e-01    6.219931e-01
    2.121576e+00    5.902185e+00    1.546844e+01    2.058367e+08    2.537480e-08    2.320799e-09    2.242079e-08    2.542712e-09    1.330000e+00    5.447702e-01    6.296003e-01
    2.078335e+00    5.480250e+00    1.579670e+01    2.051908e+08    2.546504e-08    2.450302e-09    2.240817e-08    2.559040e-09    1.340000e+00    5.447702e-01    6.372113e-01
