# sky130 nfet_01v8 gm/ID Processed Lookup Table
# Corner: tt
# Temperature: 25C
# W = 2.0 um
# L = 6 um (6000 nm)
# Columns: gm/id [1/V]  gm/gds [V/V]  id/W [A/m]  ft [Hz]  Cgg/W [F/m]  Cgd/W [F/m]  Cgs/W [F/m]  Cdb/W [F/m]  vgs [V]  vth [V]  vdsat [V]
# vdsat = BSIM4 saturation voltage (|VDS|_sat, positive); use for headroom / saturation / cascode-bias calculations
#           gm/id          gm/gds            id/W              ft           Cgg/W           Cgd/W           Cgs/W           Cdb/W             vgs             vth           vdsat
    2.651412e+01    2.509827e+02    4.169147e-05    1.101995e+04    1.596485e-08    2.401669e-12    6.930770e-09    9.287215e-10    2.700000e-01    5.372750e-01    3.769369e-02
    2.649546e+01    2.504383e+02    5.434545e-05    1.404299e+04    1.631907e-08    2.603075e-12    7.442030e-09    9.854365e-10    2.800000e-01    5.372750e-01    3.770404e-02
    2.645824e+01    2.498390e+02    7.082020e-05    1.786588e+04    1.669221e-08    2.820921e-12    7.975750e-09    1.043990e-09    2.900000e-01    5.372750e-01    3.771752e-02
    2.640431e+01    2.491835e+02    9.224700e-05    2.269183e+04    1.708353e-08    3.056397e-12    8.530925e-09    1.104242e-09    3.000000e-01    5.372750e-01    3.773503e-02
    2.633491e+01    2.484721e+02    1.200824e-04    2.877329e+04    1.749210e-08    3.310759e-12    9.106325e-09    1.166034e-09    3.100000e-01    5.372750e-01    3.775776e-02
    2.625091e+01    2.477075e+02    1.561972e-04    3.642310e+04    1.791682e-08    3.585330e-12    9.700510e-09    1.229190e-09    3.200000e-01    5.372750e-01    3.778722e-02
    2.615292e+01    2.468952e+02    2.029887e-04    4.602818e+04    1.835643e-08    3.881507e-12    1.031183e-08    1.293516e-09    3.300000e-01    5.372750e-01    3.782531e-02
    2.604137e+01    2.460447e+02    2.635209e-04    5.806592e+04    1.880952e-08    4.200762e-12    1.093845e-08    1.358805e-09    3.400000e-01    5.372750e-01    3.787449e-02
    2.591670e+01    2.451701e+02    3.417002e-04    7.312415e+04    1.927454e-08    4.544649e-12    1.157838e-08    1.424841e-09    3.500000e-01    5.372750e-01    3.793782e-02
    2.577941e+01    2.442920e+02    4.424929e-04    9.192539e+04    1.974985e-08    4.914800e-12    1.222952e-08    1.491398e-09    3.600000e-01    5.372750e-01    3.801919e-02
    2.563018e+01    2.434386e+02    5.721960e-04    1.153563e+05    2.023370e-08    5.312940e-12    1.288960e-08    1.558248e-09    3.700000e-01    5.372750e-01    3.812343e-02
    2.546989e+01    2.426468e+02    7.387730e-04    1.445036e+05    2.072429e-08    5.740875e-12    1.355636e-08    1.625157e-09    3.800000e-01    5.372750e-01    3.825652e-02
    2.529979e+01    2.419636e+02    9.522685e-04    1.806992e+05    2.121974e-08    6.200530e-12    1.422744e-08    1.691896e-09    3.900000e-01    5.372750e-01    3.842586e-02
    2.512142e+01    2.414473e+02    1.225322e-03    2.255747e+05    2.171823e-08    6.693910e-12    1.490049e-08    1.758240e-09    4.000000e-01    5.372750e-01    3.864047e-02
    2.493665e+01    2.411685e+02    1.573809e-03    2.811303e+05    2.221788e-08    7.223140e-12    1.557318e-08    1.823970e-09    4.100000e-01    5.372750e-01    3.891122e-02
    2.474752e+01    2.412096e+02    2.017627e-03    3.498195e+05    2.271689e-08    7.790470e-12    1.624326e-08    1.888880e-09    4.200000e-01    5.372750e-01    3.925114e-02
    2.455615e+01    2.416642e+02    2.581684e-03    4.346532e+05    2.321349e-08    8.398260e-12    1.690853e-08    1.952774e-09    4.300000e-01    5.372750e-01    3.967562e-02
    2.436440e+01    2.426348e+02    3.297103e-03    5.393242e+05    2.370601e-08    9.049020e-12    1.756691e-08    2.015474e-09    4.400000e-01    5.372750e-01    4.020257e-02
    2.417352e+01    2.442284e+02    4.202723e-03    6.683488e+05    2.419288e-08    9.745385e-12    1.821648e-08    2.076815e-09    4.500000e-01    5.372750e-01    4.085252e-02
    2.398373e+01    2.465522e+02    5.346905e-03    8.272258e+05    2.467262e-08    1.049016e-11    1.885543e-08    2.136652e-09    4.600000e-01    5.372750e-01    4.164862e-02
    2.379372e+01    2.497052e+02    6.789700e-03    1.022588e+06    2.514389e-08    1.128631e-11    1.948213e-08    2.194857e-09    4.700000e-01    5.372750e-01    4.261647e-02
    2.360041e+01    2.537697e+02    8.605335e-03    1.262335e+06    2.560549e-08    1.213697e-11    2.009513e-08    2.251323e-09    4.800000e-01    5.372750e-01    4.378374e-02
    2.339859e+01    2.588010e+02    1.088501e-02    1.555699e+06    2.605634e-08    1.304548e-11    2.069317e-08    2.305960e-09    4.900000e-01    5.372750e-01    4.517962e-02
    2.318109e+01    2.648195e+02    1.373987e-02    1.913216e+06    2.649553e-08    1.401537e-11    2.127514e-08    2.358697e-09    5.000000e-01    5.372750e-01    4.683402e-02
    2.293920e+01    2.717998e+02    1.730383e-02    2.346544e+06    2.692227e-08    1.505041e-11    2.184014e-08    2.409482e-09    5.100000e-01    5.372750e-01    4.877666e-02
    2.266341e+01    2.796658e+02    2.173607e-02    2.868089e+06    2.733592e-08    1.615459e-11    2.238745e-08    2.458281e-09    5.200000e-01    5.372750e-01    5.103584e-02
    2.234446e+01    2.882881e+02    2.722272e-02    3.490423e+06    2.773597e-08    1.733217e-11    2.291650e-08    2.505075e-09    5.300000e-01    5.372750e-01    5.363730e-02
    2.197446e+01    2.974862e+02    3.397727e-02    4.225514e+06    2.812207e-08    1.858770e-11    2.342690e-08    2.549859e-09    5.400000e-01    5.372750e-01    5.660299e-02
    2.154781e+01    3.070347e+02    4.223933e-02    5.083794e+06    2.849393e-08    1.992600e-11    2.391841e-08    2.592643e-09    5.500000e-01    5.372750e-01    5.994993e-02
    2.106201e+01    3.166755e+02    5.227145e-02    6.073195e+06    2.885143e-08    2.135224e-11    2.439093e-08    2.633450e-09    5.600000e-01    5.372750e-01    6.368937e-02
    2.051797e+01    3.261331e+02    6.435390e-02    7.198267e+06    2.919453e-08    2.287193e-11    2.484447e-08    2.672311e-09    5.700000e-01    5.372750e-01    6.782614e-02
    1.991981e+01    3.351304e+02    7.877760e-02    8.459471e+06    2.952329e-08    2.449095e-11    2.527919e-08    2.709270e-09    5.800000e-01    5.372750e-01    7.235841e-02
    1.927439e+01    3.434064e+02    9.583575e-02    9.852831e+06    2.983784e-08    2.621560e-11    2.569532e-08    2.744377e-09    5.900000e-01    5.372750e-01    7.727783e-02
    1.859070e+01    3.507309e+02    1.158144e-01    1.136995e+07    3.013840e-08    2.805262e-11    2.609319e-08    2.777688e-09    6.000000e-01    5.372750e-01    8.256997e-02
    1.787888e+01    3.569156e+02    1.389837e-01    1.299840e+07    3.042525e-08    3.000923e-11    2.647319e-08    2.809265e-09    6.100000e-01    5.372750e-01    8.821512e-02
    1.714949e+01    3.618228e+02    1.655889e-01    1.472253e+07    3.069870e-08    3.209315e-11    2.683580e-08    2.839174e-09    6.200000e-01    5.372750e-01    9.418924e-02
    1.641279e+01    3.653661e+02    1.958447e-01    1.652439e+07    3.095914e-08    3.431266e-11    2.718153e-08    2.867485e-09    6.300000e-01    5.372750e-01    1.004651e-01
    1.567828e+01    3.675112e+02    2.299292e-01    1.838489e+07    3.120698e-08    3.667664e-11    2.751093e-08    2.894270e-09    6.400000e-01    5.372750e-01    1.070134e-01
    1.495424e+01    3.682693e+02    2.679827e-01    2.028486e+07    3.144265e-08    3.919465e-11    2.782460e-08    2.919601e-09    6.500000e-01    5.372750e-01    1.138040e-01
    1.424762e+01    3.676914e+02    3.101062e-01    2.220606e+07    3.166660e-08    4.187690e-11    2.812314e-08    2.943552e-09    6.600000e-01    5.372750e-01    1.208066e-01
    1.356398e+01    3.658589e+02    3.563636e-01    2.413189e+07    3.187933e-08    4.473441e-11    2.840717e-08    2.966195e-09    6.700000e-01    5.372750e-01    1.279920e-01
    1.290747e+01    3.628750e+02    4.067850e-01    2.604799e+07    3.208130e-08    4.777897e-11    2.867733e-08    2.987604e-09    6.800000e-01    5.372750e-01    1.353323e-01
    1.228104e+01    3.588564e+02    4.613705e-01    2.794253e+07    3.227300e-08    5.102330e-11    2.893425e-08    3.007850e-09    6.900000e-01    5.372750e-01    1.428018e-01
    1.168653e+01    3.539266e+02    5.200955e-01    2.980630e+07    3.245493e-08    5.448110e-11    2.917854e-08    3.027003e-09    7.000000e-01    5.372750e-01    1.503771e-01
    1.112483e+01    3.482079e+02    5.829150e-01    3.163254e+07    3.262757e-08    5.816700e-11    2.941084e-08    3.045131e-09    7.100000e-01    5.372750e-01    1.580372e-01
    1.059610e+01    3.418188e+02    6.497700e-01    3.341688e+07    3.279139e-08    6.209690e-11    2.963176e-08    3.062300e-09    7.200000e-01    5.372750e-01    1.657639e-01
    1.009988e+01    3.348700e+02    7.205910e-01    3.515696e+07    3.294686e-08    6.628785e-11    2.984187e-08    3.078573e-09    7.300000e-01    5.372750e-01    1.735411e-01
    9.635296e+00    3.274617e+02    7.953020e-01    3.685209e+07    3.309445e-08    7.075820e-11    3.004177e-08    3.094012e-09    7.400000e-01    5.372750e-01    1.813553e-01
    9.201098e+00    3.196831e+02    8.738240e-01    3.850289e+07    3.323460e-08    7.552780e-11    3.023200e-08    3.108677e-09    7.500000e-01    5.372750e-01    1.891953e-01
    8.795842e+00    3.116120e+02    9.560785e-01    4.011107e+07    3.336775e-08    8.061795e-11    3.041309e-08    3.122623e-09    7.600000e-01    5.372750e-01    1.970516e-01
    8.417926e+00    3.033152e+02    1.041989e+00    4.167903e+07    3.349431e-08    8.605170e-11    3.058558e-08    3.135906e-09    7.700000e-01    5.372750e-01    2.049168e-01
    8.065685e+00    2.948486e+02    1.131483e+00    4.320962e+07    3.361468e-08    9.185395e-11    3.074993e-08    3.148575e-09    7.800000e-01    5.372750e-01    2.127846e-01
    7.737431e+00    2.862593e+02    1.224491e+00    4.470599e+07    3.372926e-08    9.805145e-11    3.090661e-08    3.160682e-09    7.900000e-01    5.372750e-01    2.206506e-01
    7.431491e+00    2.775858e+02    1.320951e+00    4.617137e+07    3.383841e-08    1.046731e-10    3.105609e-08    3.172272e-09    8.000000e-01    5.372750e-01    2.285111e-01
    7.146239e+00    2.688594e+02    1.420806e+00    4.760892e+07    3.394251e-08    1.117504e-10    3.119877e-08    3.183391e-09    8.100000e-01    5.372750e-01    2.363635e-01
    6.880121e+00    2.601059e+02    1.524003e+00    4.902171e+07    3.404188e-08    1.193168e-10    3.133505e-08    3.194081e-09    8.200000e-01    5.372750e-01    2.442061e-01
    6.631654e+00    2.513455e+02    1.630497e+00    5.041254e+07    3.413685e-08    1.274088e-10    3.146532e-08    3.204383e-09    8.300000e-01    5.372750e-01    2.520378e-01
    6.399454e+00    2.425955e+02    1.740249e+00    5.178404e+07    3.422776e-08    1.360660e-10    3.158992e-08    3.214336e-09    8.400000e-01    5.372750e-01    2.598580e-01
    6.182222e+00    2.338695e+02    1.853220e+00    5.313850e+07    3.431487e-08    1.453307e-10    3.170919e-08    3.223976e-09    8.500000e-01    5.372750e-01    2.676665e-01
    5.978755e+00    2.251793e+02    1.969379e+00    5.447795e+07    3.439849e-08    1.552490e-10    3.182345e-08    3.233341e-09    8.600000e-01    5.372750e-01    2.754635e-01
    5.787936e+00    2.165354e+02    2.088700e+00    5.580414e+07    3.447890e-08    1.658704e-10    3.193298e-08    3.242462e-09    8.700000e-01    5.372750e-01    2.832495e-01
    5.608739e+00    2.079469e+02    2.211156e+00    5.711853e+07    3.455635e-08    1.772487e-10    3.203805e-08    3.251372e-09    8.800000e-01    5.372750e-01    2.910252e-01
    5.440221e+00    1.994227e+02    2.336728e+00    5.842230e+07    3.463110e-08    1.894418e-10    3.213894e-08    3.260104e-09    8.900000e-01    5.372750e-01    2.987911e-01
    5.281517e+00    1.909717e+02    2.465397e+00    5.971642e+07    3.470339e-08    2.025123e-10    3.223587e-08    3.268688e-09    9.000000e-01    5.372750e-01    3.065484e-01
    5.131833e+00    1.826026e+02    2.597144e+00    6.100154e+07    3.477346e-08    2.165276e-10    3.232905e-08    3.277152e-09    9.100000e-01    5.372750e-01    3.142978e-01
    4.990452e+00    1.743251e+02    2.731954e+00    6.227823e+07    3.484153e-08    2.315606e-10    3.241871e-08    3.285525e-09    9.200000e-01    5.372750e-01    3.220403e-01
    4.856708e+00    1.661486e+02    2.869813e+00    6.354672e+07    3.490781e-08    2.476901e-10    3.250502e-08    3.293834e-09    9.300000e-01    5.372750e-01    3.297769e-01
    4.729999e+00    1.580835e+02    3.010707e+00    6.480710e+07    3.497253e-08    2.650009e-10    3.258817e-08    3.302108e-09    9.400000e-01    5.372750e-01    3.375086e-01
    4.609779e+00    1.501408e+02    3.154621e+00    6.605936e+07    3.503588e-08    2.835842e-10    3.266829e-08    3.310371e-09    9.500000e-01    5.372750e-01    3.452363e-01
    4.495541e+00    1.423319e+02    3.301544e+00    6.730323e+07    3.509807e-08    3.035385e-10    3.274555e-08    3.318651e-09    9.600000e-01    5.372750e-01    3.529610e-01
    4.386826e+00    1.346687e+02    3.451461e+00    6.853832e+07    3.515929e-08    3.249696e-10    3.282007e-08    3.326972e-09    9.700000e-01    5.372750e-01    3.606834e-01
    4.283218e+00    1.271634e+02    3.604359e+00    6.976413e+07    3.521974e-08    3.479912e-10    3.289196e-08    3.335361e-09    9.800000e-01    5.372750e-01    3.684045e-01
    4.184333e+00    1.198285e+02    3.760221e+00    7.098001e+07    3.527960e-08    3.727253e-10    3.296135e-08    3.343843e-09    9.900000e-01    5.372750e-01    3.761250e-01
    4.089818e+00    1.126764e+02    3.919033e+00    7.218515e+07    3.533907e-08    3.993028e-10    3.302832e-08    3.352443e-09    1.000000e+00    5.372750e-01    3.838458e-01
    3.999349e+00    1.057197e+02    4.080777e+00    7.337864e+07    3.539832e-08    4.278638e-10    3.309294e-08    3.361187e-09    1.010000e+00    5.372750e-01    3.915674e-01
    3.912632e+00    9.897028e+01    4.245436e+00    7.455941e+07    3.545756e-08    4.585577e-10    3.315528e-08    3.370099e-09    1.020000e+00    5.372750e-01    3.992907e-01
    3.829393e+00    9.243991e+01    4.412987e+00    7.572635e+07    3.551695e-08    4.915439e-10    3.321543e-08    3.379204e-09    1.030000e+00    5.372750e-01    4.070161e-01
    3.749377e+00    8.613942e+01    4.583409e+00    7.687805e+07    3.557669e-08    5.269920e-10    3.327339e-08    3.388529e-09    1.040000e+00    5.372750e-01    4.147442e-01
    3.672354e+00    8.007898e+01    4.756677e+00    7.801311e+07    3.563697e-08    5.650820e-10    3.332924e-08    3.398100e-09    1.050000e+00    5.372750e-01    4.224757e-01
    3.598103e+00    7.426757e+01    4.932764e+00    7.912992e+07    3.569795e-08    6.060040e-10    3.338298e-08    3.407941e-09    1.060000e+00    5.372750e-01    4.302109e-01
    3.526419e+00    6.871303e+01    5.111640e+00    8.022666e+07    3.575985e-08    6.499585e-10    3.343463e-08    3.418079e-09    1.070000e+00    5.372750e-01    4.379504e-01
    3.457120e+00    6.342186e+01    5.293265e+00    8.130145e+07    3.582283e-08    6.971570e-10    3.348420e-08    3.428538e-09    1.080000e+00    5.372750e-01    4.456946e-01
    3.390014e+00    5.839908e+01    5.477615e+00    8.235212e+07    3.588710e-08    7.478190e-10    3.353169e-08    3.439345e-09    1.090000e+00    5.372750e-01    4.534439e-01
    3.324943e+00    5.364815e+01    5.664635e+00    8.337642e+07    3.595283e-08    8.021745e-10    3.357707e-08    3.450526e-09    1.100000e+00    5.372750e-01    4.611986e-01
    3.261741e+00    4.917089e+01    5.854290e+00    8.437181e+07    3.602022e-08    8.604615e-10    3.362033e-08    3.462106e-09    1.110000e+00    5.372750e-01    4.689591e-01
    3.200256e+00    4.496740e+01    6.046525e+00    8.533559e+07    3.608947e-08    9.229245e-10    3.366144e-08    3.474109e-09    1.120000e+00    5.372750e-01    4.767257e-01
    3.140347e+00    4.103614e+01    6.241280e+00    8.626491e+07    3.616074e-08    9.898150e-10    3.370035e-08    3.486561e-09    1.130000e+00    5.372750e-01    4.844986e-01
    3.081874e+00    3.737380e+01    6.438495e+00    8.715662e+07    3.623423e-08    1.061386e-09    3.373702e-08    3.499485e-09    1.140000e+00    5.372750e-01    4.922783e-01
    3.024704e+00    3.397551e+01    6.638105e+00    8.800749e+07    3.631011e-08    1.137895e-09    3.377139e-08    3.512903e-09    1.150000e+00    5.372750e-01    5.000648e-01
    2.968713e+00    3.083475e+01    6.840035e+00    8.881406e+07    3.638857e-08    1.219596e-09    3.380339e-08    3.526836e-09    1.160000e+00    5.372750e-01    5.078585e-01
    2.913784e+00    2.794358e+01    7.044200e+00    8.957282e+07    3.646975e-08    1.306742e-09    3.383297e-08    3.541306e-09    1.170000e+00    5.372750e-01    5.156596e-01
    2.859806e+00    2.529271e+01    7.250510e+00    9.028014e+07    3.655384e-08    1.399576e-09    3.386005e-08    3.556330e-09    1.180000e+00    5.372750e-01    5.234683e-01
    2.806678e+00    2.287163e+01    7.458870e+00    9.093244e+07    3.664097e-08    1.498332e-09    3.388456e-08    3.571924e-09    1.190000e+00    5.372750e-01    5.312847e-01
    2.754312e+00    2.066889e+01    7.669165e+00    9.152619e+07    3.673127e-08    1.603231e-09    3.390642e-08    3.588102e-09    1.200000e+00    5.372750e-01    5.391091e-01
    2.702623e+00    1.867213e+01    7.881295e+00    9.205816e+07    3.682485e-08    1.714472e-09    3.392556e-08    3.604876e-09    1.210000e+00    5.372750e-01    5.469416e-01
    2.651549e+00    1.686846e+01    8.095130e+00    9.252532e+07    3.692182e-08    1.832234e-09    3.394189e-08    3.622254e-09    1.220000e+00    5.372750e-01    5.547824e-01
    2.601036e+00    1.524452e+01    8.310545e+00    9.292513e+07    3.702225e-08    1.956666e-09    3.395535e-08    3.640239e-09    1.230000e+00    5.372750e-01    5.626316e-01
    2.551047e+00    1.378680e+01    8.527405e+00    9.325562e+07    3.712620e-08    2.087889e-09    3.396587e-08    3.658836e-09    1.240000e+00    5.372750e-01    5.704894e-01
    2.501560e+00    1.248179e+01    8.745575e+00    9.351546e+07    3.723369e-08    2.225984e-09    3.397341e-08    3.678041e-09    1.250000e+00    5.372750e-01    5.783560e-01
    2.452572e+00    1.131620e+01    8.964910e+00    9.370413e+07    3.734471e-08    2.370997e-09    3.397788e-08    3.697849e-09    1.260000e+00    5.372750e-01    5.862314e-01
    2.404093e+00    1.027712e+01    9.185265e+00    9.382184e+07    3.745926e-08    2.522928e-09    3.397927e-08    3.718251e-09    1.270000e+00    5.372750e-01    5.941158e-01
    2.356146e+00    9.352200e+00    9.406505e+00    9.386970e+07    3.757726e-08    2.681734e-09    3.397754e-08    3.739234e-09    1.280000e+00    5.372750e-01    6.020094e-01
    2.308766e+00    8.529720e+00    9.628480e+00    9.384956e+07    3.769863e-08    2.847323e-09    3.397269e-08    3.760782e-09    1.290000e+00    5.372750e-01    6.099122e-01
    2.261997e+00    7.798751e+00    9.851060e+00    9.376407e+07    3.782324e-08    3.019557e-09    3.396470e-08    3.782875e-09    1.300000e+00    5.372750e-01    6.178243e-01
    2.215892e+00    7.149162e+00    1.007410e+01    9.361645e+07    3.795096e-08    3.198248e-09    3.395359e-08    3.805490e-09    1.310000e+00    5.372750e-01    6.257459e-01
    2.170501e+00    6.571690e+00    1.029748e+01    9.341055e+07    3.808161e-08    3.383162e-09    3.393940e-08    3.828601e-09    1.320000e+00    5.372750e-01    6.336771e-01
    2.125879e+00    6.057922e+00    1.052107e+01    9.315051e+07    3.821497e-08    3.574019e-09    3.392219e-08    3.852180e-09    1.330000e+00    5.372750e-01    6.416179e-01
    2.082075e+00    5.600296e+00    1.074477e+01    9.284080e+07    3.835084e-08    3.770498e-09    3.390200e-08    3.876196e-09    1.340000e+00    5.372750e-01    6.495686e-01
    2.039133e+00    5.192051e+00    1.096847e+01    9.248593e+07    3.848895e-08    3.972237e-09    3.387893e-08    3.900618e-09    1.350000e+00    5.372750e-01    6.575291e-01
