# sky130 nfet_01v8 gm/ID Processed Lookup Table
# Corner: tt
# Temperature: 25C
# W = 2.0 um
# L = 4.5 um (4500 nm)
# Columns: gm/id [1/V]  gm/gds [V/V]  id/W [A/m]  ft [Hz]  Cgg/W [F/m]  Cgd/W [F/m]  Cgs/W [F/m]  Cdb/W [F/m]  vgs [V]  vth [V]  vdsat [V]
# vdsat = BSIM4 saturation voltage (|VDS|_sat, positive); use for headroom / saturation / cascode-bias calculations
#           gm/id          gm/gds            id/W              ft           Cgg/W           Cgd/W           Cgs/W           Cdb/W             vgs             vth           vdsat
    2.649486e+01    2.123119e+02    3.762935e-05    1.366491e+04    1.161186e-08    1.610157e-12    4.657090e-09    6.348815e-10    2.600000e-01    5.422676e-01    3.826971e-02
    2.649267e+01    2.119247e+02    4.904502e-05    1.744425e+04    1.185465e-08    1.745053e-12    5.012540e-09    6.749030e-10    2.700000e-01    5.422676e-01    3.827664e-02
    2.647199e+01    2.114944e+02    6.391640e-05    2.223312e+04    1.211208e-08    1.891063e-12    5.385445e-09    7.164070e-10    2.800000e-01    5.422676e-01    3.828565e-02
    2.643492e+01    2.110192e+02    8.327295e-05    2.829100e+04    1.238380e-08    2.049006e-12    5.775295e-09    7.593115e-10    2.900000e-01    5.422676e-01    3.829738e-02
    2.638290e+01    2.104972e+02    1.084431e-04    3.594114e+04    1.266930e-08    2.219752e-12    6.181430e-09    8.035200e-10    3.000000e-01    5.422676e-01    3.831261e-02
    2.631693e+01    2.099277e+02    1.411377e-04    4.558543e+04    1.296798e-08    2.404215e-12    6.603015e-09    8.489215e-10    3.100000e-01    5.422676e-01    3.833239e-02
    2.623760e+01    2.093115e+02    1.835559e-04    5.772252e+04    1.327906e-08    2.603365e-12    7.039055e-09    8.953905e-10    3.200000e-01    5.422676e-01    3.835802e-02
    2.614528e+01    2.086515e+02    2.385179e-04    7.296961e+04    1.360167e-08    2.818222e-12    7.488395e-09    9.427910e-10    3.300000e-01    5.422676e-01    3.839118e-02
    2.604021e+01    2.079531e+02    3.096313e-04    9.208905e+04    1.393483e-08    3.049865e-12    7.949750e-09    9.909740e-10    3.400000e-01    5.422676e-01    3.843401e-02
    2.592265e+01    2.072254e+02    4.014997e-04    1.160205e+05    1.427743e-08    3.299428e-12    8.421695e-09    1.039783e-09    3.500000e-01    5.422676e-01    3.848920e-02
    2.579282e+01    2.064817e+02    5.199820e-04    1.459198e+05    1.462828e-08    3.568108e-12    8.902710e-09    1.089055e-09    3.600000e-01    5.422676e-01    3.856017e-02
    2.565116e+01    2.057408e+02    6.725145e-04    1.832060e+05    1.498612e-08    3.857166e-12    9.391180e-09    1.138620e-09    3.700000e-01    5.422676e-01    3.865119e-02
    2.549832e+01    2.050281e+02    8.685110e-04    2.296195e+05    1.534964e-08    4.167931e-12    9.885420e-09    1.188310e-09    3.800000e-01    5.422676e-01    3.876756e-02
    2.533523e+01    2.043766e+02    1.119856e-03    2.872926e+05    1.571748e-08    4.501802e-12    1.038372e-08    1.237952e-09    3.900000e-01    5.422676e-01    3.891586e-02
    2.516314e+01    2.038280e+02    1.441522e-03    3.588370e+05    1.608826e-08    4.860257e-12    1.088433e-08    1.287378e-09    4.000000e-01    5.422676e-01    3.910415e-02
    2.498367e+01    2.034333e+02    1.852320e-03    4.474521e+05    1.646061e-08    5.244850e-12    1.138553e-08    1.336425e-09    4.100000e-01    5.422676e-01    3.934225e-02
    2.479868e+01    2.032535e+02    2.375848e-03    5.570600e+05    1.683315e-08    5.657230e-12    1.188560e-08    1.384938e-09    4.200000e-01    5.422676e-01    3.964194e-02
    2.461024e+01    2.033590e+02    3.041653e-03    6.924713e+05    1.720457e-08    6.099125e-12    1.238291e-08    1.432765e-09    4.300000e-01    5.422676e-01    4.001728e-02
    2.442034e+01    2.038285e+02    3.886677e-03    8.595865e+05    1.757360e-08    6.572370e-12    1.287587e-08    1.479770e-09    4.400000e-01    5.422676e-01    4.048475e-02
    2.423063e+01    2.047464e+02    4.957039e-03    1.065635e+06    1.793902e-08    7.078900e-12    1.336299e-08    1.525825e-09    4.500000e-01    5.422676e-01    4.106348e-02
    2.404201e+01    2.061992e+02    6.310220e-03    1.319446e+06    1.829969e-08    7.620765e-12    1.384289e-08    1.570817e-09    4.600000e-01    5.422676e-01    4.177525e-02
    2.385422e+01    2.082706e+02    8.017700e-03    1.631734e+06    1.865459e-08    8.200140e-12    1.431429e-08    1.614644e-09    4.700000e-01    5.422676e-01    4.264446e-02
    2.366539e+01    2.110337e+02    1.016807e-02    2.015373e+06    1.900276e-08    8.819315e-12    1.477606e-08    1.657222e-09    4.800000e-01    5.422676e-01    4.369785e-02
    2.347171e+01    2.145446e+02    1.287058e-02    2.485599e+06    1.934335e-08    9.480735e-12    1.522718e-08    1.698475e-09    4.900000e-01    5.422676e-01    4.496414e-02
    2.326734e+01    2.188329e+02    1.625907e-02    3.060088e+06    1.967562e-08    1.018699e-11    1.566677e-08    1.738346e-09    5.000000e-01    5.422676e-01    4.647330e-02
    2.304456e+01    2.238948e+02    2.049599e-02    3.758810e+06    1.999895e-08    1.094083e-11    1.609409e-08    1.776789e-09    5.100000e-01    5.422676e-01    4.825577e-02
    2.279436e+01    2.296857e+02    2.577618e-02    4.603588e+06    2.031279e-08    1.174517e-11    1.650853e-08    1.813771e-09    5.200000e-01    5.422676e-01    5.034132e-02
    2.250722e+01    2.361168e+02    3.232992e-02    5.617293e+06    2.061672e-08    1.260315e-11    1.690962e-08    1.849273e-09    5.300000e-01    5.422676e-01    5.275794e-02
    2.217421e+01    2.430547e+02    4.042473e-02    6.822650e+06    2.091040e-08    1.351805e-11    1.729699e-08    1.883287e-09    5.400000e-01    5.422676e-01    5.553053e-02
    2.178810e+01    2.503250e+02    5.036515e-02    8.240714e+06    2.119361e-08    1.449342e-11    1.767040e-08    1.915814e-09    5.500000e-01    5.422676e-01    5.867972e-02
    2.134423e+01    2.577205e+02    6.249025e-02    9.889132e+06    2.146618e-08    1.553305e-11    1.802974e-08    1.946867e-09    5.600000e-01    5.422676e-01    6.222077e-02
    2.084114e+01    2.650125e+02    7.716815e-02    1.178036e+07    2.172806e-08    1.664093e-11    1.837495e-08    1.976466e-09    5.700000e-01    5.422676e-01    6.616278e-02
    2.028074e+01    2.719648e+02    9.478795e-02    1.392016e+07    2.197924e-08    1.782138e-11    1.870611e-08    2.004637e-09    5.800000e-01    5.422676e-01    7.050815e-02
    1.966804e+01    2.783494e+02    1.157494e-01    1.630645e+07    2.221981e-08    1.907900e-11    1.902335e-08    2.031417e-09    5.900000e-01    5.422676e-01    7.525245e-02
    1.901063e+01    2.839597e+02    1.404503e-01    1.892890e+07    2.244987e-08    2.041870e-11    1.932688e-08    2.056843e-09    6.000000e-01    5.422676e-01    8.038470e-02
    1.831788e+01    2.886233e+02    1.692745e-01    2.176921e+07    2.266962e-08    2.184575e-11    1.961695e-08    2.080961e-09    6.100000e-01    5.422676e-01    8.588789e-02
    1.760012e+01    2.922094e+02    2.025786e-01    2.480203e+07    2.287928e-08    2.336578e-11    1.989391e-08    2.103816e-09    6.200000e-01    5.422676e-01    9.173992e-02
    1.686789e+01    2.946335e+02    2.406818e-01    2.799661e+07    2.307909e-08    2.498485e-11    2.015809e-08    2.125460e-09    6.300000e-01    5.422676e-01    9.791464e-02
    1.613124e+01    2.958579e+02    2.838572e-01    3.131868e+07    2.326936e-08    2.670943e-11    2.040991e-08    2.145945e-09    6.400000e-01    5.422676e-01    1.043830e-01
    1.539933e+01    2.958878e+02    3.323260e-01    3.473253e+07    2.345039e-08    2.854648e-11    2.064978e-08    2.165324e-09    6.500000e-01    5.422676e-01    1.111143e-01
    1.468010e+01    2.947668e+02    3.862560e-01    3.820306e+07    2.362252e-08    3.050346e-11    2.087815e-08    2.183651e-09    6.600000e-01    5.422676e-01    1.180773e-01
    1.398004e+01    2.925672e+02    4.457609e-01    4.169727e+07    2.378608e-08    3.258840e-11    2.109547e-08    2.200981e-09    6.700000e-01    5.422676e-01    1.252408e-01
    1.330432e+01    2.893842e+02    5.109045e-01    4.518581e+07    2.394144e-08    3.480990e-11    2.130221e-08    2.217367e-09    6.800000e-01    5.422676e-01    1.325753e-01
    1.265674e+01    2.853267e+02    5.817050e-01    4.864372e+07    2.408896e-08    3.717725e-11    2.149883e-08    2.232863e-09    6.900000e-01    5.422676e-01    1.400526e-01
    1.203991e+01    2.805102e+02    6.581415e-01    5.205078e+07    2.422899e-08    3.970040e-11    2.168580e-08    2.247522e-09    7.000000e-01    5.422676e-01    1.476472e-01
    1.145536e+01    2.750506e+02    7.401620e-01    5.539165e+07    2.436191e-08    4.239007e-11    2.186359e-08    2.261394e-09    7.100000e-01    5.422676e-01    1.553356e-01
    1.090378e+01    2.690605e+02    8.276885e-01    5.865566e+07    2.448806e-08    4.525780e-11    2.203264e-08    2.274529e-09    7.200000e-01    5.422676e-01    1.630975e-01
    1.038512e+01    2.626445e+02    9.206265e-01    6.183615e+07    2.460779e-08    4.831603e-11    2.219341e-08    2.286976e-09    7.300000e-01    5.422676e-01    1.709147e-01
    9.898804e+00    2.558980e+02    1.018868e+00    6.493019e+07    2.472146e-08    5.157815e-11    2.234634e-08    2.298781e-09    7.400000e-01    5.422676e-01    1.787718e-01
    9.443812e+00    2.489049e+02    1.122300e+00    6.793757e+07    2.482940e-08    5.505860e-11    2.249183e-08    2.309988e-09    7.500000e-01    5.422676e-01    1.866560e-01
    9.018849e+00    2.417387e+02    1.230805e+00    7.086054e+07    2.493194e-08    5.877295e-11    2.263030e-08    2.320641e-09    7.600000e-01    5.422676e-01    1.945562e-01
    8.622402e+00    2.344615e+02    1.344270e+00    7.370292e+07    2.502940e-08    6.273800e-11    2.276213e-08    2.330780e-09    7.700000e-01    5.422676e-01    2.024638e-01
    8.252838e+00    2.271249e+02    1.462586e+00    7.646971e+07    2.512207e-08    6.697180e-11    2.288770e-08    2.340445e-09    7.800000e-01    5.422676e-01    2.103716e-01
    7.908482e+00    2.197714e+02    1.585647e+00    7.916668e+07    2.521026e-08    7.149400e-11    2.300736e-08    2.349674e-09    7.900000e-01    5.422676e-01    2.182739e-01
    7.587641e+00    2.124353e+02    1.713356e+00    8.179987e+07    2.529425e-08    7.632555e-11    2.312146e-08    2.358503e-09    8.000000e-01    5.422676e-01    2.261667e-01
    7.288647e+00    2.051438e+02    1.845625e+00    8.437544e+07    2.537433e-08    8.148935e-11    2.323032e-08    2.366965e-09    8.100000e-01    5.422676e-01    2.340468e-01
    7.009888e+00    1.979175e+02    1.982373e+00    8.689930e+07    2.545073e-08    8.700995e-11    2.333424e-08    2.375093e-09    8.200000e-01    5.422676e-01    2.419119e-01
    6.749824e+00    1.907724e+02    2.123527e+00    8.937711e+07    2.552372e-08    9.291395e-11    2.343351e-08    2.382918e-09    8.300000e-01    5.422676e-01    2.497606e-01
    6.507002e+00    1.837206e+02    2.269021e+00    9.181407e+07    2.559354e-08    9.923000e-11    2.352841e-08    2.390470e-09    8.400000e-01    5.422676e-01    2.575921e-01
    6.280052e+00    1.767706e+02    2.418799e+00    9.421487e+07    2.566041e-08    1.059892e-10    2.361920e-08    2.397778e-09    8.500000e-01    5.422676e-01    2.654060e-01
    6.067700e+00    1.699285e+02    2.572809e+00    9.658368e+07    2.572456e-08    1.132250e-10    2.370610e-08    2.404868e-09    8.600000e-01    5.422676e-01    2.732026e-01
    5.868766e+00    1.631988e+02    2.731005e+00    9.892412e+07    2.578620e-08    1.209736e-10    2.378936e-08    2.411766e-09    8.700000e-01    5.422676e-01    2.809821e-01
    5.682155e+00    1.565843e+02    2.893349e+00    1.012392e+08    2.584552e-08    1.292742e-10    2.386918e-08    2.418497e-09    8.800000e-01    5.422676e-01    2.887452e-01
    5.506864e+00    1.500870e+02    3.059803e+00    1.035315e+08    2.590272e-08    1.381689e-10    2.394576e-08    2.425086e-09    8.900000e-01    5.422676e-01    2.964926e-01
    5.341972e+00    1.437085e+02    3.230337e+00    1.058031e+08    2.595799e-08    1.477035e-10    2.401929e-08    2.431555e-09    9.000000e-01    5.422676e-01    3.042254e-01
    5.186634e+00    1.374501e+02    3.404921e+00    1.080556e+08    2.601151e-08    1.579272e-10    2.408993e-08    2.437926e-09    9.100000e-01    5.422676e-01    3.119444e-01
    5.040075e+00    1.313130e+02    3.583530e+00    1.102901e+08    2.606344e-08    1.688934e-10    2.415785e-08    2.444222e-09    9.200000e-01    5.422676e-01    3.196508e-01
    4.901591e+00    1.252982e+02    3.766139e+00    1.125073e+08    2.611396e-08    1.806593e-10    2.422319e-08    2.450464e-09    9.300000e-01    5.422676e-01    3.273456e-01
    4.770537e+00    1.194075e+02    3.952724e+00    1.147077e+08    2.616323e-08    1.932869e-10    2.428608e-08    2.456671e-09    9.400000e-01    5.422676e-01    3.350298e-01
    4.646325e+00    1.136425e+02    4.143263e+00    1.168913e+08    2.621140e-08    2.068430e-10    2.434666e-08    2.462864e-09    9.500000e-01    5.422676e-01    3.427044e-01
    4.528420e+00    1.080054e+02    4.337735e+00    1.190578e+08    2.625863e-08    2.213997e-10    2.440502e-08    2.469064e-09    9.600000e-01    5.422676e-01    3.503706e-01
    4.416330e+00    1.024984e+02    4.536118e+00    1.212067e+08    2.630506e-08    2.370342e-10    2.446129e-08    2.475290e-09    9.700000e-01    5.422676e-01    3.580292e-01
    4.309609e+00    9.712456e+01    4.738388e+00    1.233372e+08    2.635084e-08    2.538297e-10    2.451554e-08    2.481560e-09    9.800000e-01    5.422676e-01    3.656812e-01
    4.207849e+00    9.188688e+01    4.944522e+00    1.254482e+08    2.639612e-08    2.718758e-10    2.456788e-08    2.487896e-09    9.900000e-01    5.422676e-01    3.733274e-01
    4.110674e+00    8.678870e+01    5.154495e+00    1.275383e+08    2.644104e-08    2.912681e-10    2.461835e-08    2.494315e-09    1.000000e+00    5.422676e-01    3.809688e-01
    4.017744e+00    8.183363e+01    5.368280e+00    1.296061e+08    2.648574e-08    3.121095e-10    2.466705e-08    2.500837e-09    1.010000e+00    5.422676e-01    3.886060e-01
    3.928740e+00    7.702547e+01    5.585855e+00    1.316497e+08    2.653036e-08    3.345097e-10    2.471402e-08    2.507482e-09    1.020000e+00    5.422676e-01    3.962399e-01
    3.843378e+00    7.236801e+01    5.807180e+00    1.336671e+08    2.657504e-08    3.585857e-10    2.475930e-08    2.514268e-09    1.030000e+00    5.422676e-01    4.038711e-01
    3.761390e+00    6.786514e+01    6.032225e+00    1.356561e+08    2.661992e-08    3.844624e-10    2.480294e-08    2.521216e-09    1.040000e+00    5.422676e-01    4.115002e-01
    3.682528e+00    6.352063e+01    6.260955e+00    1.376141e+08    2.666514e-08    4.122722e-10    2.484498e-08    2.528345e-09    1.050000e+00    5.422676e-01    4.191278e-01
    3.606563e+00    5.933811e+01    6.493335e+00    1.395385e+08    2.671085e-08    4.421553e-10    2.488542e-08    2.535674e-09    1.060000e+00    5.422676e-01    4.267546e-01
    3.533285e+00    5.532096e+01    6.729315e+00    1.414261e+08    2.675717e-08    4.742599e-10    2.492429e-08    2.543224e-09    1.070000e+00    5.422676e-01    4.343809e-01
    3.462497e+00    5.147225e+01    6.968850e+00    1.432738e+08    2.680426e-08    5.087415e-10    2.496161e-08    2.551014e-09    1.080000e+00    5.422676e-01    4.420074e-01
    3.394010e+00    4.779463e+01    7.211890e+00    1.450781e+08    2.685225e-08    5.457640e-10    2.499736e-08    2.559065e-09    1.090000e+00    5.422676e-01    4.496343e-01
    3.327654e+00    4.429023e+01    7.458375e+00    1.468350e+08    2.690129e-08    5.854975e-10    2.503153e-08    2.567395e-09    1.100000e+00    5.422676e-01    4.572622e-01
    3.263264e+00    4.096065e+01    7.708245e+00    1.485404e+08    2.695153e-08    6.281180e-10    2.506414e-08    2.576025e-09    1.110000e+00    5.422676e-01    4.648914e-01
    3.200686e+00    3.780681e+01    7.961430e+00    1.501899e+08    2.700309e-08    6.738095e-10    2.509513e-08    2.584974e-09    1.120000e+00    5.422676e-01    4.725222e-01
    3.139771e+00    3.482891e+01    8.217860e+00    1.517788e+08    2.705613e-08    7.227585e-10    2.512449e-08    2.594261e-09    1.130000e+00    5.422676e-01    4.801550e-01
    3.080386e+00    3.202644e+01    8.477445e+00    1.533021e+08    2.711079e-08    7.751550e-10    2.515220e-08    2.603905e-09    1.140000e+00    5.422676e-01    4.877901e-01
    3.022394e+00    2.939803e+01    8.740105e+00    1.547544e+08    2.716719e-08    8.311930e-10    2.517820e-08    2.613923e-09    1.150000e+00    5.422676e-01    4.954277e-01
    2.965676e+00    2.694146e+01    9.005735e+00    1.561304e+08    2.722548e-08    8.910640e-10    2.520245e-08    2.624335e-09    1.160000e+00    5.422676e-01    5.030682e-01
    2.910114e+00    2.465372e+01    9.274230e+00    1.574242e+08    2.728578e-08    9.549590e-10    2.522492e-08    2.635154e-09    1.170000e+00    5.422676e-01    5.107117e-01
    2.855600e+00    2.253090e+01    9.545475e+00    1.586303e+08    2.734822e-08    1.023065e-09    2.524555e-08    2.646396e-09    1.180000e+00    5.422676e-01    5.183586e-01
    2.802033e+00    2.056828e+01    9.819350e+00    1.597427e+08    2.741290e-08    1.095560e-09    2.526427e-08    2.658073e-09    1.190000e+00    5.422676e-01    5.260089e-01
    2.749325e+00    1.876037e+01    1.009571e+01    1.607561e+08    2.747994e-08    1.172614e-09    2.528104e-08    2.670199e-09    1.200000e+00    5.422676e-01    5.336630e-01
    2.697394e+00    1.710095e+01    1.037443e+01    1.616651e+08    2.754942e-08    1.254385e-09    2.529580e-08    2.682783e-09    1.210000e+00    5.422676e-01    5.413209e-01
    2.646171e+00    1.558312e+01    1.065534e+01    1.624649e+08    2.762142e-08    1.341011e-09    2.530850e-08    2.695831e-09    1.220000e+00    5.422676e-01    5.489830e-01
    2.595603e+00    1.419948e+01    1.093829e+01    1.631514e+08    2.769600e-08    1.432614e-09    2.531907e-08    2.709348e-09    1.230000e+00    5.422676e-01    5.566492e-01
    2.545645e+00    1.294218e+01    1.122311e+01    1.637212e+08    2.777322e-08    1.529292e-09    2.532747e-08    2.723337e-09    1.240000e+00    5.422676e-01    5.643199e-01
    2.496271e+00    1.180304e+01    1.150963e+01    1.641723e+08    2.785310e-08    1.631119e-09    2.533366e-08    2.737799e-09    1.250000e+00    5.422676e-01    5.719951e-01
    2.447465e+00    1.077371e+01    1.179768e+01    1.645032e+08    2.793565e-08    1.738137e-09    2.533758e-08    2.752730e-09    1.260000e+00    5.422676e-01    5.796751e-01
    2.399228e+00    9.845796e+00    1.208706e+01    1.647143e+08    2.802084e-08    1.850359e-09    2.533923e-08    2.768123e-09    1.270000e+00    5.422676e-01    5.873599e-01
    2.351573e+00    9.010951e+00    1.237761e+01    1.648068e+08    2.810866e-08    1.967764e-09    2.533855e-08    2.783969e-09    1.280000e+00    5.422676e-01    5.950497e-01
    2.304524e+00    8.261040e+00    1.266914e+01    1.647836e+08    2.819904e-08    2.090295e-09    2.533554e-08    2.800258e-09    1.290000e+00    5.422676e-01    6.027446e-01
    2.258112e+00    7.588206e+00    1.296148e+01    1.646486e+08    2.829190e-08    2.217861e-09    2.533020e-08    2.816973e-09    1.300000e+00    5.422676e-01    6.104447e-01
    2.212378e+00    6.984977e+00    1.325445e+01    1.644068e+08    2.838712e-08    2.350332e-09    2.532254e-08    2.834098e-09    1.310000e+00    5.422676e-01    6.181502e-01
    2.167364e+00    6.444322e+00    1.354790e+01    1.640642e+08    2.848460e-08    2.487545e-09    2.531257e-08    2.851614e-09    1.320000e+00    5.422676e-01    6.258612e-01
    2.123116e+00    5.959697e+00    1.384166e+01    1.636276e+08    2.858418e-08    2.629300e-09    2.530032e-08    2.869497e-09    1.330000e+00    5.422676e-01    6.335778e-01
    2.079676e+00    5.525077e+00    1.413560e+01    1.631040e+08    2.868570e-08    2.775364e-09    2.528584e-08    2.887725e-09    1.340000e+00    5.422676e-01    6.413001e-01
