# sky130 nfet_01v8 gm/ID Processed Lookup Table
# Corner: tt
# Temperature: 25C
# W = 2.0 um
# L = 5.5 um (5500 nm)
# Columns: gm/id [1/V]  gm/gds [V/V]  id/W [A/m]  ft [Hz]  Cgg/W [F/m]  Cgd/W [F/m]  Cgs/W [F/m]  Cdb/W [F/m]  vgs [V]  vth [V]  vdsat [V]
# vdsat = BSIM4 saturation voltage (|VDS|_sat, positive); use for headroom / saturation / cascode-bias calculations
#           gm/id          gm/gds            id/W              ft           Cgg/W           Cgd/W           Cgs/W           Cdb/W             vgs             vth           vdsat
    2.651060e+01    2.392152e+02    4.394556e-05    1.270457e+04    1.459468e-08    2.182149e-12    6.291220e-09    8.440470e-10    2.700000e-01    5.386350e-01    3.785258e-02
    2.649095e+01    2.387057e+02    5.728135e-05    1.619047e+04    1.491666e-08    2.365031e-12    6.756390e-09    8.956910e-10    2.800000e-01    5.386350e-01    3.786255e-02
    2.645345e+01    2.381440e+02    7.464260e-05    2.059909e+04    1.525602e-08    2.562847e-12    7.242185e-09    9.490285e-10    2.900000e-01    5.386350e-01    3.787552e-02
    2.639981e+01    2.375289e+02    9.722135e-05    2.616502e+04    1.561210e-08    2.776679e-12    7.747725e-09    1.003934e-09    3.000000e-01    5.386350e-01    3.789238e-02
    2.633117e+01    2.368606e+02    1.265525e-04    3.317977e+04    1.598408e-08    3.007667e-12    8.271900e-09    1.060264e-09    3.100000e-01    5.386350e-01    3.791427e-02
    2.624832e+01    2.361408e+02    1.646079e-04    4.200472e+04    1.637097e-08    3.257017e-12    8.813420e-09    1.117860e-09    3.200000e-01    5.386350e-01    3.794263e-02
    2.615178e+01    2.353742e+02    2.139149e-04    5.308689e+04    1.677162e-08    3.526002e-12    9.370805e-09    1.176546e-09    3.300000e-01    5.386350e-01    3.797931e-02
    2.604194e+01    2.345692e+02    2.777045e-04    6.697801e+04    1.718479e-08    3.815960e-12    9.942405e-09    1.236136e-09    3.400000e-01    5.386350e-01    3.802667e-02
    2.591916e+01    2.337382e+02    3.600972e-04    8.435764e+04    1.760907e-08    4.128304e-12    1.052642e-08    1.296433e-09    3.500000e-01    5.386350e-01    3.808768e-02
    2.578387e+01    2.328996e+02    4.663327e-04    1.060612e+05    1.804295e-08    4.464522e-12    1.112092e-08    1.357232e-09    3.600000e-01    5.386350e-01    3.816608e-02
    2.563666e+01    2.320785e+02    6.030570e-04    1.331140e+05    1.848486e-08    4.826182e-12    1.172388e-08    1.418323e-09    3.700000e-01    5.386350e-01    3.826654e-02
    2.547836e+01    2.313084e+02    7.786765e-04    1.667729e+05    1.893316e-08    5.214935e-12    1.233322e-08    1.479497e-09    3.800000e-01    5.386350e-01    3.839486e-02
    2.531012e+01    2.306317e+02    1.003798e-03    2.085782e+05    1.938616e-08    5.632520e-12    1.294678e-08    1.540541e-09    3.900000e-01    5.386350e-01    3.855821e-02
    2.513341e+01    2.301018e+02    1.291771e-03    2.604165e+05    1.984214e-08    6.080775e-12    1.356245e-08    1.601251e-09    4.000000e-01    5.386350e-01    3.876533e-02
    2.495000e+01    2.297833e+02    1.659367e-03    3.246006e+05    2.029943e-08    6.561630e-12    1.417806e-08    1.661425e-09    4.100000e-01    5.386350e-01    3.902681e-02
    2.476193e+01    2.297520e+02    2.127609e-03    4.039664e+05    2.075636e-08    7.077135e-12    1.479156e-08    1.720874e-09    4.200000e-01    5.386350e-01    3.935533e-02
    2.457128e+01    2.300944e+02    2.722814e-03    5.019940e+05    2.121131e-08    7.629435e-12    1.540094e-08    1.779417e-09    4.300000e-01    5.386350e-01    3.976590e-02
    2.437998e+01    2.309059e+02    3.477878e-03    6.229518e+05    2.166274e-08    8.220815e-12    1.600427e-08    1.836889e-09    4.400000e-01    5.386350e-01    4.027606e-02
    2.418940e+01    2.322869e+02    4.433850e-03    7.720640e+05    2.210919e-08    8.853680e-12    1.659977e-08    1.893140e-09    4.500000e-01    5.386350e-01    4.090595e-02
    2.399995e+01    2.343386e+02    5.641865e-03    9.556964e+05    2.254931e-08    9.530575e-12    1.718579e-08    1.948032e-09    4.600000e-01    5.386350e-01    4.167837e-02
    2.381069e+01    2.371552e+02    7.165430e-03    1.181542e+06    2.298186e-08    1.025420e-11    1.776081e-08    2.001449e-09    4.700000e-01    5.386350e-01    4.261860e-02
    2.361881e+01    2.408167e+02    9.083135e-03    1.458788e+06    2.340571e-08    1.102742e-11    1.832348e-08    2.053289e-09    4.800000e-01    5.386350e-01    4.375409e-02
    2.341949e+01    2.453797e+02    1.149164e-02    1.798209e+06    2.381987e-08    1.185326e-11    1.887261e-08    2.103468e-09    4.900000e-01    5.386350e-01    4.511392e-02
    2.320595e+01    2.508669e+02    1.450890e-02    2.212165e+06    2.422348e-08    1.273493e-11    1.940719e-08    2.151919e-09    5.000000e-01    5.386350e-01    4.672809e-02
    2.296969e+01    2.572601e+02    1.827736e-02    2.714406e+06    2.461580e-08    1.367588e-11    1.992636e-08    2.198593e-09    5.100000e-01    5.386350e-01    4.862653e-02
    2.270131e+01    2.644930e+02    2.296678e-02    3.319684e+06    2.499622e-08    1.467972e-11    2.042944e-08    2.243456e-09    5.200000e-01    5.386350e-01    5.083801e-02
    2.239141e+01    2.724482e+02    2.877626e-02    4.043090e+06    2.536428e-08    1.575034e-11    2.091588e-08    2.286487e-09    5.300000e-01    5.386350e-01    5.338893e-02
    2.203177e+01    2.809596e+02    3.593498e-02    4.899169e+06    2.571961e-08    1.689186e-11    2.138533e-08    2.327682e-09    5.400000e-01    5.386350e-01    5.630207e-02
    2.161632e+01    2.898168e+02    4.470118e-02    5.900841e+06    2.606196e-08    1.810868e-11    2.183752e-08    2.367050e-09    5.500000e-01    5.386350e-01    5.959547e-02
    2.114194e+01    2.987766e+02    5.535910e-02    7.058218e+06    2.639118e-08    1.940551e-11    2.227234e-08    2.404605e-09    5.600000e-01    5.386350e-01    6.328149e-02
    2.060889e+01    3.075769e+02    6.821350e-02    8.377531e+06    2.670724e-08    2.078733e-11    2.268982e-08    2.440380e-09    5.700000e-01    5.386350e-01    6.736609e-02
    2.002069e+01    3.159525e+02    8.358250e-02    9.860234e+06    2.701017e-08    2.225952e-11    2.309005e-08    2.474411e-09    5.800000e-01    5.386350e-01    7.184861e-02
    1.938376e+01    3.236520e+02    1.017882e-01    1.150248e+07    2.730008e-08    2.382780e-11    2.347324e-08    2.506742e-09    5.900000e-01    5.386350e-01    7.672170e-02
    1.870673e+01    3.304517e+02    1.231466e-01    1.329508e+07    2.757716e-08    2.549829e-11    2.383968e-08    2.537425e-09    6.000000e-01    5.386350e-01    8.197182e-02
    1.799957e+01    3.361680e+02    1.479579e-01    1.522388e+07    2.784166e-08    2.727755e-11    2.418974e-08    2.566515e-09    6.100000e-01    5.386350e-01    8.757995e-02
    1.727281e+01    3.406644e+02    1.764966e-01    1.727063e+07    2.809386e-08    2.917260e-11    2.452380e-08    2.594073e-09    6.200000e-01    5.386350e-01    9.352250e-02
    1.653684e+01    3.438560e+02    2.090040e-01    1.941412e+07    2.833410e-08    3.119100e-11    2.484237e-08    2.620162e-09    6.300000e-01    5.386350e-01    9.977250e-02
    1.580130e+01    3.457067e+02    2.456825e-01    2.163152e+07    2.856276e-08    3.334079e-11    2.514593e-08    2.644846e-09    6.400000e-01    5.386350e-01    1.063007e-01
    1.507475e+01    3.462269e+02    2.866923e-01    2.389969e+07    2.878022e-08    3.563066e-11    2.543501e-08    2.668192e-09    6.500000e-01    5.386350e-01    1.130766e-01
    1.436440e+01    3.454647e+02    3.321508e-01    2.619636e+07    2.898691e-08    3.806991e-11    2.571016e-08    2.690268e-09    6.600000e-01    5.386350e-01    1.200697e-01
    1.367605e+01    3.434994e+02    3.821338e-01    2.850116e+07    2.918325e-08    4.066853e-11    2.597196e-08    2.711139e-09    6.700000e-01    5.386350e-01    1.272503e-01
    1.301416e+01    3.404325e+02    4.366791e-01    3.079635e+07    2.936968e-08    4.343727e-11    2.622099e-08    2.730873e-09    6.800000e-01    5.386350e-01    1.345900e-01
    1.238186e+01    3.363779e+02    4.957902e-01    3.306705e+07    2.954666e-08    4.638766e-11    2.645781e-08    2.749535e-09    6.900000e-01    5.386350e-01    1.420624e-01
    1.178122e+01    3.314576e+02    5.594430e-01    3.530172e+07    2.971463e-08    4.953215e-11    2.668299e-08    2.767189e-09    7.000000e-01    5.386350e-01    1.496436e-01
    1.121329e+01    3.257919e+02    6.275895e-01    3.749169e+07    2.987402e-08    5.288410e-11    2.689713e-08    2.783896e-09    7.100000e-01    5.386350e-01    1.573119e-01
    1.067835e+01    3.194986e+02    7.001660e-01    3.963131e+07    3.002528e-08    5.645785e-11    2.710076e-08    2.799720e-09    7.200000e-01    5.386350e-01    1.650484e-01
    1.017608e+01    3.126862e+02    7.770950e-01    4.171729e+07    3.016884e-08    6.026900e-11    2.729442e-08    2.814717e-09    7.300000e-01    5.386350e-01    1.728366e-01
    9.705642e+00    3.054540e+02    8.582925e-01    4.374856e+07    3.030512e-08    6.433415e-11    2.747865e-08    2.828943e-09    7.400000e-01    5.386350e-01    1.806626e-01
    9.265867e+00    2.978905e+02    9.436710e-01    4.572568e+07    3.043454e-08    6.867135e-11    2.765397e-08    2.842454e-09    7.500000e-01    5.386350e-01    1.885145e-01
    8.855332e+00    2.900719e+02    1.033142e+00    4.765051e+07    3.055747e-08    7.330000e-11    2.782086e-08    2.855302e-09    7.600000e-01    5.386350e-01    1.963826e-01
    8.472461e+00    2.820640e+02    1.126619e+00    4.952583e+07    3.067433e-08    7.824105e-11    2.797978e-08    2.867535e-09    7.700000e-01    5.386350e-01    2.042591e-01
    8.115599e+00    2.739223e+02    1.224020e+00    5.135510e+07    3.078546e-08    8.351700e-11    2.813120e-08    2.879202e-09    7.800000e-01    5.386350e-01    2.121375e-01
    7.783054e+00    2.656924e+02    1.325267e+00    5.314204e+07    3.089124e-08    8.915230e-11    2.827555e-08    2.890348e-09    7.900000e-01    5.386350e-01    2.200131e-01
    7.473144e+00    2.574118e+02    1.430289e+00    5.489058e+07    3.099201e-08    9.517325e-11    2.841322e-08    2.901016e-09    8.000000e-01    5.386350e-01    2.278820e-01
    7.184238e+00    2.491110e+02    1.539022e+00    5.660459e+07    3.108809e-08    1.016082e-10    2.854462e-08    2.911248e-09    8.100000e-01    5.386350e-01    2.357416e-01
    6.914757e+00    2.408141e+02    1.651405e+00    5.828778e+07    3.117979e-08    1.084878e-10    2.867012e-08    2.921083e-09    8.200000e-01    5.386350e-01    2.435899e-01
    6.663211e+00    2.325406e+02    1.767386e+00    5.994363e+07    3.126744e-08    1.158452e-10    2.879005e-08    2.930558e-09    8.300000e-01    5.386350e-01    2.514258e-01
    6.428189e+00    2.243061e+02    1.886920e+00    6.157532e+07    3.135129e-08    1.237162e-10    2.890475e-08    2.939709e-09    8.400000e-01    5.386350e-01    2.592487e-01
    6.208378e+00    2.161227e+02    2.009963e+00    6.318574e+07    3.143165e-08    1.321395e-10    2.901452e-08    2.948570e-09    8.500000e-01    5.386350e-01    2.670583e-01
    6.002550e+00    2.080006e+02    2.136481e+00    6.477736e+07    3.150878e-08    1.411567e-10    2.911966e-08    2.957174e-09    8.600000e-01    5.386350e-01    2.748548e-01
    5.809574e+00    1.999481e+02    2.266440e+00    6.635235e+07    3.158292e-08    1.508131e-10    2.922043e-08    2.965553e-09    8.700000e-01    5.386350e-01    2.826387e-01
    5.628411e+00    1.919728e+02    2.399812e+00    6.791258e+07    3.165432e-08    1.611573e-10    2.931709e-08    2.973736e-09    8.800000e-01    5.386350e-01    2.904105e-01
    5.458093e+00    1.840810e+02    2.536574e+00    6.945949e+07    3.172321e-08    1.722420e-10    2.940986e-08    2.981751e-09    8.900000e-01    5.386350e-01    2.981711e-01
    5.297745e+00    1.762791e+02    2.676703e+00    7.099427e+07    3.178982e-08    1.841241e-10    2.949899e-08    2.989628e-09    9.000000e-01    5.386350e-01    3.059213e-01
    5.146560e+00    1.685735e+02    2.820178e+00    7.251784e+07    3.185436e-08    1.968650e-10    2.958466e-08    2.997392e-09    9.100000e-01    5.386350e-01    3.136621e-01
    5.003801e+00    1.609707e+02    2.966982e+00    7.403080e+07    3.191704e-08    2.105309e-10    2.966707e-08    3.005070e-09    9.200000e-01    5.386350e-01    3.213944e-01
    4.868798e+00    1.534775e+02    3.117096e+00    7.553357e+07    3.197806e-08    2.251933e-10    2.974639e-08    3.012689e-09    9.300000e-01    5.386350e-01    3.291193e-01
    4.740934e+00    1.461012e+02    3.270507e+00    7.702629e+07    3.203761e-08    2.409292e-10    2.982277e-08    3.020271e-09    9.400000e-01    5.386350e-01    3.368377e-01
    4.619650e+00    1.388492e+02    3.427196e+00    7.850888e+07    3.209588e-08    2.578219e-10    2.989638e-08    3.027842e-09    9.500000e-01    5.386350e-01    3.445507e-01
    4.504435e+00    1.317300e+02    3.587150e+00    7.998114e+07    3.215307e-08    2.759606e-10    2.996734e-08    3.035425e-09    9.600000e-01    5.386350e-01    3.522591e-01
    4.394822e+00    1.247519e+02    3.750353e+00    8.144259e+07    3.220935e-08    2.954417e-10    3.003578e-08    3.043045e-09    9.700000e-01    5.386350e-01    3.599638e-01
    4.290384e+00    1.179239e+02    3.916787e+00    8.289266e+07    3.226489e-08    3.163686e-10    3.010179e-08    3.050725e-09    9.800000e-01    5.386350e-01    3.676658e-01
    4.190731e+00    1.112552e+02    4.086437e+00    8.433058e+07    3.231987e-08    3.388523e-10    3.016549e-08    3.058488e-09    9.900000e-01    5.386350e-01    3.753658e-01
    4.095505e+00    1.047550e+02    4.259284e+00    8.575541e+07    3.237447e-08    3.630118e-10    3.022696e-08    3.066357e-09    1.000000e+00    5.386350e-01    3.830646e-01
    4.004380e+00    9.843270e+01    4.435308e+00    8.716610e+07    3.242886e-08    3.889745e-10    3.028627e-08    3.074357e-09    1.010000e+00    5.386350e-01    3.907629e-01
    3.917050e+00    9.229744e+01    4.614490e+00    8.856136e+07    3.248320e-08    4.168766e-10    3.034350e-08    3.082509e-09    1.020000e+00    5.386350e-01    3.984615e-01
    3.833244e+00    8.635829e+01    4.796805e+00    8.993987e+07    3.253766e-08    4.468633e-10    3.039868e-08    3.090837e-09    1.030000e+00    5.386350e-01    4.061609e-01
    3.752699e+00    8.062369e+01    4.982227e+00    9.130001e+07    3.259242e-08    4.790888e-10    3.045188e-08    3.099366e-09    1.040000e+00    5.386350e-01    4.138618e-01
    3.675183e+00    7.510172e+01    5.170730e+00    9.264011e+07    3.264765e-08    5.137175e-10    3.050312e-08    3.108117e-09    1.050000e+00    5.386350e-01    4.215647e-01
    3.600471e+00    6.979962e+01    5.362285e+00    9.395825e+07    3.270351e-08    5.509220e-10    3.055243e-08    3.117116e-09    1.060000e+00    5.386350e-01    4.292700e-01
    3.528359e+00    6.472385e+01    5.556855e+00    9.525234e+07    3.276019e-08    5.908860e-10    3.059983e-08    3.126385e-09    1.070000e+00    5.386350e-01    4.369784e-01
    3.458656e+00    5.987990e+01    5.754405e+00    9.652014e+07    3.281784e-08    6.338015e-10    3.064531e-08    3.135949e-09    1.080000e+00    5.386350e-01    4.446901e-01
    3.391181e+00    5.527215e+01    5.954890e+00    9.775915e+07    3.287664e-08    6.798695e-10    3.068890e-08    3.145831e-09    1.090000e+00    5.386350e-01    4.524057e-01
    3.325762e+00    5.090382e+01    6.158270e+00    9.896667e+07    3.293678e-08    7.293000e-10    3.073055e-08    3.156055e-09    1.100000e+00    5.386350e-01    4.601255e-01
    3.262239e+00    4.677684e+01    6.364490e+00    1.001398e+08    3.299841e-08    7.823100e-10    3.077027e-08    3.166645e-09    1.110000e+00    5.386350e-01    4.678498e-01
    3.200459e+00    4.289183e+01    6.573500e+00    1.012754e+08    3.306171e-08    8.391235e-10    3.080801e-08    3.177623e-09    1.120000e+00    5.386350e-01    4.755790e-01
    3.140277e+00    3.924803e+01    6.785235e+00    1.023700e+08    3.312686e-08    8.999705e-10    3.084375e-08    3.189011e-09    1.130000e+00    5.386350e-01    4.833134e-01
    3.081557e+00    3.584323e+01    6.999625e+00    1.034202e+08    3.319402e-08    9.650830e-10    3.087743e-08    3.200834e-09    1.140000e+00    5.386350e-01    4.910533e-01
    3.024162e+00    3.267394e+01    7.216605e+00    1.044220e+08    3.326336e-08    1.034697e-09    3.090902e-08    3.213110e-09    1.150000e+00    5.386350e-01    4.987988e-01
    2.967975e+00    2.973527e+01    7.436080e+00    1.053716e+08    3.333504e-08    1.109045e-09    3.093846e-08    3.225861e-09    1.160000e+00    5.386350e-01    5.065503e-01
    2.912873e+00    2.702101e+01    7.657975e+00    1.062648e+08    3.340921e-08    1.188360e-09    3.096568e-08    3.239105e-09    1.170000e+00    5.386350e-01    5.143080e-01
    2.858750e+00    2.452376e+01    7.882180e+00    1.070975e+08    3.348601e-08    1.272866e-09    3.099062e-08    3.252858e-09    1.180000e+00    5.386350e-01    5.220721e-01
    2.805503e+00    2.223504e+01    8.108600e+00    1.078655e+08    3.356559e-08    1.362779e-09    3.101322e-08    3.267137e-09    1.190000e+00    5.386350e-01    5.298428e-01
    2.753042e+00    2.014536e+01    8.337115e+00    1.085647e+08    3.364807e-08    1.458304e-09    3.103340e-08    3.281954e-09    1.200000e+00    5.386350e-01    5.376203e-01
    2.701288e+00    1.824442e+01    8.567605e+00    1.091914e+08    3.373355e-08    1.559624e-09    3.105109e-08    3.297320e-09    1.210000e+00    5.386350e-01    5.454047e-01
    2.650172e+00    1.652126e+01    8.799945e+00    1.097421e+08    3.382213e-08    1.666905e-09    3.106623e-08    3.313242e-09    1.220000e+00    5.386350e-01    5.531962e-01
    2.599643e+00    1.496444e+01    9.033990e+00    1.102138e+08    3.391387e-08    1.780291e-09    3.107875e-08    3.329727e-09    1.230000e+00    5.386350e-01    5.609950e-01
    2.549661e+00    1.356223e+01    9.269600e+00    1.106043e+08    3.400883e-08    1.899891e-09    3.108859e-08    3.346776e-09    1.240000e+00    5.386350e-01    5.688013e-01
    2.500204e+00    1.230277e+01    9.506625e+00    1.109119e+08    3.410704e-08    2.025787e-09    3.109569e-08    3.364388e-09    1.250000e+00    5.386350e-01    5.766151e-01
    2.451265e+00    1.117428e+01    9.744915e+00    1.111359e+08    3.420849e-08    2.158022e-09    3.110001e-08    3.382558e-09    1.260000e+00    5.386350e-01    5.844367e-01
    2.402849e+00    1.016522e+01    9.984320e+00    1.112767e+08    3.431317e-08    2.296603e-09    3.110151e-08    3.401278e-09    1.270000e+00    5.386350e-01    5.922660e-01
    2.354978e+00    9.264402e+00    1.022468e+01    1.113353e+08    3.442104e-08    2.441495e-09    3.110015e-08    3.420536e-09    1.280000e+00    5.386350e-01    6.001034e-01
    2.307684e+00    8.461189e+00    1.046585e+01    1.113139e+08    3.453199e-08    2.592617e-09    3.109593e-08    3.440319e-09    1.290000e+00    5.386350e-01    6.079488e-01
    2.261010e+00    7.745523e+00    1.070767e+01    1.112154e+08    3.464595e-08    2.749848e-09    3.108885e-08    3.460607e-09    1.300000e+00    5.386350e-01    6.158025e-01
    2.215001e+00    7.108042e+00    1.095001e+01    1.110438e+08    3.476275e-08    2.913019e-09    3.107891e-08    3.481380e-09    1.310000e+00    5.386350e-01    6.236644e-01
    2.169708e+00    6.540105e+00    1.119271e+01    1.108031e+08    3.488227e-08    3.081923e-09    3.106615e-08    3.502613e-09    1.320000e+00    5.386350e-01    6.315349e-01
    2.125183e+00    6.033829e+00    1.143566e+01    1.104985e+08    3.500429e-08    3.256304e-09    3.105062e-08    3.524281e-09    1.330000e+00    5.386350e-01    6.394138e-01
    2.081472e+00    5.582069e+00    1.167873e+01    1.101349e+08    3.512864e-08    3.435874e-09    3.103235e-08    3.546355e-09    1.340000e+00    5.386350e-01    6.473014e-01
    2.038620e+00    5.178413e+00    1.192180e+01    1.097177e+08    3.525508e-08    3.620304e-09    3.101144e-08    3.568807e-09    1.350000e+00    5.386350e-01    6.551978e-01
