# sky130 nfet_01v8 gm/ID Processed Lookup Table
# Corner: ff
# Temperature: 25C
# W = 2.0 um
# L = 1.44 um (1440 nm)
# Columns: gm/id [1/V]  gm/gds [V/V]  id/W [A/m]  ft [Hz]  Cgg/W [F/m]  Cgd/W [F/m]  Cgs/W [F/m]  Vov [V]
#         gm/id          gm/gds            id/W              ft           Cgg/W           Cgd/W           Cgs/W             Vov
    2.780938e+01    1.518027e+02    7.287900e-08    1.047968e+02    3.077982e-09    5.439820e-14    1.427879e-10   -5.558180e-01
    2.780867e+01    1.517988e+02    8.375080e-08    1.206406e+02    3.072528e-09    5.642185e-14    1.484973e-10   -5.508180e-01
    2.780790e+01    1.517947e+02    9.624405e-08    1.388646e+02    3.067402e-09    5.852665e-14    1.544936e-10   -5.458180e-01
    2.780708e+01    1.517902e+02    1.106005e-07    1.598235e+02    3.062612e-09    6.071620e-14    1.607924e-10   -5.408180e-01
    2.780620e+01    1.517853e+02    1.270979e-07    1.839240e+02    3.058170e-09    6.299430e-14    1.674097e-10   -5.358180e-01
    2.780525e+01    1.517802e+02    1.460555e-07    2.116328e+02    3.054089e-09    6.536490e-14    1.743626e-10   -5.308180e-01
    2.780423e+01    1.517747e+02    1.678398e-07    2.434849e+02    3.050380e-09    6.783225e-14    1.816683e-10   -5.258180e-01
    2.780313e+01    1.517687e+02    1.928724e-07    2.800936e+02    3.047057e-09    7.040065e-14    1.893456e-10   -5.208180e-01
    2.780198e+01    1.517624e+02    2.216371e-07    3.221623e+02    3.044133e-09    7.307460e-14    1.974134e-10   -5.158180e-01
    2.780073e+01    1.517556e+02    2.546903e-07    3.704957e+02    3.041624e-09    7.585900e-14    2.058920e-10   -5.108180e-01
    2.779939e+01    1.517483e+02    2.926708e-07    4.260166e+02    3.039543e-09    7.875880e-14    2.148023e-10   -5.058180e-01
    2.779796e+01    1.517404e+02    3.363128e-07    4.897809e+02    3.037908e-09    8.177925e-14    2.241659e-10   -5.008180e-01
    2.779641e+01    1.517320e+02    3.864598e-07    5.629974e+02    3.036734e-09    8.492580e-14    2.340049e-10   -4.958180e-01
    2.779476e+01    1.517230e+02    4.440805e-07    6.470493e+02    3.036039e-09    8.820420e-14    2.443435e-10   -4.908180e-01
    2.779298e+01    1.517134e+02    5.102880e-07    7.435180e+02    3.035842e-09    9.162050e-14    2.552060e-10   -4.858180e-01
    2.779108e+01    1.517031e+02    5.863610e-07    8.542124e+02    3.036161e-09    9.518090e-14    2.666178e-10   -4.808180e-01
    2.778905e+01    1.516920e+02    6.737680e-07    9.811994e+02    3.037016e-09    9.889205e-14    2.786051e-10   -4.758180e-01
    2.778687e+01    1.516802e+02    7.741965e-07    1.126840e+03    3.038426e-09    1.027608e-13    2.911949e-10   -4.708180e-01
    2.778453e+01    1.516675e+02    8.895845e-07    1.293831e+03    3.040415e-09    1.067942e-13    3.044153e-10   -4.658180e-01
    2.778204e+01    1.516539e+02    1.022157e-06    1.485251e+03    3.043002e-09    1.110000e-13    3.182949e-10   -4.608180e-01
    2.777936e+01    1.516394e+02    1.174473e-06    1.704611e+03    3.046212e-09    1.153859e-13    3.328635e-10   -4.558180e-01
    2.777649e+01    1.516238e+02    1.349466e-06    1.955916e+03    3.050066e-09    1.199601e-13    3.481516e-10   -4.508180e-01
    2.777342e+01    1.516071e+02    1.550510e-06    2.243734e+03    3.054589e-09    1.247311e-13    3.641904e-10   -4.458180e-01
    2.777013e+01    1.515893e+02    1.781477e-06    2.573265e+03    3.059806e-09    1.297079e-13    3.810120e-10   -4.408180e-01
    2.776661e+01    1.515702e+02    2.046815e-06    2.950435e+03    3.065741e-09    1.348998e-13    3.986493e-10   -4.358180e-01
    2.776283e+01    1.515497e+02    2.351629e-06    3.381988e+03    3.072422e-09    1.403166e-13    4.171354e-10   -4.308180e-01
    2.775880e+01    1.515278e+02    2.701785e-06    3.875599e+03    3.079872e-09    1.459683e-13    4.365045e-10   -4.258180e-01
    2.775447e+01    1.515044e+02    3.104014e-06    4.439994e+03    3.088121e-09    1.518655e-13    4.567911e-10   -4.208180e-01
    2.774983e+01    1.514793e+02    3.566044e-06    5.085090e+03    3.097195e-09    1.580193e-13    4.780304e-10   -4.158180e-01
    2.774487e+01    1.514524e+02    4.096749e-06    5.822158e+03    3.107121e-09    1.644411e-13    5.002575e-10   -4.108180e-01
    2.773956e+01    1.514238e+02    4.706314e-06    6.663993e+03    3.117927e-09    1.711429e-13    5.235085e-10   -4.058180e-01
    2.773387e+01    1.513931e+02    5.406430e-06    7.625116e+03    3.129642e-09    1.781371e-13    5.478190e-10   -4.008180e-01
    2.772780e+01    1.513602e+02    6.210510e-06    8.721997e+03    3.142294e-09    1.854366e-13    5.732255e-10   -3.958180e-01
    2.772129e+01    1.513251e+02    7.133955e-06    9.973304e+03    3.155912e-09    1.930550e-13    5.997635e-10   -3.908180e-01
    2.771430e+01    1.512876e+02    8.194435e-06    1.140019e+04    3.170523e-09    2.010061e-13    6.274690e-10   -3.858180e-01
    2.770685e+01    1.512474e+02    9.412215e-06    1.302663e+04    3.186156e-09    2.093044e-13    6.563780e-10   -3.808180e-01
    2.769888e+01    1.512045e+02    1.081055e-05    1.487973e+04    3.202838e-09    2.179652e-13    6.865250e-10   -3.758180e-01
    2.769034e+01    1.511587e+02    1.241612e-05    1.699018e+04    3.220598e-09    2.270041e-13    7.179455e-10   -3.708180e-01
    2.768121e+01    1.511097e+02    1.425953e-05    1.939266e+04    3.239463e-09    2.364373e-13    7.506730e-10   -3.658180e-01
    2.767145e+01    1.510574e+02    1.637584e-05    2.212637e+04    3.259458e-09    2.462817e-13    7.847400e-10   -3.608180e-01
    2.766101e+01    1.510016e+02    1.880530e-05    2.523561e+04    3.280610e-09    2.565547e-13    8.201795e-10   -3.558180e-01
    2.764987e+01    1.509420e+02    2.159401e-05    2.877036e+04    3.302944e-09    2.672745e-13    8.570220e-10   -3.508180e-01
    2.763794e+01    1.508784e+02    2.479485e-05    3.278702e+04    3.326483e-09    2.784598e-13    8.952965e-10   -3.458180e-01
    2.762519e+01    1.508105e+02    2.846838e-05    3.734921e+04    3.351249e-09    2.901300e-13    9.350315e-10   -3.408180e-01
    2.761158e+01    1.507382e+02    3.268402e-05    4.252865e+04    3.377266e-09    3.023051e-13    9.762525e-10   -3.358180e-01
    2.759703e+01    1.506610e+02    3.752128e-05    4.840612e+04    3.404552e-09    3.150061e-13    1.018984e-09   -3.308180e-01
    2.758150e+01    1.505788e+02    4.307122e-05    5.507261e+04    3.433125e-09    3.282542e-13    1.063248e-09   -3.258180e-01
    2.756493e+01    1.504913e+02    4.943810e-05    6.263054e+04    3.463002e-09    3.420717e-13    1.109065e-09   -3.208180e-01
    2.754725e+01    1.503981e+02    5.674130e-05    7.119510e+04    3.494198e-09    3.564814e-13    1.156451e-09   -3.158180e-01
    2.752838e+01    1.502990e+02    6.511740e-05    8.089585e+04    3.526725e-09    3.715070e-13    1.205420e-09   -3.108180e-01
    2.750825e+01    1.501936e+02    7.472270e-05    9.187835e+04    3.560593e-09    3.871728e-13    1.255986e-09   -3.058180e-01
    2.748679e+01    1.500815e+02    8.573595e-05    1.043062e+05    3.595812e-09    4.035038e-13    1.308156e-09   -3.008180e-01
    2.746393e+01    1.499626e+02    9.836150e-05    1.183630e+05    3.632385e-09    4.205262e-13    1.361936e-09   -2.958180e-01
    2.743957e+01    1.498363e+02    1.128330e-04    1.342549e+05    3.670316e-09    4.382664e-13    1.417329e-09   -2.908180e-01
    2.741363e+01    1.497023e+02    1.294174e-04    1.522129e+05    3.709606e-09    4.567520e-13    1.474332e-09   -2.858180e-01
    2.738603e+01    1.495604e+02    1.484195e-04    1.724963e+05    3.750252e-09    4.760111e-13    1.532941e-09   -2.808180e-01
    2.735668e+01    1.494102e+02    1.701874e-04    1.953954e+05    3.792247e-09    4.960730e-13    1.593149e-09   -2.758180e-01
    2.732549e+01    1.492513e+02    1.951184e-04    2.212355e+05    3.835584e-09    5.169675e-13    1.654941e-09   -2.708180e-01
    2.729232e+01    1.490832e+02    2.236655e-04    2.503800e+05    3.880251e-09    5.387250e-13    1.718303e-09   -2.658180e-01
    2.725712e+01    1.489060e+02    2.563455e-04    2.832367e+05    3.926235e-09    5.613775e-13    1.783214e-09   -2.608180e-01
    2.721977e+01    1.487190e+02    2.937472e-04    3.202605e+05    3.973515e-09    5.849575e-13    1.849650e-09   -2.558180e-01
    2.718018e+01    1.485223e+02    3.365411e-04    3.619600e+05    4.022072e-09    6.094975e-13    1.917582e-09   -2.508180e-01
    2.713823e+01    1.483155e+02    3.854908e-04    4.089031e+05    4.071882e-09    6.350330e-13    1.986981e-09   -2.458180e-01
    2.709381e+01    1.480983e+02    4.414648e-04    4.617234e+05    4.122916e-09    6.615980e-13    2.057807e-09   -2.408180e-01
    2.704685e+01    1.478706e+02    5.054510e-04    5.211278e+05    4.175145e-09    6.892290e-13    2.130023e-09   -2.358180e-01
    2.699723e+01    1.476326e+02    5.785715e-04    5.879041e+05    4.228536e-09    7.179625e-13    2.203585e-09   -2.308180e-01
    2.694484e+01    1.473839e+02    6.621015e-04    6.629293e+05    4.283050e-09    7.478370e-13    2.278444e-09   -2.258180e-01
    2.688962e+01    1.471249e+02    7.574870e-04    7.471803e+05    4.338649e-09    7.788905e-13    2.354551e-09   -2.208180e-01
    2.683146e+01    1.468557e+02    8.663685e-04    8.417432e+05    4.395290e-09    8.111635e-13    2.431849e-09   -2.158180e-01
    2.677030e+01    1.465766e+02    9.906050e-04    9.478249e+05    4.452928e-09    8.446960e-13    2.510283e-09   -2.108180e-01
    2.670604e+01    1.462881e+02    1.132302e-03    1.066767e+06    4.511515e-09    8.795310e-13    2.589790e-09   -2.058180e-01
    2.663865e+01    1.459908e+02    1.293842e-03    1.200057e+06    4.571002e-09    9.157100e-13    2.670306e-09   -2.008180e-01
    2.656806e+01    1.456855e+02    1.477917e-03    1.349348e+06    4.631335e-09    9.532770e-13    2.751765e-09   -1.958180e-01
    2.649424e+01    1.453733e+02    1.687572e-03    1.516469e+06    4.692459e-09    9.922775e-13    2.834097e-09   -1.908180e-01
    2.641717e+01    1.450552e+02    1.926241e-03    1.703448e+06    4.754318e-09    1.032757e-12    2.917231e-09   -1.858180e-01
    2.633687e+01    1.447328e+02    2.197801e-03    1.912535e+06    4.816852e-09    1.074763e-12    3.001093e-09   -1.808180e-01
    2.625333e+01    1.444078e+02    2.506617e-03    2.146211e+06    4.880005e-09    1.118343e-12    3.085608e-09   -1.758180e-01
    2.616663e+01    1.440824e+02    2.857609e-03    2.407230e+06    4.943712e-09    1.163547e-12    3.170699e-09   -1.708180e-01
    2.607682e+01    1.437586e+02    3.256312e-03    2.698633e+06    5.007915e-09    1.210425e-12    3.256288e-09   -1.658180e-01
    2.598399e+01    1.434394e+02    3.708949e-03    3.023785e+06    5.072545e-09    1.259029e-12    3.342296e-09   -1.608180e-01
    2.588826e+01    1.431277e+02    4.222513e-03    3.386404e+06    5.137540e-09    1.309412e-12    3.428644e-09   -1.558180e-01
    2.578978e+01    1.428269e+02    4.804854e-03    3.790595e+06    5.202840e-09    1.361629e-12    3.515251e-09   -1.508180e-01
    2.568871e+01    1.425408e+02    5.464780e-03    4.240904e+06    5.268375e-09    1.415734e-12    3.602039e-09   -1.458180e-01
    2.558527e+01    1.422734e+02    6.212165e-03    4.742345e+06    5.334085e-09    1.471785e-12    3.688928e-09   -1.408180e-01
    2.547963e+01    1.420295e+02    7.058080e-03    5.300463e+06    5.399905e-09    1.529841e-12    3.775837e-09   -1.358180e-01
    2.537209e+01    1.418138e+02    8.014905e-03    5.921381e+06    5.465775e-09    1.589960e-12    3.862691e-09   -1.308180e-01
    2.526286e+01    1.416317e+02    9.096510e-03    6.611877e+06    5.531625e-09    1.652205e-12    3.949410e-09   -1.258180e-01
    2.515221e+01    1.414886e+02    1.031841e-02    7.379432e+06    5.597395e-09    1.716638e-12    4.035919e-09   -1.208180e-01
    2.504040e+01    1.413904e+02    1.169792e-02    8.232299e+06    5.663030e-09    1.783324e-12    4.122146e-09   -1.158180e-01
    2.492766e+01    1.413431e+02    1.325443e-02    9.179601e+06    5.728470e-09    1.852327e-12    4.208016e-09   -1.108180e-01
    2.481422e+01    1.413529e+02    1.500955e-02    1.023142e+07    5.793650e-09    1.923718e-12    4.293461e-09   -1.058180e-01
    2.470028e+01    1.414259e+02    1.698741e-02    1.139886e+07    5.858520e-09    1.997564e-12    4.378411e-09   -1.008180e-01
    2.458596e+01    1.415681e+02    1.921495e-02    1.269413e+07    5.923025e-09    2.073937e-12    4.462802e-09   -9.581800e-02
    2.447137e+01    1.417855e+02    2.172214e-02    1.413069e+07    5.987115e-09    2.152911e-12    4.546569e-09   -9.081800e-02
    2.435647e+01    1.420835e+02    2.454239e-02    1.572328e+07    6.050735e-09    2.234559e-12    4.629652e-09   -8.581800e-02
    2.424119e+01    1.424671e+02    2.771285e-02    1.748806e+07    6.113835e-09    2.318960e-12    4.711995e-09   -8.081800e-02
    2.412535e+01    1.429406e+02    3.127481e-02    1.944260e+07    6.176380e-09    2.406191e-12    4.793542e-09   -7.581800e-02
    2.400860e+01    1.435073e+02    3.527407e-02    2.160604e+07    6.238315e-09    2.496336e-12    4.874242e-09   -7.081800e-02
    2.389053e+01    1.441698e+02    3.976140e-02    2.399904e+07    6.299610e-09    2.589478e-12    4.954046e-09   -6.581800e-02
    2.377056e+01    1.449290e+02    4.479293e-02    2.664386e+07    6.360215e-09    2.685701e-12    5.032910e-09   -6.081800e-02
    2.364800e+01    1.457848e+02    5.043060e-02    2.956423e+07    6.420105e-09    2.785094e-12    5.110785e-09   -5.581800e-02
    2.352207e+01    1.467354e+02    5.674255e-02    3.278540e+07    6.479240e-09    2.887749e-12    5.187645e-09   -5.081800e-02
    2.339180e+01    1.477772e+02    6.380370e-02    3.633390e+07    6.537590e-09    2.993758e-12    5.263440e-09   -4.581800e-02
    2.325620e+01    1.489051e+02    7.169590e-02    4.023743e+07    6.595125e-09    3.103217e-12    5.338145e-09   -4.081800e-02
    2.311419e+01    1.501120e+02    8.050850e-02    4.452456e+07    6.651825e-09    3.216225e-12    5.411730e-09   -3.581800e-02
    2.296465e+01    1.513889e+02    9.033845e-02    4.922453e+07    6.707660e-09    3.332884e-12    5.484170e-09   -3.081800e-02
    2.280646e+01    1.527252e+02    1.012907e-01    5.436674e+07    6.762610e-09    3.453299e-12    5.555440e-09   -2.581800e-02
    2.263850e+01    1.541082e+02    1.134783e-01    5.998031e+07    6.816665e-09    3.577576e-12    5.625515e-09   -2.081800e-02
    2.245976e+01    1.555240e+02    1.270222e-01    6.609385e+07    6.869795e-09    3.705828e-12    5.694380e-09   -1.581800e-02
    2.226928e+01    1.569571e+02    1.420515e-01    7.273456e+07    6.921995e-09    3.838168e-12    5.762025e-09   -1.081800e-02
    2.206625e+01    1.583907e+02    1.587029e-01    7.992784e+07    6.973255e-09    3.974714e-12    5.828435e-09   -5.818000e-03
    2.185004e+01    1.598073e+02    1.771205e-01    8.769681e+07    7.023560e-09    4.115588e-12    5.893595e-09   -8.180000e-04
    2.162015e+01    1.611885e+02    1.974551e-01    9.606150e+07    7.072905e-09    4.260914e-12    5.957510e-09    4.182000e-03
    2.137632e+01    1.625161e+02    2.198638e-01    1.050385e+08    7.121280e-09    4.410822e-12    6.020165e-09    9.182000e-03
    2.111847e+01    1.637714e+02    2.445087e-01    1.146403e+08    7.168690e-09    4.565445e-12    6.081560e-09    1.418200e-02
    2.084676e+01    1.649367e+02    2.715564e-01    1.248748e+08    7.215125e-09    4.724919e-12    6.141700e-09    1.918200e-02
    2.056154e+01    1.659948e+02    3.011764e-01    1.357453e+08    7.260590e-09    4.889388e-12    6.200585e-09    2.418200e-02
    2.026332e+01    1.669295e+02    3.335403e-01    1.472495e+08    7.305085e-09    5.058995e-12    6.258215e-09    2.918200e-02
    1.995286e+01    1.677262e+02    3.688201e-01    1.593802e+08    7.348615e-09    5.233895e-12    6.314600e-09    3.418200e-02
    1.963103e+01    1.683720e+02    4.071873e-01    1.721249e+08    7.391180e-09    5.414235e-12    6.369750e-09    3.918200e-02
    1.929882e+01    1.688556e+02    4.488111e-01    1.854654e+08    7.432785e-09    5.600190e-12    6.423665e-09    4.418200e-02
    1.895738e+01    1.691678e+02    4.938571e-01    1.993787e+08    7.473445e-09    5.791910e-12    6.476370e-09    4.918200e-02
    1.860791e+01    1.693017e+02    5.424860e-01    2.138372e+08    7.513165e-09    5.989575e-12    6.527860e-09    5.418200e-02
    1.825166e+01    1.692526e+02    5.948530e-01    2.288091e+08    7.551945e-09    6.193365e-12    6.578165e-09    5.918200e-02
    1.788994e+01    1.690174e+02    6.511045e-01    2.442580e+08    7.589810e-09    6.403455e-12    6.627285e-09    6.418200e-02
    1.752404e+01    1.685957e+02    7.113795e-01    2.601451e+08    7.626760e-09    6.620040e-12    6.675245e-09    6.918200e-02
    1.715524e+01    1.679889e+02    7.758085e-01    2.764287e+08    7.662815e-09    6.843310e-12    6.722060e-09    7.418200e-02
    1.678481e+01    1.672003e+02    8.445095e-01    2.930650e+08    7.697985e-09    7.073470e-12    6.767750e-09    7.918200e-02
    1.641393e+01    1.662346e+02    9.175920e-01    3.100093e+08    7.732280e-09    7.310730e-12    6.812325e-09    8.418200e-02
    1.604375e+01    1.650984e+02    9.951530e-01    3.272159e+08    7.765715e-09    7.555300e-12    6.855810e-09    8.918200e-02
    1.567535e+01    1.637996e+02    1.077279e+00    3.446393e+08    7.798310e-09    7.807405e-12    6.898220e-09    9.418200e-02
    1.530970e+01    1.623469e+02    1.164043e+00    3.622346e+08    7.830075e-09    8.067280e-12    6.939580e-09    9.918200e-02
    1.494772e+01    1.607501e+02    1.255509e+00    3.799582e+08    7.861025e-09    8.335160e-12    6.979905e-09    1.041820e-01
    1.459022e+01    1.590194e+02    1.351729e+00    3.977676e+08    7.891180e-09    8.611290e-12    7.019220e-09    1.091820e-01
    1.423793e+01    1.571660e+02    1.452741e+00    4.156232e+08    7.920550e-09    8.895930e-12    7.057545e-09    1.141820e-01
    1.389149e+01    1.552009e+02    1.558577e+00    4.334870e+08    7.949155e-09    9.189340e-12    7.094900e-09    1.191820e-01
    1.355145e+01    1.531354e+02    1.669256e+00    4.513239e+08    7.977015e-09    9.491790e-12    7.131310e-09    1.241820e-01
    1.321829e+01    1.509808e+02    1.784787e+00    4.691020e+08    8.004140e-09    9.803570e-12    7.166790e-09    1.291820e-01
    1.289241e+01    1.487481e+02    1.905173e+00    4.867918e+08    8.030550e-09    1.012496e-11    7.201365e-09    1.341820e-01
    1.257411e+01    1.464480e+02    2.030406e+00    5.043673e+08    8.056260e-09    1.045629e-11    7.235055e-09    1.391820e-01
    1.226366e+01    1.440911e+02    2.160473e+00    5.218051e+08    8.081290e-09    1.079784e-11    7.267880e-09    1.441820e-01
    1.196124e+01    1.416871e+02    2.295351e+00    5.390855e+08    8.105650e-09    1.114996e-11    7.299870e-09    1.491820e-01
    1.166699e+01    1.392456e+02    2.435015e+00    5.561908e+08    8.129365e-09    1.151297e-11    7.331035e-09    1.541820e-01
    1.138097e+01    1.367755e+02    2.579433e+00    5.731068e+08    8.152450e-09    1.188722e-11    7.361400e-09    1.591820e-01
    1.110323e+01    1.342847e+02    2.728567e+00    5.898218e+08    8.174915e-09    1.227307e-11    7.390985e-09    1.641820e-01
    1.083375e+01    1.317812e+02    2.882378e+00    6.063267e+08    8.196780e-09    1.267091e-11    7.419815e-09    1.691820e-01
    1.057249e+01    1.292718e+02    3.040821e+00    6.226140e+08    8.218065e-09    1.308110e-11    7.447905e-09    1.741820e-01
    1.031937e+01    1.267630e+02    3.203852e+00    6.386794e+08    8.238780e-09    1.350406e-11    7.475280e-09    1.791820e-01
    1.007428e+01    1.242607e+02    3.371422e+00    6.545198e+08    8.258945e-09    1.394020e-11    7.501950e-09    1.841820e-01
    9.837090e+00    1.217698e+02    3.543482e+00    6.701340e+08    8.278570e-09    1.438994e-11    7.527945e-09    1.891820e-01
    9.607650e+00    1.192953e+02    3.719981e+00    6.855219e+08    8.297680e-09    1.485375e-11    7.553280e-09    1.941820e-01
    9.385793e+00    1.168412e+02    3.900868e+00    7.006857e+08    8.316280e-09    1.533206e-11    7.577975e-09    1.991820e-01
