# sky130 nfet_01v8 gm/ID Processed Lookup Table
# Corner: ff
# Temperature: 25C
# W = 2.0 um
# L = 5.4 um (5400 nm)
# Columns: gm/id [1/V]  gm/gds [V/V]  id/W [A/m]  ft [Hz]  Cgg/W [F/m]  Cgd/W [F/m]  Cgs/W [F/m]  Vov [V]
#         gm/id          gm/gds            id/W              ft           Cgg/W           Cgd/W           Cgs/W             Vov
    2.672748e+01    2.370027e+02    6.450775e-08    2.323215e+01    1.181138e-08    3.366018e-13    8.179990e-10   -5.182000e-01
    2.672630e+01    2.369920e+02    7.373070e-08    2.657131e+01    1.180305e-08    3.490951e-13    8.527370e-10   -5.132000e-01
    2.672500e+01    2.369807e+02    8.427185e-08    3.038586e+01    1.179638e-08    3.620932e-13    8.891760e-10   -5.082000e-01
    2.672363e+01    2.369686e+02    9.631935e-08    3.474263e+01    1.179143e-08    3.756184e-13    9.273960e-10   -5.032000e-01
    2.672215e+01    2.369556e+02    1.100885e-07    3.971764e+01    1.178826e-08    3.896938e-13    9.674795e-10   -4.982000e-01
    2.672059e+01    2.369417e+02    1.258249e-07    4.539744e+01    1.178695e-08    4.043435e-13    1.009512e-09   -4.932000e-01
    2.671891e+01    2.369269e+02    1.438095e-07    5.188044e+01    1.178753e-08    4.195929e-13    1.053580e-09   -4.882000e-01
    2.671711e+01    2.369111e+02    1.643634e-07    5.927856e+01    1.179009e-08    4.354682e-13    1.099778e-09   -4.832000e-01
    2.671520e+01    2.368942e+02    1.878532e-07    6.771895e+01    1.179470e-08    4.519972e-13    1.148200e-09   -4.782000e-01
    2.671315e+01    2.368762e+02    2.146978e-07    7.734607e+01    1.180143e-08    4.692084e-13    1.198942e-09   -4.732000e-01
    2.671095e+01    2.368567e+02    2.453760e-07    8.832400e+01    1.181035e-08    4.871318e-13    1.252104e-09   -4.682000e-01
    2.670861e+01    2.368361e+02    2.804347e-07    1.008392e+02    1.182154e-08    5.057990e-13    1.307789e-09   -4.632000e-01
    2.670612e+01    2.368141e+02    3.204985e-07    1.151028e+02    1.183508e-08    5.252420e-13    1.366100e-09   -4.582000e-01
    2.670344e+01    2.367906e+02    3.662813e-07    1.313547e+02    1.185104e-08    5.454955e-13    1.427146e-09   -4.532000e-01
    2.670060e+01    2.367656e+02    4.185983e-07    1.498669e+02    1.186952e-08    5.665945e-13    1.491036e-09   -4.482000e-01
    2.669755e+01    2.367388e+02    4.783809e-07    1.709472e+02    1.189059e-08    5.885760e-13    1.557881e-09   -4.432000e-01
    2.669430e+01    2.367102e+02    5.466925e-07    1.949448e+02    1.191435e-08    6.114790e-13    1.627794e-09   -4.382000e-01
    2.669082e+01    2.366796e+02    6.247490e-07    2.222550e+02    1.194087e-08    6.353430e-13    1.700892e-09   -4.332000e-01
    2.668711e+01    2.366470e+02    7.139370e-07    2.533251e+02    1.197026e-08    6.602095e-13    1.777290e-09   -4.282000e-01
    2.668314e+01    2.366124e+02    8.158420e-07    2.886610e+02    1.200259e-08    6.861230e-13    1.857108e-09   -4.232000e-01
    2.667891e+01    2.365752e+02    9.322730e-07    3.288352e+02    1.203797e-08    7.131280e-13    1.940464e-09   -4.182000e-01
    2.667440e+01    2.365357e+02    1.065297e-06    3.744943e+02    1.207648e-08    7.412715e-13    2.027477e-09   -4.132000e-01
    2.666957e+01    2.364935e+02    1.217274e-06    4.263690e+02    1.211822e-08    7.706025e-13    2.118269e-09   -4.082000e-01
    2.666443e+01    2.364485e+02    1.390897e-06    4.852848e+02    1.216328e-08    8.011720e-13    2.212960e-09   -4.032000e-01
    2.665893e+01    2.364005e+02    1.589243e-06    5.521727e+02    1.221176e-08    8.330325e-13    2.311669e-09   -3.982000e-01
    2.665306e+01    2.363494e+02    1.815821e-06    6.280837e+02    1.226373e-08    8.662390e-13    2.414517e-09   -3.932000e-01
    2.664680e+01    2.362948e+02    2.074640e-06    7.142023e+02    1.231932e-08    9.008485e-13    2.521621e-09   -3.882000e-01
    2.664012e+01    2.362367e+02    2.370273e-06    8.118643e+02    1.237859e-08    9.369200e-13    2.633099e-09   -3.832000e-01
    2.663300e+01    2.361749e+02    2.707940e-06    9.225743e+02    1.244165e-08    9.745155e-13    2.749065e-09   -3.782000e-01
    2.662539e+01    2.361088e+02    3.093596e-06    1.048026e+03    1.250857e-08    1.013697e-12    2.869630e-09   -3.732000e-01
    2.661729e+01    2.360386e+02    3.534038e-06    1.190126e+03    1.257946e-08    1.054532e-12    2.994906e-09   -3.682000e-01
    2.660864e+01    2.359639e+02    4.037018e-06    1.351022e+03    1.265439e-08    1.097089e-12    3.124998e-09   -3.632000e-01
    2.659942e+01    2.358843e+02    4.611377e-06    1.533124e+03    1.273344e-08    1.141438e-12    3.260006e-09   -3.582000e-01
    2.658960e+01    2.357997e+02    5.267200e-06    1.739146e+03    1.281669e-08    1.187652e-12    3.400029e-09   -3.532000e-01
    2.657912e+01    2.357094e+02    6.015990e-06    1.972134e+03    1.290421e-08    1.235808e-12    3.545159e-09   -3.482000e-01
    2.656794e+01    2.356136e+02    6.870860e-06    2.235510e+03    1.299609e-08    1.285983e-12    3.695481e-09   -3.432000e-01
    2.655605e+01    2.355119e+02    7.846750e-06    2.533118e+03    1.309236e-08    1.338260e-12    3.851077e-09   -3.382000e-01
    2.654338e+01    2.354038e+02    8.960700e-06    2.869266e+03    1.319312e-08    1.392721e-12    4.012017e-09   -3.332000e-01
    2.652989e+01    2.352889e+02    1.023212e-05    3.248792e+03    1.329839e-08    1.449454e-12    4.178371e-09   -3.282000e-01
    2.651551e+01    2.351669e+02    1.168313e-05    3.677116e+03    1.340825e-08    1.508549e-12    4.350193e-09   -3.232000e-01
    2.650023e+01    2.350375e+02    1.333891e-05    4.160314e+03    1.352272e-08    1.570098e-12    4.527534e-09   -3.182000e-01
    2.648396e+01    2.349004e+02    1.522816e-05    4.705195e+03    1.364184e-08    1.634197e-12    4.710434e-09   -3.132000e-01
    2.646666e+01    2.347550e+02    1.738354e-05    5.319377e+03    1.376564e-08    1.700944e-12    4.898923e-09   -3.082000e-01
    2.644827e+01    2.346012e+02    1.984221e-05    6.011398e+03    1.389415e-08    1.770442e-12    5.093020e-09   -3.032000e-01
    2.642870e+01    2.344382e+02    2.264648e-05    6.790798e+03    1.402735e-08    1.842794e-12    5.292740e-09   -2.982000e-01
    2.640794e+01    2.342660e+02    2.584446e-05    7.668263e+03    1.416528e-08    1.918109e-12    5.498075e-09   -2.932000e-01
    2.638588e+01    2.340840e+02    2.949089e-05    8.655717e+03    1.430792e-08    1.996500e-12    5.709015e-09   -2.882000e-01
    2.636246e+01    2.338919e+02    3.364798e-05    9.766511e+03    1.445525e-08    2.078081e-12    5.925540e-09   -2.832000e-01
    2.633763e+01    2.336893e+02    3.838642e-05    1.101554e+04    1.460725e-08    2.162969e-12    6.147605e-09   -2.782000e-01
    2.631130e+01    2.334758e+02    4.378655e-05    1.241945e+04    1.476390e-08    2.251287e-12    6.375170e-09   -2.732000e-01
    2.628339e+01    2.332512e+02    4.993959e-05    1.399678e+04    1.492513e-08    2.343161e-12    6.608170e-09   -2.682000e-01
    2.625382e+01    2.330150e+02    5.694910e-05    1.576828e+04    1.509091e-08    2.438720e-12    6.846530e-09   -2.632000e-01
    2.622255e+01    2.327669e+02    6.493255e-05    1.775701e+04    1.526116e-08    2.538096e-12    7.090165e-09   -2.582000e-01
    2.618946e+01    2.325071e+02    7.402330e-05    1.998874e+04    1.543582e-08    2.641426e-12    7.338975e-09   -2.532000e-01
    2.615448e+01    2.322351e+02    8.437245e-05    2.249213e+04    1.561480e-08    2.748850e-12    7.592845e-09   -2.482000e-01
    2.611755e+01    2.319508e+02    9.615120e-05    2.529910e+04    1.579800e-08    2.860514e-12    7.851660e-09   -2.432000e-01
    2.607859e+01    2.316543e+02    1.095535e-04    2.844520e+04    1.598532e-08    2.976565e-12    8.115270e-09   -2.382000e-01
    2.603752e+01    2.313458e+02    1.247989e-04    3.196993e+04    1.617667e-08    3.097157e-12    8.383530e-09   -2.332000e-01
    2.599427e+01    2.310253e+02    1.421360e-04    3.591725e+04    1.637188e-08    3.222446e-12    8.656285e-09   -2.282000e-01
    2.594875e+01    2.306933e+02    1.618457e-04    4.033598e+04    1.657086e-08    3.352593e-12    8.933355e-09   -2.232000e-01
    2.590093e+01    2.303502e+02    1.842454e-04    4.528033e+04    1.677345e-08    3.487764e-12    9.214555e-09   -2.182000e-01
    2.585074e+01    2.299968e+02    2.096938e-04    5.081056e+04    1.697950e-08    3.628130e-12    9.499695e-09   -2.132000e-01
    2.579811e+01    2.296339e+02    2.385960e-04    5.699338e+04    1.718884e-08    3.773865e-12    9.788565e-09   -2.082000e-01
    2.574303e+01    2.292628e+02    2.714086e-04    6.390294e+04    1.740133e-08    3.925149e-12    1.008095e-08   -2.032000e-01
    2.568544e+01    2.288847e+02    3.086468e-04    7.162134e+04    1.761678e-08    4.082166e-12    1.037664e-08   -1.982000e-01
    2.562532e+01    2.285013e+02    3.508910e-04    8.023952e+04    1.783501e-08    4.245106e-12    1.067538e-08   -1.932000e-01
    2.556269e+01    2.281148e+02    3.987947e-04    8.985836e+04    1.805584e-08    4.414165e-12    1.097696e-08   -1.882000e-01
    2.549751e+01    2.277273e+02    4.530934e-04    1.005893e+05    1.827906e-08    4.589540e-12    1.128110e-08   -1.832000e-01
    2.542984e+01    2.273420e+02    5.146145e-04    1.125560e+05    1.850449e-08    4.771438e-12    1.158758e-08   -1.782000e-01
    2.535972e+01    2.269617e+02    5.842870e-04    1.258950e+05    1.873191e-08    4.960069e-12    1.189613e-08   -1.732000e-01
    2.528718e+01    2.265904e+02    6.631565e-04    1.407576e+05    1.896115e-08    5.155650e-12    1.220648e-08   -1.682000e-01
    2.521232e+01    2.262320e+02    7.523945e-04    1.573111e+05    1.919195e-08    5.358405e-12    1.251839e-08   -1.632000e-01
    2.513524e+01    2.258916e+02    8.533165e-04    1.757403e+05    1.942414e-08    5.568560e-12    1.283157e-08   -1.582000e-01
    2.505608e+01    2.255744e+02    9.673975e-04    1.962501e+05    1.965750e-08    5.786355e-12    1.314577e-08   -1.532000e-01
    2.497495e+01    2.252863e+02    1.096291e-03    2.190667e+05    1.989181e-08    6.012025e-12    1.346072e-08   -1.482000e-01
    2.489206e+01    2.250340e+02    1.241848e-03    2.444408e+05    2.012684e-08    6.245820e-12    1.377614e-08   -1.432000e-01
    2.480757e+01    2.248248e+02    1.406143e-03    2.726494e+05    2.036241e-08    6.487995e-12    1.409178e-08   -1.382000e-01
    2.472171e+01    2.246666e+02    1.591496e-03    3.039995e+05    2.059829e-08    6.738815e-12    1.440737e-08   -1.332000e-01
    2.463470e+01    2.245681e+02    1.800502e-03    3.388307e+05    2.083427e-08    6.998545e-12    1.472265e-08   -1.282000e-01
    2.454678e+01    2.245385e+02    2.036067e-03    3.775191e+05    2.107015e-08    7.267460e-12    1.503736e-08   -1.232000e-01
    2.445821e+01    2.245879e+02    2.301434e-03    4.204818e+05    2.130572e-08    7.545855e-12    1.535126e-08   -1.182000e-01
    2.436920e+01    2.247265e+02    2.600233e-03    4.681794e+05    2.154078e-08    7.834010e-12    1.566409e-08   -1.132000e-01
    2.428004e+01    2.249659e+02    2.936517e-03    5.211241e+05    2.177514e-08    8.132235e-12    1.597561e-08   -1.082000e-01
    2.419092e+01    2.253175e+02    3.314814e-03    5.798815e+05    2.200860e-08    8.440840e-12    1.628560e-08   -1.032000e-01
    2.410205e+01    2.257932e+02    3.740180e-03    6.450787e+05    2.224098e-08    8.760140e-12    1.659382e-08   -9.820000e-02
    2.401357e+01    2.264052e+02    4.218259e-03    7.174082e+05    2.247211e-08    9.090465e-12    1.690005e-08   -9.320000e-02
    2.392557e+01    2.271657e+02    4.755350e-03    7.976359e+05    2.270180e-08    9.432150e-12    1.720408e-08   -8.820000e-02
    2.383812e+01    2.280871e+02    5.358475e-03    8.866073e+05    2.292989e-08    9.785545e-12    1.750572e-08   -8.320000e-02
    2.375115e+01    2.291813e+02    6.035460e-03    9.852522e+05    2.315622e-08    1.015101e-11    1.780477e-08   -7.820000e-02
    2.366450e+01    2.304594e+02    6.795030e-03    1.094593e+06    2.338064e-08    1.052892e-11    1.810105e-08   -7.320000e-02
    2.357797e+01    2.319326e+02    7.646880e-03    1.215748e+06    2.360301e-08    1.091964e-11    1.839437e-08   -6.820000e-02
    2.349117e+01    2.336102e+02    8.601790e-03    1.349939e+06    2.382318e-08    1.132357e-11    1.868459e-08   -6.320000e-02
    2.340361e+01    2.355008e+02    9.671735e-03    1.498492e+06    2.404103e-08    1.174112e-11    1.897154e-08   -5.820000e-02
    2.331469e+01    2.376109e+02    1.086998e-02    1.662843e+06    2.425643e-08    1.217269e-11    1.925508e-08   -5.320000e-02
    2.322366e+01    2.399457e+02    1.221117e-02    1.844536e+06    2.446927e-08    1.261873e-11    1.953508e-08   -4.820000e-02
    2.312967e+01    2.425080e+02    1.371152e-02    2.045217e+06    2.467945e-08    1.307966e-11    1.981143e-08   -4.320000e-02
    2.303174e+01    2.452982e+02    1.538882e-02    2.266637e+06    2.488687e-08    1.355596e-11    2.008399e-08   -3.820000e-02
    2.292882e+01    2.483141e+02    1.726265e-02    2.510635e+06    2.509144e-08    1.404808e-11    2.035267e-08   -3.320000e-02
    2.281976e+01    2.515507e+02    1.935439e-02    2.779130e+06    2.529308e-08    1.455652e-11    2.061738e-08   -2.820000e-02
    2.270338e+01    2.550001e+02    2.168738e-02    3.074106e+06    2.549171e-08    1.508178e-11    2.087805e-08   -2.320000e-02
    2.257851e+01    2.586512e+02    2.428695e-02    3.397585e+06    2.568727e-08    1.562437e-11    2.113458e-08   -1.820000e-02
    2.244393e+01    2.624898e+02    2.718049e-02    3.751604e+06    2.587970e-08    1.618484e-11    2.138692e-08   -1.320000e-02
    2.229853e+01    2.664986e+02    3.039750e-02    4.138191e+06    2.606895e-08    1.676373e-11    2.163502e-08   -8.200000e-03
    2.214126e+01    2.706573e+02    3.396956e-02    4.559326e+06    2.625499e-08    1.736161e-11    2.187883e-08   -3.200000e-03
    2.197121e+01    2.749430e+02    3.793034e-02    5.016910e+06    2.643775e-08    1.797907e-11    2.211831e-08    1.800000e-03
    2.178757e+01    2.793299e+02    4.231553e-02    5.512718e+06    2.661724e-08    1.861673e-11    2.235344e-08    6.800000e-03
    2.158974e+01    2.837899e+02    4.716270e-02    6.048371e+06    2.679340e-08    1.927521e-11    2.258420e-08    1.180000e-02
    2.137729e+01    2.882931e+02    5.251125e-02    6.625288e+06    2.696624e-08    1.995516e-11    2.281058e-08    1.680000e-02
    2.115001e+01    2.928083e+02    5.840210e-02    7.244653e+06    2.713574e-08    2.065726e-11    2.303256e-08    2.180000e-02
    2.090789e+01    2.973028e+02    6.487760e-02    7.907379e+06    2.730189e-08    2.138220e-11    2.325015e-08    2.680000e-02
    2.065111e+01    3.017437e+02    7.198130e-02    8.614071e+06    2.746469e-08    2.213071e-11    2.346336e-08    3.180000e-02
    2.038007e+01    3.060979e+02    7.975745e-02    9.365008e+06    2.762415e-08    2.290351e-11    2.367221e-08    3.680000e-02
    2.009537e+01    3.103323e+02    8.825090e-02    1.016011e+07    2.778028e-08    2.370140e-11    2.387672e-08    4.180000e-02
    1.979774e+01    3.144161e+02    9.750680e-02    1.099895e+07    2.793310e-08    2.452516e-11    2.407690e-08    4.680000e-02
    1.948810e+01    3.183180e+02    1.075699e-01    1.188072e+07    2.808263e-08    2.537561e-11    2.427280e-08    5.180000e-02
    1.916748e+01    3.220101e+02    1.184848e-01    1.280425e+07    2.822888e-08    2.625362e-11    2.446445e-08    5.680000e-02
    1.883702e+01    3.254662e+02    1.302949e-01    1.376802e+07    2.837189e-08    2.716007e-11    2.465189e-08    6.180000e-02
    1.849795e+01    3.286624e+02    1.430423e-01    1.477017e+07    2.851168e-08    2.809586e-11    2.483517e-08    6.680000e-02
    1.815151e+01    3.315778e+02    1.567680e-01    1.580853e+07    2.864829e-08    2.906195e-11    2.501432e-08    7.180000e-02
    1.779901e+01    3.341943e+02    1.715107e-01    1.688068e+07    2.878176e-08    3.005933e-11    2.518942e-08    7.680000e-02
    1.744175e+01    3.364975e+02    1.873071e-01    1.798393e+07    2.891211e-08    3.108901e-11    2.536050e-08    8.180000e-02
    1.708102e+01    3.384753e+02    2.041913e-01    1.911540e+07    2.903941e-08    3.215203e-11    2.552764e-08    8.680000e-02
    1.671808e+01    3.401197e+02    2.221951e-01    2.027209e+07    2.916370e-08    3.324950e-11    2.569089e-08    9.180000e-02
    1.635414e+01    3.414251e+02    2.413472e-01    2.145086e+07    2.928500e-08    3.438254e-11    2.585030e-08    9.680000e-02
    1.599033e+01    3.423892e+02    2.616735e-01    2.264853e+07    2.940339e-08    3.555233e-11    2.600596e-08    1.018000e-01
    1.562776e+01    3.430124e+02    2.831967e-01    2.386190e+07    2.951889e-08    3.676008e-11    2.615791e-08    1.068000e-01
    1.526741e+01    3.432981e+02    3.059368e-01    2.508780e+07    2.963157e-08    3.800705e-11    2.630623e-08    1.118000e-01
    1.491022e+01    3.432513e+02    3.299105e-01    2.632313e+07    2.974149e-08    3.929455e-11    2.645100e-08    1.168000e-01
    1.455701e+01    3.428800e+02    3.551313e-01    2.756489e+07    2.984867e-08    4.062393e-11    2.659227e-08    1.218000e-01
    1.420856e+01    3.421940e+02    3.816101e-01    2.881024e+07    2.995320e-08    4.199660e-11    2.673013e-08    1.268000e-01
    1.386552e+01    3.412039e+02    4.093547e-01    3.005644e+07    3.005512e-08    4.341401e-11    2.686462e-08    1.318000e-01
    1.352845e+01    3.399222e+02    4.383705e-01    3.130097e+07    3.015448e-08    4.487768e-11    2.699586e-08    1.368000e-01
    1.319791e+01    3.383632e+02    4.686599e-01    3.254156e+07    3.025134e-08    4.638917e-11    2.712387e-08    1.418000e-01
    1.287427e+01    3.365406e+02    5.002235e-01    3.377603e+07    3.034576e-08    4.795012e-11    2.724876e-08    1.468000e-01
    1.255790e+01    3.344695e+02    5.330590e-01    3.500251e+07    3.043779e-08    4.956220e-11    2.737058e-08    1.518000e-01
    1.224909e+01    3.321659e+02    5.671630e-01    3.621936e+07    3.052749e-08    5.122720e-11    2.748942e-08    1.568000e-01
    1.194806e+01    3.296447e+02    6.025290e-01    3.742505e+07    3.061491e-08    5.294685e-11    2.760533e-08    1.618000e-01
    1.165495e+01    3.269218e+02    6.391505e-01    3.861836e+07    3.070012e-08    5.472315e-11    2.771840e-08    1.668000e-01
    1.136989e+01    3.240126e+02    6.770190e-01    3.979826e+07    3.078315e-08    5.655800e-11    2.782868e-08    1.718000e-01
    1.109294e+01    3.209323e+02    7.161235e-01    4.096391e+07    3.086408e-08    5.845345e-11    2.793626e-08    1.768000e-01
    1.082411e+01    3.176955e+02    7.564540e-01    4.211462e+07    3.094296e-08    6.041160e-11    2.804120e-08    1.818000e-01
    1.056337e+01    3.143166e+02    7.979990e-01    4.324994e+07    3.101983e-08    6.243465e-11    2.814357e-08    1.868000e-01
    1.031068e+01    3.108089e+02    8.407455e-01    4.436950e+07    3.109476e-08    6.452490e-11    2.824343e-08    1.918000e-01
    1.006594e+01    3.071855e+02    8.846810e-01    4.547314e+07    3.116780e-08    6.668465e-11    2.834085e-08    1.968000e-01
    9.829048e+00    3.034590e+02    9.297925e-01    4.656081e+07    3.123900e-08    6.891645e-11    2.843590e-08    2.018000e-01
    9.599874e+00    2.996408e+02    9.760665e-01    4.763258e+07    3.130840e-08    7.122280e-11    2.852863e-08    2.068000e-01
    9.378264e+00    2.957418e+02    1.023489e+00    4.868858e+07    3.137608e-08    7.360635e-11    2.861913e-08    2.118000e-01
    9.164048e+00    2.917721e+02    1.072048e+00    4.972908e+07    3.144206e-08    7.606990e-11    2.870743e-08    2.168000e-01
    8.957060e+00    2.877414e+02    1.121727e+00    5.075444e+07    3.150641e-08    7.861625e-11    2.879362e-08    2.218000e-01
    8.757093e+00    2.836581e+02    1.172517e+00    5.176497e+07    3.156918e-08    8.124845e-11    2.887773e-08    2.268000e-01
    8.563972e+00    2.795305e+02    1.224402e+00    5.276122e+07    3.163040e-08    8.396955e-11    2.895984e-08    2.318000e-01
    8.377487e+00    2.753658e+02    1.277370e+00    5.374359e+07    3.169012e-08    8.678280e-11    2.904000e-08    2.368000e-01
