# sky130 nfet_01v8 gm/ID Processed Lookup Table
# Corner: ff
# Temperature: 25C
# W = 2.0 um
# L = 2.88 um (2880 nm)
# Columns: gm/id [1/V]  gm/gds [V/V]  id/W [A/m]  ft [Hz]  Cgg/W [F/m]  Cgd/W [F/m]  Cgs/W [F/m]  Vov [V]
#         gm/id          gm/gds            id/W              ft           Cgg/W           Cgd/W           Cgs/W             Vov
    2.671585e+01    1.705160e+02    9.078755e-08    6.107373e+01    6.320640e-09    1.629197e-13    4.116595e-10   -5.276669e-01
    2.671484e+01    1.705095e+02    1.037619e-07    6.986080e+01    6.315055e-09    1.689338e-13    4.288521e-10   -5.226669e-01
    2.671376e+01    1.705026e+02    1.185898e-07    7.990100e+01    6.310305e-09    1.751889e-13    4.468805e-10   -5.176669e-01
    2.671261e+01    1.704953e+02    1.355359e-07    9.137097e+01    6.306415e-09    1.816955e-13    4.657843e-10   -5.126669e-01
    2.671138e+01    1.704875e+02    1.549026e-07    1.044718e+02    6.303415e-09    1.884645e-13    4.856046e-10   -5.076669e-01
    2.671006e+01    1.704791e+02    1.770355e-07    1.194325e+02    6.301340e-09    1.955075e-13    5.063830e-10   -5.026669e-01
    2.670865e+01    1.704702e+02    2.023294e-07    1.365134e+02    6.300220e-09    2.028363e-13    5.281645e-10   -4.976669e-01
    2.670715e+01    1.704606e+02    2.312354e-07    1.560110e+02    6.300090e-09    2.104635e-13    5.509945e-10   -4.926669e-01
    2.670553e+01    1.704504e+02    2.642692e-07    1.782624e+02    6.300980e-09    2.184020e-13    5.749210e-10   -4.876669e-01
    2.670381e+01    1.704394e+02    3.020195e-07    2.036505e+02    6.302935e-09    2.266657e-13    5.999915e-10   -4.826669e-01
    2.670196e+01    1.704277e+02    3.451593e-07    2.326108e+02    6.305985e-09    2.352686e-13    6.262570e-10   -4.776669e-01
    2.670000e+01    1.704152e+02    3.944574e-07    2.656383e+02    6.310165e-09    2.442256e-13    6.537685e-10   -4.726669e-01
    2.669791e+01    1.704018e+02    4.507919e-07    3.032941e+02    6.315525e-09    2.535521e-13    6.825790e-10   -4.676669e-01
    2.669565e+01    1.703877e+02    5.151665e-07    3.462158e+02    6.322100e-09    2.632643e-13    7.127430e-10   -4.626669e-01
    2.669326e+01    1.703725e+02    5.887270e-07    3.951270e+02    6.329930e-09    2.733789e-13    7.443155e-10   -4.576669e-01
    2.669071e+01    1.703562e+02    6.727825e-07    4.508475e+02    6.339065e-09    2.839135e-13    7.773540e-10   -4.526669e-01
    2.668796e+01    1.703389e+02    7.688295e-07    5.143076e+02    6.349545e-09    2.948864e-13    8.119160e-10   -4.476669e-01
    2.668506e+01    1.703204e+02    8.785750e-07    5.865618e+02    6.361410e-09    3.063164e-13    8.480610e-10   -4.426669e-01
    2.668194e+01    1.703007e+02    1.003972e-06    6.688028e+02    6.374715e-09    3.182236e-13    8.858490e-10   -4.376669e-01
    2.667860e+01    1.702796e+02    1.147247e-06    7.623831e+02    6.389500e-09    3.306284e-13    9.253415e-10   -4.326669e-01
    2.667504e+01    1.702571e+02    1.310947e-06    8.688321e+02    6.405815e-09    3.435523e-13    9.665995e-10   -4.276669e-01
    2.667125e+01    1.702331e+02    1.497977e-06    9.898799e+02    6.423710e-09    3.570177e-13    1.009687e-09   -4.226669e-01
    2.666720e+01    1.702075e+02    1.711656e-06    1.127484e+03    6.443230e-09    3.710477e-13    1.054665e-09   -4.176669e-01
    2.666285e+01    1.701801e+02    1.955776e-06    1.283854e+03    6.464430e-09    3.856665e-13    1.101598e-09   -4.126669e-01
    2.665825e+01    1.701511e+02    2.234661e-06    1.461491e+03    6.487350e-09    4.008993e-13    1.150550e-09   -4.076669e-01
    2.665330e+01    1.701200e+02    2.553254e-06    1.663211e+03    6.512050e-09    4.167720e-13    1.201584e-09   -4.026669e-01
    2.664803e+01    1.700867e+02    2.917194e-06    1.892203e+03    6.538570e-09    4.333117e-13    1.254764e-09   -3.976669e-01
    2.664242e+01    1.700515e+02    3.332919e-06    2.152055e+03    6.566970e-09    4.505467e-13    1.310153e-09   -3.926669e-01
    2.663641e+01    1.700137e+02    3.807777e-06    2.446818e+03    6.597290e-09    4.685059e-13    1.367812e-09   -3.876669e-01
    2.663001e+01    1.699735e+02    4.350156e-06    2.781060e+03    6.629580e-09    4.872197e-13    1.427805e-09   -3.826669e-01
    2.662317e+01    1.699308e+02    4.969628e-06    3.159919e+03    6.663890e-09    5.067195e-13    1.490190e-09   -3.776669e-01
    2.661589e+01    1.698851e+02    5.677110e-06    3.589188e+03    6.700270e-09    5.270375e-13    1.555030e-09   -3.726669e-01
    2.660812e+01    1.698366e+02    6.485070e-06    4.075388e+03    6.738760e-09    5.482080e-13    1.622378e-09   -3.676669e-01
    2.659982e+01    1.697848e+02    7.407720e-06    4.625854e+03    6.779405e-09    5.702660e-13    1.692293e-09   -3.626669e-01
    2.659098e+01    1.697298e+02    8.461275e-06    5.248828e+03    6.822255e-09    5.932465e-13    1.764827e-09   -3.576669e-01
    2.658155e+01    1.696711e+02    9.664230e-06    5.953590e+03    6.867345e-09    6.171885e-13    1.840032e-09   -3.526669e-01
    2.657150e+01    1.696088e+02    1.103768e-05    6.750560e+03    6.914710e-09    6.421295e-13    1.917955e-09   -3.476669e-01
    2.656078e+01    1.695424e+02    1.260566e-05    7.651431e+03    6.964400e-09    6.681100e-13    1.998643e-09   -3.426669e-01
    2.654937e+01    1.694719e+02    1.439558e-05    8.669359e+03    7.016435e-09    6.951715e-13    2.082136e-09   -3.376669e-01
    2.653721e+01    1.693969e+02    1.643870e-05    9.819073e+03    7.070860e-09    7.233570e-13    2.168474e-09   -3.326669e-01
    2.652426e+01    1.693173e+02    1.877060e-05    1.111713e+04    7.127690e-09    7.527100e-13    2.257690e-09   -3.276669e-01
    2.651047e+01    1.692327e+02    2.143188e-05    1.258208e+04    7.186960e-09    7.832760e-13    2.349814e-09   -3.226669e-01
    2.649580e+01    1.691429e+02    2.446871e-05    1.423471e+04    7.248690e-09    8.151030e-13    2.444872e-09   -3.176669e-01
    2.648017e+01    1.690477e+02    2.793375e-05    1.609832e+04    7.312900e-09    8.482390e-13    2.542884e-09   -3.126669e-01
    2.646356e+01    1.689467e+02    3.188691e-05    1.819902e+04    7.379600e-09    8.827345e-13    2.643867e-09   -3.076669e-01
    2.644590e+01    1.688397e+02    3.639639e-05    2.056602e+04    7.448800e-09    9.186405e-13    2.747829e-09   -3.026669e-01
    2.642710e+01    1.687264e+02    4.153982e-05    2.323202e+04    7.520510e-09    9.560110e-13    2.854776e-09   -2.976669e-01
    2.640714e+01    1.686065e+02    4.740551e-05    2.623361e+04    7.594730e-09    9.949000e-13    2.964706e-09   -2.926669e-01
    2.638595e+01    1.684797e+02    5.409390e-05    2.961171e+04    7.671455e-09    1.035365e-12    3.077610e-09   -2.876669e-01
    2.636343e+01    1.683459e+02    6.171925e-05    3.341205e+04    7.750675e-09    1.077463e-12    3.193478e-09   -2.826669e-01
    2.633954e+01    1.682044e+02    7.041130e-05    3.768570e+04    7.832385e-09    1.121254e-12    3.312287e-09   -2.776669e-01
    2.631420e+01    1.680553e+02    8.031760e-05    4.248980e+04    7.916555e-09    1.166800e-12    3.434010e-09   -2.726669e-01
    2.628734e+01    1.678982e+02    9.160565e-05    4.788803e+04    8.003170e-09    1.214165e-12    3.558616e-09   -2.676669e-01
    2.625887e+01    1.677328e+02    1.044658e-04    5.395150e+04    8.092200e-09    1.263413e-12    3.686063e-09   -2.626669e-01
    2.622874e+01    1.675590e+02    1.191138e-04    6.075957e+04    8.183605e-09    1.314611e-12    3.816304e-09   -2.576669e-01
    2.619684e+01    1.673766e+02    1.357947e-04    6.840068e+04    8.277350e-09    1.367828e-12    3.949287e-09   -2.526669e-01
    2.616313e+01    1.671853e+02    1.547862e-04    7.697338e+04    8.373390e-09    1.423136e-12    4.084951e-09   -2.476669e-01
    2.612750e+01    1.669851e+02    1.764031e-04    8.658745e+04    8.471675e-09    1.480606e-12    4.223229e-09   -2.426669e-01
    2.608988e+01    1.667759e+02    2.010023e-04    9.736518e+04    8.572145e-09    1.540313e-12    4.364047e-09   -2.376669e-01
    2.605023e+01    1.665578e+02    2.289875e-04    1.094427e+05    8.674745e-09    1.602334e-12    4.507324e-09   -2.326669e-01
    2.600840e+01    1.663307e+02    2.608159e-04    1.229711e+05    8.779400e-09    1.666747e-12    4.652975e-09   -2.276669e-01
    2.596440e+01    1.660948e+02    2.970046e-04    1.381188e+05    8.886050e-09    1.733633e-12    4.800906e-09   -2.226669e-01
    2.591811e+01    1.658505e+02    3.381383e-04    1.550727e+05    8.994610e-09    1.803074e-12    4.951020e-09   -2.176669e-01
    2.586948e+01    1.655979e+02    3.848774e-04    1.740404e+05    9.105005e-09    1.875157e-12    5.103210e-09   -2.126669e-01
    2.581846e+01    1.653377e+02    4.379680e-04    1.952524e+05    9.217145e-09    1.949968e-12    5.257370e-09   -2.076669e-01
    2.576501e+01    1.650704e+02    4.982517e-04    2.189644e+05    9.330945e-09    2.027597e-12    5.413385e-09   -2.026669e-01
    2.570907e+01    1.647970e+02    5.666780e-04    2.454600e+05    9.446310e-09    2.108136e-12    5.571130e-09   -1.976669e-01
    2.565061e+01    1.645184e+02    6.443175e-04    2.750535e+05    9.563145e-09    2.191679e-12    5.730490e-09   -1.926669e-01
    2.558963e+01    1.642358e+02    7.323755e-04    3.080932e+05    9.681345e-09    2.278322e-12    5.891330e-09   -1.876669e-01
    2.552611e+01    1.639507e+02    8.322090e-04    3.449650e+05    9.800815e-09    2.368166e-12    6.053525e-09   -1.826669e-01
    2.546006e+01    1.636647e+02    9.453455e-04    3.860958e+05    9.921445e-09    2.461311e-12    6.216940e-09   -1.776669e-01
    2.539152e+01    1.633800e+02    1.073500e-03    4.319587e+05    1.004312e-08    2.557862e-12    6.381435e-09   -1.726669e-01
    2.532052e+01    1.630987e+02    1.218604e-03    4.830766e+05    1.016575e-08    2.657927e-12    6.546875e-09   -1.676669e-01
    2.524713e+01    1.628235e+02    1.382822e-03    5.400285e+05    1.028921e-08    2.761615e-12    6.713115e-09   -1.626669e-01
    2.517145e+01    1.625576e+02    1.568584e-03    6.034546e+05    1.041338e-08    2.869039e-12    6.880020e-09   -1.576669e-01
    2.509358e+01    1.623041e+02    1.778618e-03    6.740634e+05    1.053816e-08    2.980315e-12    7.047445e-09   -1.526669e-01
    2.501363e+01    1.620669e+02    2.015981e-03    7.526380e+05    1.066344e-08    3.095562e-12    7.215245e-09   -1.476669e-01
    2.493179e+01    1.618505e+02    2.284096e-03    8.400465e+05    1.078909e-08    3.214902e-12    7.383280e-09   -1.426669e-01
    2.484821e+01    1.616592e+02    2.586798e-03    9.372469e+05    1.091500e-08    3.338459e-12    7.551410e-09   -1.376669e-01
    2.476309e+01    1.614983e+02    2.928381e-03    1.045301e+06    1.104107e-08    3.466363e-12    7.719495e-09   -1.326669e-01
    2.467663e+01    1.613733e+02    3.313648e-03    1.165384e+06    1.116717e-08    3.598745e-12    7.887395e-09   -1.276669e-01
    2.458909e+01    1.612905e+02    3.747970e-03    1.298797e+06    1.129321e-08    3.735741e-12    8.054975e-09   -1.226669e-01
    2.450069e+01    1.612563e+02    4.237354e-03    1.446980e+06    1.141907e-08    3.877490e-12    8.222105e-09   -1.176669e-01
    2.441169e+01    1.612775e+02    4.788514e-03    1.611530e+06    1.154464e-08    4.024134e-12    8.388645e-09   -1.126669e-01
    2.432232e+01    1.613614e+02    5.408950e-03    1.794212e+06    1.166983e-08    4.175822e-12    8.554475e-09   -1.076669e-01
    2.423281e+01    1.615158e+02    6.107045e-03    1.996985e+06    1.179452e-08    4.332703e-12    8.719465e-09   -1.026669e-01
    2.414336e+01    1.617484e+02    6.892155e-03    2.222014e+06    1.191863e-08    4.494933e-12    8.883500e-09   -9.766690e-02
    2.405418e+01    1.620674e+02    7.774720e-03    2.471697e+06    1.204205e-08    4.662672e-12    9.046465e-09   -9.266690e-02
    2.396540e+01    1.624809e+02    8.766400e-03    2.748686e+06    1.216469e-08    4.836082e-12    9.208240e-09   -8.766690e-02
    2.387707e+01    1.629971e+02    9.880195e-03    3.055905e+06    1.228646e-08    5.015335e-12    9.368725e-09   -8.266690e-02
    2.378923e+01    1.636238e+02    1.113060e-02    3.396579e+06    1.240730e-08    5.200600e-12    9.527820e-09   -7.766690e-02
    2.370177e+01    1.643687e+02    1.253375e-02    3.774260e+06    1.252709e-08    5.392055e-12    9.685420e-09   -7.266690e-02
    2.361454e+01    1.652390e+02    1.410763e-02    4.192837e+06    1.264578e-08    5.589890e-12    9.841440e-09   -6.766690e-02
    2.352724e+01    1.662409e+02    1.587222e-02    4.656568e+06    1.276329e-08    5.794290e-12    9.995790e-09   -6.266690e-02
    2.343946e+01    1.673802e+02    1.784971e-02    5.170091e+06    1.287955e-08    6.005450e-12    1.014839e-08   -5.766690e-02
    2.335069e+01    1.686612e+02    2.006472e-02    5.738436e+06    1.299450e-08    6.223565e-12    1.029916e-08   -5.266690e-02
    2.326026e+01    1.700872e+02    2.254450e-02    6.367026e+06    1.310807e-08    6.448850e-12    1.044805e-08   -4.766690e-02
    2.316741e+01    1.716599e+02    2.531917e-02    7.061690e+06    1.322021e-08    6.681510e-12    1.059496e-08   -4.266690e-02
    2.307121e+01    1.733790e+02    2.842190e-02    7.828617e+06    1.333087e-08    6.921770e-12    1.073986e-08   -3.766690e-02
    2.297068e+01    1.752430e+02    3.188918e-02    8.674367e+06    1.344000e-08    7.169855e-12    1.088268e-08   -3.266690e-02
    2.286475e+01    1.772481e+02    3.576099e-02    9.605828e+06    1.354757e-08    7.425995e-12    1.102338e-08   -2.766690e-02
    2.275223e+01    1.793880e+02    4.008102e-02    1.063012e+07    1.365352e-08    7.690425e-12    1.116192e-08   -2.266690e-02
    2.263195e+01    1.816548e+02    4.489682e-02    1.175460e+07    1.375783e-08    7.963400e-12    1.129825e-08   -1.766690e-02
    2.250271e+01    1.840379e+02    5.025990e-02    1.298671e+07    1.386046e-08    8.245175e-12    1.143234e-08   -1.266690e-02
    2.236333e+01    1.865248e+02    5.622590e-02    1.433391e+07    1.396139e-08    8.536005e-12    1.156416e-08   -7.666900e-03
    2.221274e+01    1.891006e+02    6.285450e-02    1.580357e+07    1.406058e-08    8.836170e-12    1.169370e-08   -2.666900e-03
    2.204989e+01    1.917485e+02    7.020955e-02    1.740281e+07    1.415805e-08    9.145940e-12    1.182092e-08    2.333100e-03
    2.187392e+01    1.944497e+02    7.835890e-02    1.913842e+07    1.425375e-08    9.465615e-12    1.194583e-08    7.333100e-03
    2.168411e+01    1.971839e+02    8.737420e-02    2.101665e+07    1.434767e-08    9.795490e-12    1.206840e-08    1.233310e-02
    2.147986e+01    1.999291e+02    9.733090e-02    2.304309e+07    1.443982e-08    1.013587e-11    1.218864e-08    1.733310e-02
    2.126085e+01    2.026629e+02    1.083075e-01    2.522252e+07    1.453017e-08    1.048707e-11    1.230653e-08    2.233310e-02
    2.102693e+01    2.053616e+02    1.203856e-01    2.755881e+07    1.461875e-08    1.084943e-11    1.242208e-08    2.733310e-02
    2.077814e+01    2.080013e+02    1.336492e-01    3.005472e+07    1.470553e-08    1.122327e-11    1.253529e-08    3.233310e-02
    2.051474e+01    2.105583e+02    1.481843e-01    3.271185e+07    1.479052e-08    1.160896e-11    1.264619e-08    3.733310e-02
    2.023721e+01    2.130094e+02    1.640781e-01    3.553049e+07    1.487374e-08    1.200685e-11    1.275476e-08    4.233310e-02
    1.994617e+01    2.153319e+02    1.814185e-01    3.850964e+07    1.495518e-08    1.241733e-11    1.286103e-08    4.733310e-02
    1.964245e+01    2.175047e+02    2.002934e-01    4.164691e+07    1.503487e-08    1.284078e-11    1.296502e-08    5.233310e-02
    1.932700e+01    2.195079e+02    2.207899e-01    4.493852e+07    1.511281e-08    1.327758e-11    1.306675e-08    5.733310e-02
    1.900091e+01    2.213237e+02    2.429937e-01    4.837936e+07    1.518900e-08    1.372817e-11    1.316623e-08    6.233310e-02
    1.866533e+01    2.229361e+02    2.669883e-01    5.196299e+07    1.526349e-08    1.419296e-11    1.326349e-08    6.733310e-02
    1.832152e+01    2.243315e+02    2.928542e-01    5.568180e+07    1.533628e-08    1.467242e-11    1.335856e-08    7.233310e-02
    1.797076e+01    2.254987e+02    3.206686e-01    5.952705e+07    1.540738e-08    1.516698e-11    1.345147e-08    7.733310e-02
    1.761437e+01    2.264290e+02    3.505044e-01    6.348906e+07    1.547683e-08    1.567712e-11    1.354224e-08    8.233310e-02
    1.725364e+01    2.271159e+02    3.824297e-01    6.755725e+07    1.554464e-08    1.620333e-11    1.363091e-08    8.733310e-02
    1.688988e+01    2.275560e+02    4.165076e-01    7.172057e+07    1.561083e-08    1.674613e-11    1.371750e-08    9.233310e-02
    1.652433e+01    2.277475e+02    4.527955e-01    7.596727e+07    1.567544e-08    1.730603e-11    1.380206e-08    9.733310e-02
    1.615821e+01    2.276917e+02    4.913453e-01    8.028550e+07    1.573849e-08    1.788358e-11    1.388461e-08    1.023331e-01
    1.579264e+01    2.273915e+02    5.322025e-01    8.466318e+07    1.580000e-08    1.847935e-11    1.396520e-08    1.073331e-01
    1.542869e+01    2.268519e+02    5.754060e-01    8.908821e+07    1.586001e-08    1.909392e-11    1.404385e-08    1.123331e-01
    1.506734e+01    2.260797e+02    6.209900e-01    9.354884e+07    1.591853e-08    1.972788e-11    1.412061e-08    1.173331e-01
    1.470949e+01    2.250832e+02    6.689810e-01    9.803350e+07    1.597560e-08    2.038187e-11    1.419550e-08    1.223331e-01
    1.435599e+01    2.238722e+02    7.193995e-01    1.025312e+08    1.603124e-08    2.105653e-11    1.426858e-08    1.273331e-01
    1.400753e+01    2.224575e+02    7.722620e-01    1.070316e+08    1.608550e-08    2.175254e-11    1.433987e-08    1.323331e-01
    1.366478e+01    2.208505e+02    8.275770e-01    1.115248e+08    1.613838e-08    2.247059e-11    1.440943e-08    1.373331e-01
    1.332830e+01    2.190635e+02    8.853490e-01    1.160017e+08    1.618993e-08    2.321140e-11    1.447727e-08    1.423331e-01
    1.299855e+01    2.171095e+02    9.455780e-01    1.204542e+08    1.624017e-08    2.397571e-11    1.454344e-08    1.473331e-01
    1.267596e+01    2.150011e+02    1.008258e+00    1.248746e+08    1.628914e-08    2.476431e-11    1.460799e-08    1.523331e-01
    1.236084e+01    2.127518e+02    1.073381e+00    1.292567e+08    1.633686e-08    2.557798e-11    1.467095e-08    1.573331e-01
    1.205345e+01    2.103743e+02    1.140932e+00    1.335943e+08    1.638337e-08    2.641758e-11    1.473235e-08    1.623331e-01
    1.175401e+01    2.078815e+02    1.210896e+00    1.378828e+08    1.642869e-08    2.728394e-11    1.479223e-08    1.673331e-01
    1.146264e+01    2.052860e+02    1.283254e+00    1.421179e+08    1.647285e-08    2.817797e-11    1.485064e-08    1.723331e-01
    1.117945e+01    2.025996e+02    1.357983e+00    1.462962e+08    1.651589e-08    2.910061e-11    1.490761e-08    1.773331e-01
    1.090447e+01    1.998344e+02    1.435060e+00    1.504152e+08    1.655782e-08    3.005281e-11    1.496317e-08    1.823331e-01
    1.063770e+01    1.970009e+02    1.514460e+00    1.544728e+08    1.659869e-08    3.103555e-11    1.501735e-08    1.873331e-01
    1.037911e+01    1.941099e+02    1.596155e+00    1.584678e+08    1.663851e-08    3.204989e-11    1.507022e-08    1.923331e-01
    1.012863e+01    1.911713e+02    1.680118e+00    1.623994e+08    1.667732e-08    3.309688e-11    1.512178e-08    1.973331e-01
    9.886167e+00    1.881939e+02    1.766318e+00    1.662673e+08    1.671515e-08    3.417766e-11    1.517207e-08    2.023331e-01
    9.651591e+00    1.851866e+02    1.854729e+00    1.700718e+08    1.675202e-08    3.529336e-11    1.522115e-08    2.073331e-01
    9.424760e+00    1.821570e+02    1.945319e+00    1.738136e+08    1.678795e-08    3.644520e-11    1.526902e-08    2.123331e-01
    9.205519e+00    1.791124e+02    2.038061e+00    1.774935e+08    1.682298e-08    3.763440e-11    1.531573e-08    2.173331e-01
    8.993689e+00    1.760594e+02    2.132924e+00    1.811129e+08    1.685714e-08    3.886226e-11    1.536131e-08    2.223331e-01
    8.789087e+00    1.730039e+02    2.229880e+00    1.846734e+08    1.689045e-08    4.013013e-11    1.540579e-08    2.273331e-01
