# sky130 nfet_01v8 gm/ID Processed Lookup Table
# Corner: ff
# Temperature: 25C
# W = 2.0 um
# L = 2.7 um (2700 nm)
# Columns: gm/id [1/V]  gm/gds [V/V]  id/W [A/m]  ft [Hz]  Cgg/W [F/m]  Cgd/W [F/m]  Cgs/W [F/m]  Vov [V]
#         gm/id          gm/gds            id/W              ft           Cgg/W           Cgd/W           Cgs/W             Vov
    2.678618e+01    1.657488e+02    8.999685e-08    6.471636e+01    5.928490e-09    1.487726e-13    3.806899e-10   -5.290116e-01
    2.678521e+01    1.657427e+02    1.028944e-07    7.405619e+01    5.923050e-09    1.542708e-13    3.965566e-10   -5.240116e-01
    2.678416e+01    1.657363e+02    1.176397e-07    8.473233e+01    5.918380e-09    1.599894e-13    4.131952e-10   -5.190116e-01
    2.678304e+01    1.657294e+02    1.344973e-07    9.693375e+01    5.914510e-09    1.659379e-13    4.306425e-10   -5.140116e-01
    2.678185e+01    1.657220e+02    1.537698e-07    1.108758e+02    5.911465e-09    1.721265e-13    4.489369e-10   -5.090116e-01
    2.678057e+01    1.657142e+02    1.758028e-07    1.268036e+02    5.909275e-09    1.785656e-13    4.681168e-10   -5.040116e-01
    2.677920e+01    1.657057e+02    2.009914e-07    1.449962e+02    5.907975e-09    1.852662e-13    4.882240e-10   -4.990116e-01
    2.677775e+01    1.656967e+02    2.297875e-07    1.657717e+02    5.907585e-09    1.922398e-13    5.093010e-10   -4.940116e-01
    2.677618e+01    1.656870e+02    2.627071e-07    1.894911e+02    5.908150e-09    1.994982e-13    5.313925e-10   -4.890116e-01
    2.677451e+01    1.656768e+02    3.003403e-07    2.165660e+02    5.909695e-09    2.070540e-13    5.545425e-10   -4.840116e-01
    2.677272e+01    1.656657e+02    3.433617e-07    2.474633e+02    5.912260e-09    2.149201e-13    5.787985e-10   -4.790116e-01
    2.677081e+01    1.656540e+02    3.925419e-07    2.827149e+02    5.915875e-09    2.231103e-13    6.042085e-10   -4.740116e-01
    2.676877e+01    1.656415e+02    4.487618e-07    3.229236e+02    5.920585e-09    2.316385e-13    6.308215e-10   -4.690116e-01
    2.676660e+01    1.656281e+02    5.130280e-07    3.687754e+02    5.926420e-09    2.405196e-13    6.586885e-10   -4.640116e-01
    2.676426e+01    1.656137e+02    5.864915e-07    4.210484e+02    5.933420e-09    2.497690e-13    6.878615e-10   -4.590116e-01
    2.676178e+01    1.655984e+02    6.704660e-07    4.806246e+02    5.941635e-09    2.594028e-13    7.183930e-10   -4.540116e-01
    2.675912e+01    1.655821e+02    7.664545e-07    5.485061e+02    5.951095e-09    2.694376e-13    7.503385e-10   -4.490116e-01
    2.675628e+01    1.655647e+02    8.761735e-07    6.258285e+02    5.961845e-09    2.798910e-13    7.837525e-10   -4.440116e-01
    2.675325e+01    1.655461e+02    1.001584e-06    7.138778e+02    5.973930e-09    2.907809e-13    8.186915e-10   -4.390116e-01
    2.675002e+01    1.655262e+02    1.144927e-06    8.141118e+02    5.987395e-09    3.021266e-13    8.552130e-10   -4.340116e-01
    2.674655e+01    1.655050e+02    1.308763e-06    9.281811e+02    6.002280e-09    3.139474e-13    8.933755e-10   -4.290116e-01
    2.674286e+01    1.654823e+02    1.496017e-06    1.057953e+03    6.018635e-09    3.262641e-13    9.332370e-10   -4.240116e-01
    2.673891e+01    1.654582e+02    1.710030e-06    1.205541e+03    6.036505e-09    3.390976e-13    9.748575e-10   -4.190116e-01
    2.673471e+01    1.654325e+02    1.954618e-06    1.373336e+03    6.055930e-09    3.524705e-13    1.018297e-09   -4.140116e-01
    2.673020e+01    1.654049e+02    2.234142e-06    1.564033e+03    6.076970e-09    3.664055e-13    1.063614e-09   -4.090116e-01
    2.672540e+01    1.653756e+02    2.553580e-06    1.780690e+03    6.099660e-09    3.809267e-13    1.110871e-09   -4.040116e-01
    2.672026e+01    1.653441e+02    2.918619e-06    2.026747e+03    6.124050e-09    3.960589e-13    1.160126e-09   -3.990116e-01
    2.671480e+01    1.653108e+02    3.335753e-06    2.306097e+03    6.150185e-09    4.118278e-13    1.211439e-09   -3.940116e-01
    2.670894e+01    1.652752e+02    3.812396e-06    2.623122e+03    6.178120e-09    4.282603e-13    1.264871e-09   -3.890116e-01
    2.670270e+01    1.652371e+02    4.357014e-06    2.982774e+03    6.207890e-09    4.453842e-13    1.320479e-09   -3.840116e-01
    2.669604e+01    1.651967e+02    4.979274e-06    3.390625e+03    6.239550e-09    4.632283e-13    1.378321e-09   -3.790116e-01
    2.668893e+01    1.651536e+02    5.690210e-06    3.852964e+03    6.273135e-09    4.818225e-13    1.438453e-09   -3.740116e-01
    2.668135e+01    1.651076e+02    6.502410e-06    4.376857e+03    6.308700e-09    5.011975e-13    1.500930e-09   -3.690116e-01
    2.667326e+01    1.650586e+02    7.430250e-06    4.970275e+03    6.346280e-09    5.213860e-13    1.565806e-09   -3.640116e-01
    2.666464e+01    1.650065e+02    8.490130e-06    5.642181e+03    6.385915e-09    5.424210e-13    1.633133e-09   -3.590116e-01
    2.665544e+01    1.649510e+02    9.700765e-06    6.402650e+03    6.427650e-09    5.643365e-13    1.702959e-09   -3.540116e-01
    2.664562e+01    1.648919e+02    1.108351e-05    7.263012e+03    6.471520e-09    5.871680e-13    1.775331e-09   -3.490116e-01
    2.663517e+01    1.648290e+02    1.266269e-05    8.236003e+03    6.517560e-09    6.109530e-13    1.850293e-09   -3.440116e-01
    2.662402e+01    1.647621e+02    1.446611e-05    9.335917e+03    6.565810e-09    6.357290e-13    1.927886e-09   -3.390116e-01
    2.661214e+01    1.646910e+02    1.652540e-05    1.057883e+04    6.616290e-09    6.615360e-13    2.008147e-09   -3.340116e-01
    2.659949e+01    1.646155e+02    1.887670e-05    1.198275e+04    6.669035e-09    6.884135e-13    2.091110e-09   -3.290116e-01
    2.658601e+01    1.645352e+02    2.156114e-05    1.356790e+04    6.724070e-09    7.164045e-13    2.176805e-09   -3.240116e-01
    2.657165e+01    1.644499e+02    2.462561e-05    1.535696e+04    6.781415e-09    7.455515e-13    2.265258e-09   -3.190116e-01
    2.655637e+01    1.643594e+02    2.812355e-05    1.737536e+04    6.841090e-09    7.758995e-13    2.356489e-09   -3.140116e-01
    2.654010e+01    1.642635e+02    3.211583e-05    1.965156e+04    6.903110e-09    8.074945e-13    2.450516e-09   -3.090116e-01
    2.652281e+01    1.641616e+02    3.667175e-05    2.221751e+04    6.967485e-09    8.403840e-13    2.547349e-09   -3.040116e-01
    2.650442e+01    1.640539e+02    4.187024e-05    2.510892e+04    7.034220e-09    8.746170e-13    2.646994e-09   -2.990116e-01
    2.648487e+01    1.639398e+02    4.780112e-05    2.836578e+04    7.103320e-09    9.102440e-13    2.749454e-09   -2.940116e-01
    2.646410e+01    1.638191e+02    5.456660e-05    3.203283e+04    7.174785e-09    9.473165e-13    2.854721e-09   -2.890116e-01
    2.644204e+01    1.636914e+02    6.228295e-05    3.616009e+04    7.248610e-09    9.858885e-13    2.962786e-09   -2.840116e-01
    2.641861e+01    1.635566e+02    7.108240e-05    4.080351e+04    7.324780e-09    1.026015e-12    3.073631e-09   -2.790116e-01
    2.639374e+01    1.634143e+02    8.111530e-05    4.602562e+04    7.403280e-09    1.067751e-12    3.187235e-09   -2.740116e-01
    2.636738e+01    1.632643e+02    9.255240e-05    5.189622e+04    7.484090e-09    1.111157e-12    3.303566e-09   -2.690116e-01
    2.633943e+01    1.631063e+02    1.055878e-04    5.849326e+04    7.567185e-09    1.156292e-12    3.422590e-09   -2.640116e-01
    2.630983e+01    1.629402e+02    1.204418e-04    6.590378e+04    7.652530e-09    1.203216e-12    3.544264e-09   -2.590116e-01
    2.627849e+01    1.627656e+02    1.373645e-04    7.422476e+04    7.740095e-09    1.251996e-12    3.668540e-09   -2.540116e-01
    2.624534e+01    1.625824e+02    1.566397e-04    8.356440e+04    7.829840e-09    1.302693e-12    3.795363e-09   -2.490116e-01
    2.621029e+01    1.623906e+02    1.785892e-04    9.404339e+04    7.921710e-09    1.355375e-12    3.924672e-09   -2.440116e-01
    2.617327e+01    1.621898e+02    2.035777e-04    1.057959e+05    8.015665e-09    1.410111e-12    4.056398e-09   -2.390116e-01
    2.613422e+01    1.619804e+02    2.320186e-04    1.189717e+05    8.111640e-09    1.466971e-12    4.190469e-09   -2.340116e-01
    2.609302e+01    1.617620e+02    2.643798e-04    1.337371e+05    8.209575e-09    1.526027e-12    4.326805e-09   -2.290116e-01
    2.604961e+01    1.615348e+02    3.011908e-04    1.502772e+05    8.309410e-09    1.587353e-12    4.465319e-09   -2.240116e-01
    2.600395e+01    1.612993e+02    3.430510e-04    1.687978e+05    8.411070e-09    1.651026e-12    4.605919e-09   -2.190116e-01
    2.595595e+01    1.610554e+02    3.906374e-04    1.895277e+05    8.514480e-09    1.717123e-12    4.748511e-09   -2.140116e-01
    2.590556e+01    1.608039e+02    4.447154e-04    2.127208e+05    8.619565e-09    1.785725e-12    4.892990e-09   -2.090116e-01
    2.585271e+01    1.605451e+02    5.061490e-04    2.386590e+05    8.726235e-09    1.856913e-12    5.039250e-09   -2.040116e-01
    2.579736e+01    1.602798e+02    5.759135e-04    2.676549e+05    8.834410e-09    1.930771e-12    5.187180e-09   -1.990116e-01
    2.573948e+01    1.600088e+02    6.551085e-04    3.000555e+05    8.943995e-09    2.007386e-12    5.336665e-09   -1.940116e-01
    2.567907e+01    1.597335e+02    7.449730e-04    3.362454e+05    9.054900e-09    2.086847e-12    5.487585e-09   -1.890116e-01
    2.561608e+01    1.594548e+02    8.469035e-04    3.766505e+05    9.167020e-09    2.169245e-12    5.639815e-09   -1.840116e-01
    2.555052e+01    1.591745e+02    9.624715e-04    4.217422e+05    9.280270e-09    2.254672e-12    5.793230e-09   -1.790116e-01
    2.548241e+01    1.588944e+02    1.093445e-03    4.720436e+05    9.394535e-09    2.343225e-12    5.947705e-09   -1.740116e-01
    2.541181e+01    1.586166e+02    1.241809e-03    5.281324e+05    9.509720e-09    2.435000e-12    6.103105e-09   -1.690116e-01
    2.533875e+01    1.583436e+02    1.409799e-03    5.906489e+05    9.625715e-09    2.530100e-12    6.259305e-09   -1.640116e-01
    2.526333e+01    1.580780e+02    1.599919e-03    6.603009e+05    9.742420e-09    2.628627e-12    6.416160e-09   -1.590116e-01
    2.518564e+01    1.578231e+02    1.814983e-03    7.378721e+05    9.859720e-09    2.730686e-12    6.573545e-09   -1.540116e-01
    2.510580e+01    1.575825e+02    2.058146e-03    8.242292e+05    9.977515e-09    2.836386e-12    6.731325e-09   -1.490116e-01
    2.502395e+01    1.573601e+02    2.332943e-03    9.203307e+05    1.009570e-08    2.945838e-12    6.889360e-09   -1.440116e-01
    2.494026e+01    1.571602e+02    2.643336e-03    1.027239e+06    1.021415e-08    3.059157e-12    7.047525e-09   -1.390116e-01
    2.485492e+01    1.569877e+02    2.993761e-03    1.146127e+06    1.033278e-08    3.176461e-12    7.205675e-09   -1.340116e-01
    2.476814e+01    1.568479e+02    3.389183e-03    1.278296e+06    1.045147e-08    3.297868e-12    7.363690e-09   -1.290116e-01
    2.468015e+01    1.567466e+02    3.835155e-03    1.425185e+06    1.057012e-08    3.423504e-12    7.521435e-09   -1.240116e-01
    2.459118e+01    1.566897e+02    4.337892e-03    1.588388e+06    1.068862e-08    3.553494e-12    7.678785e-09   -1.190116e-01
    2.450147e+01    1.566840e+02    4.904340e-03    1.769671e+06    1.080688e-08    3.687968e-12    7.835615e-09   -1.140116e-01
    2.441130e+01    1.567365e+02    5.542260e-03    1.970990e+06    1.092480e-08    3.827061e-12    7.991800e-09   -1.090116e-01
    2.432086e+01    1.568543e+02    6.260330e-03    2.194511e+06    1.104228e-08    3.970910e-12    8.147225e-09   -1.040116e-01
    2.423040e+01    1.570452e+02    7.068235e-03    2.442631e+06    1.115922e-08    4.119656e-12    8.301780e-09   -9.901160e-02
    2.414009e+01    1.573168e+02    7.976800e-03    2.718007e+06    1.127554e-08    4.273443e-12    8.455345e-09   -9.401160e-02
    2.405013e+01    1.576772e+02    8.998090e-03    3.023574e+06    1.139114e-08    4.432421e-12    8.607820e-09   -8.901160e-02
    2.396056e+01    1.581341e+02    1.014559e-02    3.362576e+06    1.150594e-08    4.596744e-12    8.759100e-09   -8.401160e-02
    2.387145e+01    1.586954e+02    1.143432e-02    3.738588e+06    1.161988e-08    4.766568e-12    8.909090e-09   -7.901160e-02
    2.378275e+01    1.593686e+02    1.288101e-02    4.155553e+06    1.173285e-08    4.942055e-12    9.057695e-09   -7.401160e-02
    2.369432e+01    1.601609e+02    1.450433e-02    4.617793e+06    1.184479e-08    5.123375e-12    9.204825e-09   -6.901160e-02
    2.360589e+01    1.610784e+02    1.632500e-02    5.130044e+06    1.195563e-08    5.310690e-12    9.350400e-09   -6.401160e-02
    2.351712e+01    1.621270e+02    1.836608e-02    5.697471e+06    1.206531e-08    5.504190e-12    9.494345e-09   -5.901160e-02
    2.342751e+01    1.633114e+02    2.065313e-02    6.325685e+06    1.217376e-08    5.704045e-12    9.636580e-09   -5.401160e-02
    2.333645e+01    1.646349e+02    2.321452e-02    7.020751e+06    1.228093e-08    5.910445e-12    9.777040e-09   -4.901160e-02
    2.324320e+01    1.660997e+02    2.608155e-02    7.789184e+06    1.238675e-08    6.123585e-12    9.915665e-09   -4.401160e-02
    2.314688e+01    1.677061e+02    2.928879e-02    8.637939e+06    1.249119e-08    6.343665e-12    1.005239e-08   -3.901160e-02
    2.304654e+01    1.694530e+02    3.287427e-02    9.574398e+06    1.259420e-08    6.570880e-12    1.018719e-08   -3.401160e-02
    2.294110e+01    1.713371e+02    3.687971e-02    1.060631e+07    1.269573e-08    6.805450e-12    1.031998e-08   -2.901160e-02
    2.282940e+01    1.733530e+02    4.135076e-02    1.174175e+07    1.279574e-08    7.047590e-12    1.045074e-08   -2.401160e-02
    2.271029e+01    1.754935e+02    4.633712e-02    1.298904e+07    1.289421e-08    7.297515e-12    1.057942e-08   -1.901160e-02
    2.258257e+01    1.777493e+02    5.189275e-02    1.435668e+07    1.299111e-08    7.555465e-12    1.070600e-08   -1.401160e-02
    2.244501e+01    1.801080e+02    5.807600e-02    1.585319e+07    1.308640e-08    7.821675e-12    1.083045e-08   -9.011600e-03
    2.229652e+01    1.825561e+02    6.494955e-02    1.748702e+07    1.318007e-08    8.096390e-12    1.095275e-08   -4.011600e-03
    2.213603e+01    1.850776e+02    7.258060e-02    1.926642e+07    1.327209e-08    8.379860e-12    1.107287e-08    9.884000e-04
    2.196262e+01    1.876549e+02    8.104055e-02    2.119924e+07    1.336246e-08    8.672350e-12    1.119079e-08    5.988400e-03
    2.177549e+01    1.902682e+02    9.040515e-02    2.329280e+07    1.345115e-08    8.974125e-12    1.130653e-08    1.098840e-02
    2.157406e+01    1.928970e+02    1.007539e-01    2.555371e+07    1.353817e-08    9.285465e-12    1.142006e-08    1.598840e-02
    2.135789e+01    1.955190e+02    1.121702e-01    2.798769e+07    1.362350e-08    9.606655e-12    1.153137e-08    2.098840e-02
    2.112678e+01    1.981117e+02    1.247404e-01    3.059946e+07    1.370714e-08    9.937990e-12    1.164048e-08    2.598840e-02
    2.088071e+01    2.006518e+02    1.385539e-01    3.339247e+07    1.378909e-08    1.027978e-11    1.174739e-08    3.098840e-02
    2.061990e+01    2.031163e+02    1.537022e-01    3.636892e+07    1.386937e-08    1.063234e-11    1.185210e-08    3.598840e-02
    2.034475e+01    2.054822e+02    1.702784e-01    3.952954e+07    1.394795e-08    1.099600e-11    1.195463e-08    4.098840e-02
    2.005587e+01    2.077276e+02    1.883764e-01    4.287355e+07    1.402486e-08    1.137108e-11    1.205498e-08    4.598840e-02
    1.975403e+01    2.098315e+02    2.080903e-01    4.639860e+07    1.410012e-08    1.175794e-11    1.215318e-08    5.098840e-02
    1.944014e+01    2.117744e+02    2.295136e-01    5.010076e+07    1.417372e-08    1.215695e-11    1.224924e-08    5.598840e-02
    1.911528e+01    2.135383e+02    2.527385e-01    5.397455e+07    1.424567e-08    1.256847e-11    1.234317e-08    6.098840e-02
    1.878058e+01    2.151076e+02    2.778548e-01    5.801297e+07    1.431601e-08    1.299288e-11    1.243501e-08    6.598840e-02
    1.843731e+01    2.164686e+02    3.049497e-01    6.220764e+07    1.438474e-08    1.343059e-11    1.252479e-08    7.098840e-02
    1.808672e+01    2.176099e+02    3.341064e-01    6.654884e+07    1.445188e-08    1.388201e-11    1.261250e-08    7.598840e-02
    1.773015e+01    2.185225e+02    3.654041e-01    7.102570e+07    1.451746e-08    1.434756e-11    1.269821e-08    8.098840e-02
    1.736890e+01    2.191999e+02    3.989169e-01    7.562640e+07    1.458148e-08    1.482768e-11    1.278193e-08    8.598840e-02
    1.700430e+01    2.196382e+02    4.347136e-01    8.033836e+07    1.464398e-08    1.532282e-11    1.286369e-08    9.098840e-02
    1.663761e+01    2.198358e+02    4.728569e-01    8.514842e+07    1.470498e-08    1.583347e-11    1.294352e-08    9.598840e-02
    1.627006e+01    2.197931e+02    5.134035e-01    9.004290e+07    1.476450e-08    1.636010e-11    1.302145e-08    1.009884e-01
    1.590279e+01    2.195128e+02    5.564035e-01    9.500800e+07    1.482256e-08    1.690322e-11    1.309753e-08    1.059884e-01
    1.553693e+01    2.189997e+02    6.019005e-01    1.000300e+08    1.487920e-08    1.746336e-11    1.317177e-08    1.109884e-01
    1.517346e+01    2.182602e+02    6.499315e-01    1.050953e+08    1.493444e-08    1.804105e-11    1.324423e-08    1.159884e-01
    1.481332e+01    2.173022e+02    7.005265e-01    1.101907e+08    1.498830e-08    1.863686e-11    1.331492e-08    1.209884e-01
    1.445737e+01    2.161351e+02    7.537095e-01    1.153034e+08    1.504081e-08    1.925136e-11    1.338390e-08    1.259884e-01
    1.410634e+01    2.147692e+02    8.094980e-01    1.204213e+08    1.509201e-08    1.988515e-11    1.345119e-08    1.309884e-01
    1.376092e+01    2.132160e+02    8.679030e-01    1.255330e+08    1.514192e-08    2.053886e-11    1.351682e-08    1.359884e-01
    1.342168e+01    2.114873e+02    9.289305e-01    1.306281e+08    1.519056e-08    2.121314e-11    1.358085e-08    1.409884e-01
    1.308913e+01    2.095954e+02    9.925805e-01    1.356969e+08    1.523796e-08    2.190864e-11    1.364330e-08    1.459884e-01
    1.276370e+01    2.075529e+02    1.058849e+00    1.407307e+08    1.528415e-08    2.262606e-11    1.370420e-08    1.509884e-01
    1.244572e+01    2.053732e+02    1.127725e+00    1.457219e+08    1.532917e-08    2.336612e-11    1.376360e-08    1.559884e-01
    1.213548e+01    2.030685e+02    1.199196e+00    1.506635e+08    1.537303e-08    2.412956e-11    1.382153e-08    1.609884e-01
    1.183319e+01    2.006514e+02    1.273247e+00    1.555498e+08    1.541577e-08    2.491716e-11    1.387803e-08    1.659884e-01
    1.153901e+01    1.981344e+02    1.349855e+00    1.603758e+08    1.545742e-08    2.572969e-11    1.393312e-08    1.709884e-01
    1.125303e+01    1.955291e+02    1.428999e+00    1.651376e+08    1.549800e-08    2.656801e-11    1.398686e-08    1.759884e-01
    1.097532e+01    1.928473e+02    1.510652e+00    1.698321e+08    1.553753e-08    2.743295e-11    1.403927e-08    1.809884e-01
    1.070587e+01    1.900994e+02    1.594788e+00    1.744568e+08    1.557606e-08    2.832542e-11    1.409038e-08    1.859884e-01
    1.044467e+01    1.872959e+02    1.681379e+00    1.790101e+08    1.561359e-08    2.924633e-11    1.414023e-08    1.909884e-01
    1.019165e+01    1.844465e+02    1.770393e+00    1.834912e+08    1.565017e-08    3.019665e-11    1.418885e-08    1.959884e-01
    9.946702e+00    1.815600e+02    1.861800e+00    1.878994e+08    1.568581e-08    3.117735e-11    1.423628e-08    2.009884e-01
    9.709721e+00    1.786451e+02    1.955570e+00    1.922350e+08    1.572055e-08    3.218947e-11    1.428255e-08    2.059884e-01
    9.480567e+00    1.757091e+02    2.051670e+00    1.964988e+08    1.575441e-08    3.323407e-11    1.432769e-08    2.109884e-01
    9.259077e+00    1.727592e+02    2.150069e+00    2.006918e+08    1.578740e-08    3.431228e-11    1.437173e-08    2.159884e-01
    9.045083e+00    1.698021e+02    2.250736e+00    2.048153e+08    1.581958e-08    3.542522e-11    1.441469e-08    2.209884e-01
    8.838393e+00    1.668434e+02    2.353640e+00    2.088711e+08    1.585094e-08    3.657410e-11    1.445662e-08    2.259884e-01
