# sky130 nfet_01v8 gm/ID Processed Lookup Table
# Corner: ff
# Temperature: 25C
# W = 2.0 um
# L = 5.94 um (5940 nm)
# Columns: gm/id [1/V]  gm/gds [V/V]  id/W [A/m]  ft [Hz]  Cgg/W [F/m]  Cgd/W [F/m]  Cgs/W [F/m]  Vov [V]
#         gm/id          gm/gds            id/W              ft           Cgg/W           Cgd/W           Cgs/W             Vov
    2.680662e+01    2.504850e+02    5.843235e-08    1.919435e+01    1.298800e-08    3.690213e-13    9.003360e-10   -5.171980e-01
    2.680540e+01    2.504735e+02    6.681315e-08    2.196165e+01    1.297895e-08    3.827533e-13    9.386535e-10   -5.121980e-01
    2.680412e+01    2.504614e+02    7.639545e-08    2.512413e+01    1.297174e-08    3.970416e-13    9.788520e-10   -5.071980e-01
    2.680271e+01    2.504486e+02    8.735155e-08    2.873753e+01    1.296642e-08    4.119108e-13    1.021022e-09   -5.021980e-01
    2.680124e+01    2.504347e+02    9.987810e-08    3.286527e+01    1.296307e-08    4.273865e-13    1.065254e-09   -4.971980e-01
    2.679965e+01    2.504199e+02    1.142002e-07    3.757955e+01    1.296177e-08    4.434953e-13    1.111643e-09   -4.921980e-01
    2.679794e+01    2.504040e+02    1.305749e-07    4.296254e+01    1.296257e-08    4.602653e-13    1.160285e-09   -4.871980e-01
    2.679612e+01    2.503872e+02    1.492962e-07    4.910767e+01    1.296556e-08    4.777255e-13    1.211286e-09   -4.821980e-01
    2.679417e+01    2.503690e+02    1.707000e-07    5.612120e+01    1.297081e-08    4.959064e-13    1.264750e-09   -4.771980e-01
    2.679209e+01    2.503497e+02    1.951705e-07    6.412384e+01    1.297841e-08    5.148400e-13    1.320783e-09   -4.721980e-01
    2.678987e+01    2.503291e+02    2.231465e-07    7.325281e+01    1.298843e-08    5.345590e-13    1.379496e-09   -4.671980e-01
    2.678750e+01    2.503071e+02    2.551296e-07    8.366387e+01    1.300096e-08    5.550985e-13    1.441005e-09   -4.621980e-01
    2.678496e+01    2.502835e+02    2.916934e-07    9.553385e+01    1.301609e-08    5.764940e-13    1.505423e-09   -4.571980e-01
    2.678226e+01    2.502584e+02    3.334928e-07    1.090635e+02    1.303390e-08    5.987835e-13    1.572872e-09   -4.521980e-01
    2.677936e+01    2.502316e+02    3.812767e-07    1.244803e+02    1.305450e-08    6.220065e-13    1.643472e-09   -4.471980e-01
    2.677627e+01    2.502030e+02    4.359007e-07    1.420422e+02    1.307797e-08    6.462035e-13    1.717348e-09   -4.421980e-01
    2.677297e+01    2.501725e+02    4.983426e-07    1.620418e+02    1.310441e-08    6.714175e-13    1.794626e-09   -4.371980e-01
    2.676943e+01    2.501397e+02    5.697195e-07    1.848102e+02    1.313392e-08    6.976925e-13    1.875433e-09   -4.321980e-01
    2.676566e+01    2.501049e+02    6.513075e-07    2.107224e+02    1.316660e-08    7.250745e-13    1.959901e-09   -4.271980e-01
    2.676164e+01    2.500677e+02    7.445650e-07    2.402027e+02    1.320254e-08    7.536120e-13    2.048160e-09   -4.221980e-01
    2.675734e+01    2.500280e+02    8.511580e-07    2.737314e+02    1.324185e-08    7.833550e-13    2.140342e-09   -4.171980e-01
    2.675276e+01    2.499856e+02    9.729890e-07    3.118508e+02    1.328464e-08    8.143555e-13    2.236581e-09   -4.121980e-01
    2.674786e+01    2.499404e+02    1.112233e-06    3.551747e+02    1.333100e-08    8.466675e-13    2.337012e-09   -4.071980e-01
    2.674261e+01    2.498923e+02    1.271371e-06    4.043955e+02    1.338105e-08    8.803480e-13    2.441766e-09   -4.021980e-01
    2.673703e+01    2.498409e+02    1.453239e-06    4.602955e+02    1.343488e-08    9.154545e-13    2.550979e-09   -3.971980e-01
    2.673107e+01    2.497861e+02    1.661076e-06    5.237578e+02    1.349259e-08    9.520480e-13    2.664782e-09   -3.921980e-01
    2.672469e+01    2.497276e+02    1.898578e-06    5.957777e+02    1.355429e-08    9.901920e-13    2.783307e-09   -3.871980e-01
    2.671790e+01    2.496653e+02    2.169967e-06    6.774785e+02    1.362009e-08    1.029952e-12    2.906684e-09   -3.821980e-01
    2.671065e+01    2.495990e+02    2.480061e-06    7.701246e+02    1.369008e-08    1.071395e-12    3.035041e-09   -3.771980e-01
    2.670291e+01    2.495282e+02    2.834364e-06    8.751414e+02    1.376436e-08    1.114593e-12    3.168501e-09   -3.721980e-01
    2.669466e+01    2.494529e+02    3.239152e-06    9.941333e+02    1.384303e-08    1.159618e-12    3.307187e-09   -3.671980e-01
    2.668587e+01    2.493728e+02    3.701593e-06    1.128907e+03    1.392618e-08    1.206545e-12    3.451216e-09   -3.621980e-01
    2.667646e+01    2.492874e+02    4.229862e-06    1.281491e+03    1.401390e-08    1.255454e-12    3.600701e-09   -3.571980e-01
    2.666646e+01    2.491965e+02    4.833287e-06    1.454172e+03    1.410628e-08    1.306425e-12    3.755748e-09   -3.521980e-01
    2.665580e+01    2.491000e+02    5.522510e-06    1.649515e+03    1.420339e-08    1.359543e-12    3.916461e-09   -3.471980e-01
    2.664442e+01    2.489971e+02    6.309670e-06    1.870404e+03    1.430533e-08    1.414895e-12    4.082935e-09   -3.421980e-01
    2.663230e+01    2.488879e+02    7.208605e-06    2.120076e+03    1.441215e-08    1.472570e-12    4.255257e-09   -3.371980e-01
    2.661939e+01    2.487719e+02    8.235095e-06    2.402165e+03    1.452393e-08    1.532662e-12    4.433510e-09   -3.321980e-01
    2.660563e+01    2.486485e+02    9.407130e-06    2.720750e+03    1.464071e-08    1.595267e-12    4.617764e-09   -3.271980e-01
    2.659098e+01    2.485177e+02    1.074521e-05    3.080400e+03    1.476258e-08    1.660483e-12    4.808084e-09   -3.221980e-01
    2.657540e+01    2.483789e+02    1.227269e-05    3.486246e+03    1.488956e-08    1.728415e-12    5.004525e-09   -3.171980e-01
    2.655882e+01    2.482317e+02    1.401618e-05    3.944027e+03    1.502169e-08    1.799166e-12    5.207125e-09   -3.121980e-01
    2.654118e+01    2.480756e+02    1.600599e-05    4.460177e+03    1.515900e-08    1.872848e-12    5.415925e-09   -3.071980e-01
    2.652242e+01    2.479104e+02    1.827661e-05    5.041901e+03    1.530152e-08    1.949572e-12    5.630940e-09   -3.021980e-01
    2.650247e+01    2.477355e+02    2.086734e-05    5.697258e+03    1.544926e-08    2.029455e-12    5.852185e-09   -2.971980e-01
    2.648129e+01    2.475506e+02    2.382284e-05    6.435266e+03    1.560222e-08    2.112618e-12    6.079650e-09   -2.921980e-01
    2.645878e+01    2.473552e+02    2.719398e-05    7.266008e+03    1.576039e-08    2.199182e-12    6.313330e-09   -2.871980e-01
    2.643490e+01    2.471491e+02    3.103857e-05    8.200759e+03    1.592375e-08    2.289275e-12    6.553185e-09   -2.821980e-01
    2.640956e+01    2.469316e+02    3.542232e-05    9.252104e+03    1.609229e-08    2.383030e-12    6.799185e-09   -2.771980e-01
    2.638268e+01    2.467023e+02    4.041995e-05    1.043411e+04    1.626595e-08    2.480580e-12    7.051265e-09   -2.721980e-01
    2.635420e+01    2.464612e+02    4.611629e-05    1.176247e+04    1.644470e-08    2.582065e-12    7.309360e-09   -2.671980e-01
    2.632405e+01    2.462078e+02    5.260770e-05    1.325470e+04    1.662846e-08    2.687627e-12    7.573380e-09   -2.621980e-01
    2.629211e+01    2.459419e+02    6.000355e-05    1.493034e+04    1.681717e-08    2.797413e-12    7.843240e-09   -2.571980e-01
    2.625835e+01    2.456630e+02    6.842790e-05    1.681115e+04    1.701075e-08    2.911576e-12    8.118815e-09   -2.521980e-01
    2.622266e+01    2.453712e+02    7.802145e-05    1.892139e+04    1.720909e-08    3.030269e-12    8.399980e-09   -2.471980e-01
    2.618496e+01    2.450665e+02    8.894375e-05    2.128807e+04    1.741210e-08    3.153655e-12    8.686605e-09   -2.421980e-01
    2.614520e+01    2.447489e+02    1.013754e-04    2.394127e+04    1.761966e-08    3.281896e-12    8.978520e-09   -2.371980e-01
    2.610329e+01    2.444183e+02    1.155210e-04    2.691443e+04    1.783163e-08    3.415162e-12    9.275570e-09   -2.321980e-01
    2.605915e+01    2.440751e+02    1.316122e-04    3.024474e+04    1.804789e-08    3.553627e-12    9.577570e-09   -2.271980e-01
    2.601271e+01    2.437198e+02    1.499108e-04    3.397355e+04    1.826828e-08    3.697468e-12    9.884320e-09   -2.221980e-01
    2.596392e+01    2.433528e+02    1.707128e-04    3.814675e+04    1.849264e-08    3.846871e-12    1.019562e-08   -2.171980e-01
    2.591271e+01    2.429752e+02    1.943529e-04    4.281534e+04    1.872081e-08    4.002023e-12    1.051125e-08   -2.121980e-01
    2.585904e+01    2.425877e+02    2.212085e-04    4.803587e+04    1.895260e-08    4.163116e-12    1.083098e-08   -2.071980e-01
    2.580285e+01    2.421916e+02    2.517059e-04    5.387104e+04    1.918783e-08    4.330351e-12    1.115457e-08   -2.021980e-01
    2.574414e+01    2.417888e+02    2.863257e-04    6.039051e+04    1.942630e-08    4.503931e-12    1.148177e-08   -1.971980e-01
    2.568286e+01    2.413808e+02    3.256094e-04    6.767121e+04    1.966783e-08    4.684066e-12    1.181232e-08   -1.921980e-01
    2.561902e+01    2.409701e+02    3.701670e-04    7.579864e+04    1.991219e-08    4.870971e-12    1.214596e-08   -1.871980e-01
    2.555262e+01    2.405592e+02    4.206851e-04    8.486726e+04    2.015916e-08    5.064865e-12    1.248241e-08   -1.821980e-01
    2.548369e+01    2.401514e+02    4.779357e-04    9.498173e+04    2.040854e-08    5.265980e-12    1.282138e-08   -1.771980e-01
    2.541229e+01    2.397499e+02    5.427870e-04    1.062579e+05    2.066009e-08    5.474550e-12    1.316261e-08   -1.721980e-01
    2.533846e+01    2.393593e+02    6.162145e-04    1.188239e+05    2.091358e-08    5.690805e-12    1.350578e-08   -1.671980e-01
    2.526230e+01    2.389840e+02    6.993125e-04    1.328215e+05    2.116879e-08    5.915000e-12    1.385062e-08   -1.621980e-01
    2.518393e+01    2.386292e+02    7.933100e-04    1.484076e+05    2.142547e-08    6.147390e-12    1.419683e-08   -1.571980e-01
    2.510345e+01    2.383008e+02    8.995850e-04    1.657557e+05    2.168339e-08    6.388225e-12    1.454410e-08   -1.521980e-01
    2.502104e+01    2.380056e+02    1.019682e-03    1.850578e+05    2.194232e-08    6.637775e-12    1.489215e-08   -1.471980e-01
    2.493688e+01    2.377507e+02    1.155330e-03    2.065264e+05    2.220203e-08    6.896320e-12    1.524066e-08   -1.421980e-01
    2.485114e+01    2.375441e+02    1.308467e-03    2.303966e+05    2.246226e-08    7.164135e-12    1.558937e-08   -1.371980e-01
    2.476407e+01    2.373945e+02    1.481263e-03    2.569289e+05    2.272278e-08    7.441515e-12    1.593795e-08   -1.321980e-01
    2.467590e+01    2.373114e+02    1.676143e-03    2.864115e+05    2.298337e-08    7.728755e-12    1.628615e-08   -1.271980e-01
    2.458685e+01    2.373050e+02    1.895822e-03    3.191638e+05    2.324380e-08    8.026160e-12    1.663365e-08   -1.221980e-01
    2.449720e+01    2.373862e+02    2.143335e-03    3.555396e+05    2.350383e-08    8.334045e-12    1.698019e-08   -1.171980e-01
    2.440717e+01    2.375662e+02    2.422073e-03    3.959305e+05    2.376325e-08    8.652740e-12    1.732550e-08   -1.121980e-01
    2.431700e+01    2.378573e+02    2.735829e-03    4.407707e+05    2.402185e-08    8.982565e-12    1.766930e-08   -1.071980e-01
    2.422695e+01    2.382723e+02    3.088836e-03    4.905414e+05    2.427940e-08    9.323875e-12    1.801135e-08   -1.021980e-01
    2.413715e+01    2.388237e+02    3.485823e-03    5.457740e+05    2.453572e-08    9.677020e-12    1.835138e-08   -9.719800e-02
    2.404777e+01    2.395249e+02    3.932072e-03    6.070571e+05    2.479059e-08    1.004236e-11    1.868916e-08   -9.219800e-02
    2.395889e+01    2.403890e+02    4.433471e-03    6.750407e+05    2.504383e-08    1.042027e-11    1.902446e-08   -8.719800e-02
    2.387052e+01    2.414290e+02    4.996592e-03    7.504415e+05    2.529526e-08    1.081112e-11    1.935706e-08   -8.219800e-02
    2.378259e+01    2.426579e+02    5.628755e-03    8.340478e+05    2.554469e-08    1.121534e-11    1.968674e-08   -7.719800e-02
    2.369490e+01    2.440875e+02    6.338120e-03    9.267255e+05    2.579196e-08    1.163331e-11    2.001330e-08   -7.219800e-02
    2.360720e+01    2.457292e+02    7.133755e-03    1.029421e+06    2.603693e-08    1.206546e-11    2.033655e-08   -6.719800e-02
    2.351906e+01    2.475933e+02    8.025740e-03    1.143166e+06    2.627942e-08    1.251221e-11    2.065632e-08   -6.219800e-02
    2.342998e+01    2.496881e+02    9.025255e-03    1.269081e+06    2.651930e-08    1.297403e-11    2.097243e-08   -5.719800e-02
    2.333927e+01    2.520208e+02    1.014470e-02    1.408374e+06    2.675645e-08    1.345136e-11    2.128473e-08   -5.219800e-02
    2.324618e+01    2.545961e+02    1.139775e-02    1.562342e+06    2.699073e-08    1.394468e-11    2.159307e-08   -4.719800e-02
    2.314978e+01    2.574167e+02    1.279951e-02    1.732367e+06    2.722203e-08    1.445449e-11    2.189732e-08   -4.219800e-02
    2.304908e+01    2.604825e+02    1.436660e-02    1.919913e+06    2.745024e-08    1.498128e-11    2.219737e-08   -3.719800e-02
    2.294297e+01    2.637905e+02    1.611723e-02    2.126513e+06    2.767528e-08    1.552558e-11    2.249308e-08   -3.219800e-02
    2.283030e+01    2.673347e+02    1.807130e-02    2.353764e+06    2.789704e-08    1.608792e-11    2.278438e-08   -2.719800e-02
    2.270986e+01    2.711062e+02    2.025048e-02    2.603305e+06    2.811545e-08    1.666886e-11    2.307116e-08   -2.219800e-02
    2.258048e+01    2.750925e+02    2.267830e-02    2.876806e+06    2.833044e-08    1.726897e-11    2.335336e-08   -1.719800e-02
    2.244096e+01    2.792776e+02    2.538013e-02    3.175936e+06    2.854195e-08    1.788885e-11    2.363089e-08   -1.219800e-02
    2.229020e+01    2.836429e+02    2.838325e-02    3.502351e+06    2.874992e-08    1.852909e-11    2.390372e-08   -7.198000e-03
    2.212720e+01    2.881661e+02    3.171685e-02    3.857654e+06    2.895432e-08    1.919034e-11    2.417178e-08   -2.198000e-03
    2.195105e+01    2.928220e+02    3.541195e-02    4.243371e+06    2.915509e-08    1.987324e-11    2.443504e-08    2.802000e-03
    2.176105e+01    2.975832e+02    3.950138e-02    4.660919e+06    2.935221e-08    2.057848e-11    2.469347e-08    7.802000e-03
    2.155665e+01    3.024194e+02    4.401964e-02    5.111571e+06    2.954565e-08    2.130673e-11    2.494706e-08    1.280200e-02
    2.133750e+01    3.072989e+02    4.900281e-02    5.596428e+06    2.973539e-08    2.205873e-11    2.519578e-08    1.780200e-02
    2.110346e+01    3.121878e+02    5.448830e-02    6.116380e+06    2.992144e-08    2.283522e-11    2.543965e-08    2.280200e-02
    2.085459e+01    3.170520e+02    6.051475e-02    6.672088e+06    3.010379e-08    2.363696e-11    2.567865e-08    2.780200e-02
    2.059116e+01    3.218564e+02    6.712170e-02    7.263956e+06    3.028242e-08    2.446475e-11    2.591281e-08    3.280200e-02
    2.031364e+01    3.265662e+02    7.434940e-02    7.892107e+06    3.045737e-08    2.531942e-11    2.614214e-08    3.780200e-02
    2.002271e+01    3.311471e+02    8.223835e-02    8.556376e+06    3.062862e-08    2.620182e-11    2.636667e-08    4.280200e-02
    1.971917e+01    3.355658e+02    9.082925e-02    9.256293e+06    3.079622e-08    2.711282e-11    2.658643e-08    4.780200e-02
    1.940400e+01    3.397912e+02    1.001625e-01    9.991097e+06    3.096017e-08    2.805333e-11    2.680145e-08    5.280200e-02
    1.907826e+01    3.437930e+02    1.102779e-01    1.075972e+07    3.112051e-08    2.902432e-11    2.701178e-08    5.780200e-02
    1.874317e+01    3.475447e+02    1.212144e-01    1.156082e+07    3.127726e-08    3.002674e-11    2.721747e-08    6.280200e-02
    1.839992e+01    3.510214e+02    1.330097e-01    1.239278e+07    3.143047e-08    3.106162e-11    2.741855e-08    6.780200e-02
    1.804985e+01    3.542015e+02    1.456999e-01    1.325375e+07    3.158016e-08    3.212999e-11    2.761509e-08    7.280200e-02
    1.769424e+01    3.570670e+02    1.593195e-01    1.414166e+07    3.172639e-08    3.323294e-11    2.780716e-08    7.780200e-02
    1.733441e+01    3.596026e+02    1.739006e-01    1.505426e+07    3.186919e-08    3.437161e-11    2.799481e-08    8.280200e-02
    1.697162e+01    3.617967e+02    1.894737e-01    1.598916e+07    3.200861e-08    3.554713e-11    2.817810e-08    8.780200e-02
    1.660713e+01    3.636405e+02    2.060663e-01    1.694385e+07    3.214471e-08    3.676075e-11    2.835711e-08    9.280200e-02
    1.624214e+01    3.651290e+02    2.237034e-01    1.791577e+07    3.227754e-08    3.801369e-11    2.853189e-08    9.780200e-02
    1.587777e+01    3.662598e+02    2.424075e-01    1.890231e+07    3.240715e-08    3.930726e-11    2.870254e-08    1.028020e-01
    1.551507e+01    3.670334e+02    2.621984e-01    1.990086e+07    3.253359e-08    4.064280e-11    2.886912e-08    1.078020e-01
    1.515502e+01    3.674535e+02    2.830930e-01    2.090886e+07    3.265692e-08    4.202169e-11    2.903171e-08    1.128020e-01
    1.479850e+01    3.675257e+02    3.051055e-01    2.192381e+07    3.277720e-08    4.344539e-11    2.919037e-08    1.178020e-01
    1.444634e+01    3.672580e+02    3.282474e-01    2.294330e+07    3.289450e-08    4.491540e-11    2.934520e-08    1.228020e-01
    1.409923e+01    3.666602e+02    3.525277e-01    2.396505e+07    3.300886e-08    4.643326e-11    2.949626e-08    1.278020e-01
    1.375783e+01    3.657440e+02    3.779529e-01    2.498691e+07    3.312036e-08    4.800058e-11    2.964365e-08    1.328020e-01
    1.342266e+01    3.645216e+02    4.045267e-01    2.600687e+07    3.322905e-08    4.961904e-11    2.978744e-08    1.378020e-01
    1.309422e+01    3.630080e+02    4.322514e-01    2.702315e+07    3.333498e-08    5.129035e-11    2.992770e-08    1.428020e-01
    1.277289e+01    3.612171e+02    4.611263e-01    2.803404e+07    3.343825e-08    5.301635e-11    3.006452e-08    1.478020e-01
    1.245899e+01    3.591644e+02    4.911494e-01    2.903809e+07    3.353888e-08    5.479890e-11    3.019797e-08    1.528020e-01
    1.215276e+01    3.568654e+02    5.223170e-01    3.003396e+07    3.363696e-08    5.663990e-11    3.032815e-08    1.578020e-01
    1.185443e+01    3.543365e+02    5.546235e-01    3.102059e+07    3.373254e-08    5.854140e-11    3.045513e-08    1.628020e-01
    1.156412e+01    3.515933e+02    5.880620e-01    3.199700e+07    3.382569e-08    6.050545e-11    3.057898e-08    1.678020e-01
    1.128191e+01    3.486512e+02    6.226245e-01    3.296238e+07    3.391646e-08    6.253425e-11    3.069977e-08    1.728020e-01
    1.100783e+01    3.455259e+02    6.583030e-01    3.391611e+07    3.400492e-08    6.463005e-11    3.081760e-08    1.778020e-01
    1.074192e+01    3.422322e+02    6.950860e-01    3.485772e+07    3.409113e-08    6.679515e-11    3.093253e-08    1.828020e-01
    1.048409e+01    3.387844e+02    7.329645e-01    3.578684e+07    3.417515e-08    6.903200e-11    3.104465e-08    1.878020e-01
    1.023430e+01    3.351964e+02    7.719270e-01    3.670326e+07    3.425703e-08    7.134315e-11    3.115402e-08    1.928020e-01
    9.992444e+00    3.314816e+02    8.119620e-01    3.760687e+07    3.433684e-08    7.373115e-11    3.126072e-08    1.978020e-01
    9.758410e+00    3.276524e+02    8.530580e-01    3.849768e+07    3.441464e-08    7.619875e-11    3.136481e-08    2.028020e-01
    9.532045e+00    3.237204e+02    8.952030e-01    3.937572e+07    3.449048e-08    7.874880e-11    3.146638e-08    2.078020e-01
    9.313193e+00    3.196968e+02    9.383855e-01    4.024119e+07    3.456441e-08    8.138420e-11    3.156548e-08    2.128020e-01
    9.101683e+00    3.155918e+02    9.825930e-01    4.109429e+07    3.463650e-08    8.410795e-11    3.166219e-08    2.178020e-01
    8.897335e+00    3.114151e+02    1.027814e+00    4.193532e+07    3.470680e-08    8.692335e-11    3.175658e-08    2.228020e-01
    8.699952e+00    3.071756e+02    1.074037e+00    4.276462e+07    3.477536e-08    8.983360e-11    3.184870e-08    2.278020e-01
    8.509335e+00    3.028814e+02    1.121251e+00    4.358254e+07    3.484224e-08    9.284210e-11    3.193863e-08    2.328020e-01
    8.325286e+00    2.985403e+02    1.169444e+00    4.438951e+07    3.490749e-08    9.595245e-11    3.202642e-08    2.378020e-01
