# sky130 pfet_01v8 gm/ID Processed Lookup Table
# Corner: fs
# Temperature: 85C
# W = 2.0 um
# L = 3 um (3000 nm)
# Columns: gm/id [1/V]  gm/gds [V/V]  id/W [A/m]  ft [Hz]  Cgg/W [F/m]  Cgd/W [F/m]  Cgs/W [F/m]  Cdb/W [F/m]  vgs [V]  vth [V]  vdsat [V]
# vdsat = BSIM4 saturation voltage (|VDS|_sat, positive); use for headroom / saturation / cascode-bias calculations
#           gm/id          gm/gds            id/W              ft           Cgg/W           Cgd/W           Cgs/W           Cdb/W             vgs             vth           vdsat
    1.559431e+00    2.354665e+00    7.404985e+00    8.937587e+07    2.056318e-08    3.021340e-09    1.791306e-08    1.999305e-09   -1.800000e+00    8.954814e-01    7.775317e-01
    1.589391e+00    2.459591e+00    7.289510e+00    9.004753e+07    2.047752e-08    2.896227e-09    1.793504e-08    1.988467e-09   -1.790000e+00    8.954814e-01    7.693385e-01
    1.620343e+00    2.573017e+00    7.173270e+00    9.071696e+07    2.039180e-08    2.772075e-09    1.795576e-08    1.977510e-09   -1.780000e+00    8.954814e-01    7.611504e-01
    1.652191e+00    2.695923e+00    7.056855e+00    9.138246e+07    2.030620e-08    2.649166e-09    1.797516e-08    1.966456e-09   -1.770000e+00    8.954814e-01    7.529675e-01
    1.685004e+00    2.829427e+00    6.940090e+00    9.204202e+07    2.022088e-08    2.527788e-09    1.799314e-08    1.955333e-09   -1.760000e+00    8.954814e-01    7.447896e-01
    1.718813e+00    2.974811e+00    6.822980e+00    9.269347e+07    2.013603e-08    2.408222e-09    1.800961e-08    1.944164e-09   -1.750000e+00    8.954814e-01    7.366167e-01
    1.753645e+00    3.133543e+00    6.705545e+00    9.333445e+07    2.005183e-08    2.290749e-09    1.809440e-08    2.007379e-09   -1.740000e+00    8.954814e-01    7.284487e-01
    1.789521e+00    3.307307e+00    6.587805e+00    9.396230e+07    1.996844e-08    2.175642e-09    1.810384e-08    1.992235e-09   -1.730000e+00    8.954814e-01    7.202856e-01
    1.826466e+00    3.498035e+00    6.469770e+00    9.457411e+07    1.988604e-08    2.063159e-09    1.811173e-08    1.977300e-09   -1.720000e+00    8.954814e-01    7.121273e-01
    1.864494e+00    3.707950e+00    6.351475e+00    9.516680e+07    1.980480e-08    1.953546e-09    1.811803e-08    1.962598e-09   -1.710000e+00    8.954814e-01    7.039737e-01
    1.903623e+00    3.939607e+00    6.232935e+00    9.573702e+07    1.972485e-08    1.847027e-09    1.812267e-08    1.948156e-09   -1.700000e+00    8.954814e-01    6.958247e-01
    1.943858e+00    4.195935e+00    6.114180e+00    9.628106e+07    1.964636e-08    1.743804e-09    1.812562e-08    1.933997e-09   -1.690000e+00    8.954814e-01    6.876804e-01
    1.985202e+00    4.480298e+00    5.995245e+00    9.679511e+07    1.956944e-08    1.644056e-09    1.812686e-08    1.920143e-09   -1.680000e+00    8.954814e-01    6.795406e-01
    2.027648e+00    4.796546e+00    5.876160e+00    9.727495e+07    1.949420e-08    1.547932e-09    1.812634e-08    1.906614e-09   -1.670000e+00    8.954814e-01    6.714053e-01
    2.071189e+00    5.149078e+00    5.756960e+00    9.771645e+07    1.942072e-08    1.455556e-09    1.812406e-08    1.893426e-09   -1.660000e+00    8.954814e-01    6.632744e-01
    2.115797e+00    5.542895e+00    5.637700e+00    9.811504e+07    1.934909e-08    1.367021e-09    1.812002e-08    1.880596e-09   -1.650000e+00    8.954814e-01    6.551479e-01
    2.161451e+00    5.983666e+00    5.518415e+00    9.846623e+07    1.927936e-08    1.282388e-09    1.811421e-08    1.868133e-09   -1.640000e+00    8.954814e-01    6.470256e-01
    2.208114e+00    6.477772e+00    5.399160e+00    9.876548e+07    1.921156e-08    1.201693e-09    1.810663e-08    1.856049e-09   -1.630000e+00    8.954814e-01    6.389076e-01
    2.255743e+00    7.032355e+00    5.279995e+00    9.900838e+07    1.914570e-08    1.124942e-09    1.809731e-08    1.844348e-09   -1.620000e+00    8.954814e-01    6.307938e-01
    2.304294e+00    7.655347e+00    5.160975e+00    9.919067e+07    1.908178e-08    1.052114e-09    1.808626e-08    1.833034e-09   -1.610000e+00    8.954814e-01    6.226840e-01
    2.353719e+00    8.355475e+00    5.042170e+00    9.930856e+07    1.901978e-08    9.831635e-10    1.807349e-08    1.822107e-09   -1.600000e+00    8.954814e-01    6.145784e-01
    2.403973e+00    9.142256e+00    4.923642e+00    9.935862e+07    1.895966e-08    9.180245e-10    1.805905e-08    1.811565e-09   -1.590000e+00    8.954814e-01    6.064767e-01
    2.455012e+00    1.002596e+01    4.805467e+00    9.933821e+07    1.890136e-08    8.566090e-10    1.804294e-08    1.801402e-09   -1.580000e+00    8.954814e-01    5.983790e-01
    2.506800e+00    1.101751e+01    4.687717e+00    9.924519e+07    1.884481e-08    7.988135e-10    1.802520e-08    1.791612e-09   -1.570000e+00    8.954814e-01    5.902852e-01
    2.559313e+00    1.212847e+01    4.570469e+00    9.907840e+07    1.878994e-08    7.445195e-10    1.800585e-08    1.782184e-09   -1.560000e+00    8.954814e-01    5.821953e-01
    2.612538e+00    1.337083e+01    4.453797e+00    9.883742e+07    1.873665e-08    6.935975e-10    1.798493e-08    1.773108e-09   -1.550000e+00    8.954814e-01    5.741092e-01
    2.666477e+00    1.475694e+01    4.337779e+00    9.852268e+07    1.868484e-08    6.459085e-10    1.796245e-08    1.764369e-09   -1.540000e+00    8.954814e-01    5.660269e-01
    2.721149e+00    1.629933e+01    4.222490e+00    9.813543e+07    1.863440e-08    6.013085e-10    1.793843e-08    1.755954e-09   -1.530000e+00    8.954814e-01    5.579483e-01
    2.776589e+00    1.801059e+01    4.108003e+00    9.767755e+07    1.858522e-08    5.596480e-10    1.791289e-08    1.747846e-09   -1.520000e+00    8.954814e-01    5.498734e-01
    2.832848e+00    1.990327e+01    3.994388e+00    9.715161e+07    1.853718e-08    5.207760e-10    1.788585e-08    1.740030e-09   -1.510000e+00    8.954814e-01    5.418023e-01
    2.889993e+00    2.198965e+01    3.881715e+00    9.656059e+07    1.849016e-08    4.845416e-10    1.785732e-08    1.732486e-09   -1.500000e+00    8.954814e-01    5.337347e-01
    2.948104e+00    2.428177e+01    3.770047e+00    9.590778e+07    1.844403e-08    4.507946e-10    1.782729e-08    1.725199e-09   -1.490000e+00    8.954814e-01    5.256709e-01
    3.007273e+00    2.679127e+01    3.659445e+00    9.519670e+07    1.839867e-08    4.193878e-10    1.779577e-08    1.718148e-09   -1.480000e+00    8.954814e-01    5.176107e-01
    3.067604e+00    2.952943e+01    3.549967e+00    9.443094e+07    1.835394e-08    3.901777e-10    1.776276e-08    1.711316e-09   -1.470000e+00    8.954814e-01    5.095541e-01
    3.129207e+00    3.250712e+01    3.441665e+00    9.361407e+07    1.830972e-08    3.630253e-10    1.772822e-08    1.704683e-09   -1.460000e+00    8.954814e-01    5.015012e-01
    3.192205e+00    3.573486e+01    3.334589e+00    9.274966e+07    1.826589e-08    3.377971e-10    1.769217e-08    1.698231e-09   -1.450000e+00    8.954814e-01    4.934520e-01
    3.256720e+00    3.922280e+01    3.228785e+00    9.184094e+07    1.822231e-08    3.143649e-10    1.765456e-08    1.691940e-09   -1.440000e+00    8.954814e-01    4.854065e-01
    3.322889e+00    4.298091e+01    3.124298e+00    9.089121e+07    1.817886e-08    2.926072e-10    1.761536e-08    1.685793e-09   -1.430000e+00    8.954814e-01    4.773648e-01
    3.390846e+00    4.701890e+01    3.021165e+00    8.990327e+07    1.813540e-08    2.724081e-10    1.757456e-08    1.679769e-09   -1.420000e+00    8.954814e-01    4.693269e-01
    3.460735e+00    5.134651e+01    2.919423e+00    8.887987e+07    1.809182e-08    2.536587e-10    1.753210e-08    1.673852e-09   -1.410000e+00    8.954814e-01    4.612929e-01
    3.532704e+00    5.597348e+01    2.819109e+00    8.782346e+07    1.804798e-08    2.362558e-10    1.748793e-08    1.668022e-09   -1.400000e+00    8.954814e-01    4.532629e-01
    3.606903e+00    6.090966e+01    2.720252e+00    8.673618e+07    1.800377e-08    2.201032e-10    1.744200e-08    1.662262e-09   -1.390000e+00    8.954814e-01    4.452370e-01
    3.683494e+00    6.616527e+01    2.622885e+00    8.562012e+07    1.795905e-08    2.051103e-10    1.739426e-08    1.656553e-09   -1.380000e+00    8.954814e-01    4.372155e-01
    3.762641e+00    7.175083e+01    2.527034e+00    8.447696e+07    1.791371e-08    1.911925e-10    1.734463e-08    1.650878e-09   -1.370000e+00    8.954814e-01    4.291984e-01
    3.844514e+00    7.767737e+01    2.432727e+00    8.330822e+07    1.786763e-08    1.782709e-10    1.729306e-08    1.645220e-09   -1.360000e+00    8.954814e-01    4.211860e-01
    3.929290e+00    8.395649e+01    2.339989e+00    8.211528e+07    1.782067e-08    1.662722e-10    1.723944e-08    1.639561e-09   -1.350000e+00    8.954814e-01    4.131785e-01
    4.017159e+00    9.060049e+01    2.248845e+00    8.089932e+07    1.777271e-08    1.551281e-10    1.718372e-08    1.633883e-09   -1.340000e+00    8.954814e-01    4.051763e-01
    4.108312e+00    9.762248e+01    2.159318e+00    7.966130e+07    1.772363e-08    1.447754e-10    1.712579e-08    1.628169e-09   -1.330000e+00    8.954814e-01    3.971797e-01
    4.202956e+00    1.050363e+02    2.071429e+00    7.840202e+07    1.767331e-08    1.351551e-10    1.706555e-08    1.622402e-09   -1.320000e+00    8.954814e-01    3.891890e-01
    4.301303e+00    1.128570e+02    1.985202e+00    7.712220e+07    1.762161e-08    1.262130e-10    1.700293e-08    1.616565e-09   -1.310000e+00    8.954814e-01    3.812048e-01
    4.403577e+00    1.211003e+02    1.900657e+00    7.582236e+07    1.756840e-08    1.178986e-10    1.693778e-08    1.610640e-09   -1.300000e+00    8.954814e-01    3.732276e-01
    4.510019e+00    1.297833e+02    1.817815e+00    7.450298e+07    1.751357e-08    1.101653e-10    1.687001e-08    1.604611e-09   -1.290000e+00    8.954814e-01    3.652579e-01
    4.620869e+00    1.389238e+02    1.736696e+00    7.316422e+07    1.745697e-08    1.029701e-10    1.679950e-08    1.598458e-09   -1.280000e+00    8.954814e-01    3.572966e-01
    4.736395e+00    1.485413e+02    1.657321e+00    7.180642e+07    1.739848e-08    9.627320e-11    1.672613e-08    1.592166e-09   -1.270000e+00    8.954814e-01    3.493443e-01
    4.856861e+00    1.586560e+02    1.579709e+00    7.042951e+07    1.733796e-08    9.003780e-11    1.664974e-08    1.585715e-09   -1.260000e+00    8.954814e-01    3.414021e-01
    4.982558e+00    1.692892e+02    1.503879e+00    6.903355e+07    1.727529e-08    8.422995e-11    1.657023e-08    1.579088e-09   -1.250000e+00    8.954814e-01    3.334710e-01
    5.113786e+00    1.804637e+02    1.429852e+00    6.761843e+07    1.721030e-08    7.881830e-11    1.648744e-08    1.572267e-09   -1.240000e+00    8.954814e-01    3.255522e-01
    5.250850e+00    1.922028e+02    1.357646e+00    6.618390e+07    1.714289e-08    7.377395e-11    1.640122e-08    1.565233e-09   -1.230000e+00    8.954814e-01    3.176471e-01
    5.394074e+00    2.045312e+02    1.287282e+00    6.472972e+07    1.707289e-08    6.907015e-11    1.631143e-08    1.557967e-09   -1.220000e+00    8.954814e-01    3.097571e-01
    5.543797e+00    2.174742e+02    1.218778e+00    6.325559e+07    1.700017e-08    6.468225e-11    1.621791e-08    1.550452e-09   -1.210000e+00    8.954814e-01    3.018842e-01
    5.700350e+00    2.310573e+02    1.152156e+00    6.176104e+07    1.692459e-08    6.058750e-11    1.612049e-08    1.542666e-09   -1.200000e+00    8.954814e-01    2.940302e-01
    5.864089e+00    2.453066e+02    1.087432e+00    6.024566e+07    1.684600e-08    5.676490e-11    1.601902e-08    1.534591e-09   -1.190000e+00    8.954814e-01    2.861974e-01
    6.035376e+00    2.602483e+02    1.024626e+00    5.870907e+07    1.676426e-08    5.319500e-11    1.591333e-08    1.526207e-09   -1.180000e+00    8.954814e-01    2.783884e-01
    6.214551e+00    2.759076e+02    9.637575e-01    5.715073e+07    1.667922e-08    4.985988e-11    1.580325e-08    1.517494e-09   -1.170000e+00    8.954814e-01    2.706060e-01
    6.401971e+00    2.923087e+02    9.048455e-01    5.557024e+07    1.659075e-08    4.674299e-11    1.568861e-08    1.508432e-09   -1.160000e+00    8.954814e-01    2.628534e-01
    6.597978e+00    3.094741e+02    8.479075e-01    5.396718e+07    1.649870e-08    4.382902e-11    1.556925e-08    1.499002e-09   -1.150000e+00    8.954814e-01    2.551343e-01
    6.802886e+00    3.274232e+02    7.929620e-01    5.234129e+07    1.640293e-08    4.110382e-11    1.544498e-08    1.489182e-09   -1.140000e+00    8.954814e-01    2.474527e-01
    7.016997e+00    3.461720e+02    7.400245e-01    5.069232e+07    1.630330e-08    3.855430e-11    1.531565e-08    1.478953e-09   -1.130000e+00    8.954814e-01    2.398130e-01
    7.240561e+00    3.657313e+02    6.891120e-01    4.902029e+07    1.619968e-08    3.616836e-11    1.518109e-08    1.468294e-09   -1.120000e+00    8.954814e-01    2.322203e-01
    7.473791e+00    3.861058e+02    6.402380e-01    4.732538e+07    1.609194e-08    3.393481e-11    1.504114e-08    1.457186e-09   -1.110000e+00    8.954814e-01    2.246803e-01
    7.716820e+00    4.072915e+02    5.934155e-01    4.560807e+07    1.597996e-08    3.184326e-11    1.489565e-08    1.445610e-09   -1.100000e+00    8.954814e-01    2.171989e-01
    7.969698e+00    4.292754e+02    5.486555e-01    4.386916e+07    1.586362e-08    2.988412e-11    1.474446e-08    1.433546e-09   -1.090000e+00    8.954814e-01    2.097830e-01
    8.232378e+00    4.520319e+02    5.059655e-01    4.210984e+07    1.574283e-08    2.804850e-11    1.458743e-08    1.420976e-09   -1.080000e+00    8.954814e-01    2.024400e-01
    8.504684e+00    4.755214e+02    4.653506e-01    4.033182e+07    1.561748e-08    2.632813e-11    1.442446e-08    1.407882e-09   -1.070000e+00    8.954814e-01    1.951780e-01
    8.786287e+00    4.996879e+02    4.268121e-01    3.853731e+07    1.548748e-08    2.471537e-11    1.425541e-08    1.394246e-09   -1.060000e+00    8.954814e-01    1.880058e-01
    9.076682e+00    5.244573e+02    3.903470e-01    3.672918e+07    1.535277e-08    2.320312e-11    1.408019e-08    1.380056e-09   -1.050000e+00    8.954814e-01    1.809328e-01
    9.375162e+00    5.497342e+02    3.559475e-01    3.491094e+07    1.521330e-08    2.178479e-11    1.389872e-08    1.365293e-09   -1.040000e+00    8.954814e-01    1.739692e-01
    9.680801e+00    5.753997e+02    3.236002e-01    3.308685e+07    1.506901e-08    2.045427e-11    1.371093e-08    1.349948e-09   -1.030000e+00    8.954814e-01    1.671258e-01
    9.992415e+00    6.013125e+02    2.932857e-01    3.126194e+07    1.491989e-08    1.920587e-11    1.351679e-08    1.334007e-09   -1.020000e+00    8.954814e-01    1.604139e-01
    1.030856e+01    6.273051e+02    2.649777e-01    2.944193e+07    1.476595e-08    1.803428e-11    1.331628e-08    1.317462e-09   -1.010000e+00    8.954814e-01    1.538453e-01
    1.062753e+01    6.531865e+02    2.386425e-01    2.763335e+07    1.460719e-08    1.693462e-11    1.310940e-08    1.300306e-09   -1.000000e+00    8.954814e-01    1.474322e-01
    1.094732e+01    6.787423e+02    2.142390e-01    2.584336e+07    1.444366e-08    1.590228e-11    1.289619e-08    1.282533e-09   -9.900000e-01    8.954814e-01    1.411869e-01
    1.126567e+01    7.037391e+02    1.917179e-01    2.407965e+07    1.427545e-08    1.493302e-11    1.267674e-08    1.264143e-09   -9.800000e-01    8.954814e-01    1.351219e-01
    1.158012e+01    7.279281e+02    1.710219e-01    2.235037e+07    1.410263e-08    1.402286e-11    1.245113e-08    1.245136e-09   -9.700000e-01    8.954814e-01    1.292494e-01
    1.188797e+01    7.510526e+02    1.520857e-01    2.066382e+07    1.392533e-08    1.316809e-11    1.221950e-08    1.225514e-09   -9.600000e-01    8.954814e-01    1.235811e-01
    1.218643e+01    7.728555e+02    1.348366e-01    1.902830e+07    1.374372e-08    1.236527e-11    1.198201e-08    1.205285e-09   -9.500000e-01    8.954814e-01    1.181282e-01
    1.247267e+01    7.930901e+02    1.191945e-01    1.745185e+07    1.355796e-08    1.161117e-11    1.173888e-08    1.184460e-09   -9.400000e-01    8.954814e-01    1.129009e-01
    1.274391e+01    8.115286e+02    1.050735e-01    1.594193e+07    1.336827e-08    1.090279e-11    1.149035e-08    1.163051e-09   -9.300000e-01    8.954814e-01    1.079081e-01
    1.299753e+01    8.279754e+02    9.238245e-02    1.450521e+07    1.317488e-08    1.023731e-11    1.123671e-08    1.141077e-09   -9.200000e-01    8.954814e-01    1.031573e-01
    1.323121e+01    8.422758e+02    8.102650e-02    1.314730e+07    1.297808e-08    9.612100e-12    1.097825e-08    1.118558e-09   -9.100000e-01    8.954814e-01    9.865442e-02
    1.344303e+01    8.543248e+02    7.090820e-02    1.187259e+07    1.277816e-08    9.024715e-12    1.071536e-08    1.095519e-09   -9.000000e-01    8.954814e-01    9.440340e-02
    1.363154e+01    8.640743e+02    6.192930e-02    1.068409e+07    1.257545e-08    8.472845e-12    1.044841e-08    1.071989e-09   -8.900000e-01    8.954814e-01    9.040626e-02
    1.379590e+01    8.715367e+02    5.399200e-02    9.583391e+06    1.237030e-08    7.954345e-12    1.017784e-08    1.047998e-09   -8.800000e-01    8.954814e-01    8.666300e-02
    1.393589e+01    8.767849e+02    4.700042e-02    8.570619e+06    1.216310e-08    7.467195e-12    9.904090e-09    1.023583e-09   -8.700000e-01    8.954814e-01    8.317157e-02
    1.405195e+01    8.799488e+02    4.086189e-02    7.644566e+06    1.195425e-08    7.009505e-12    9.627655e-09    9.987835e-10   -8.600000e-01    8.954814e-01    7.992795e-02
    1.414518e+01    8.812108e+02    3.548797e-02    6.802799e+06    1.174416e-08    6.579500e-12    9.349055e-09    9.736400e-10   -8.500000e-01    8.954814e-01    7.692629e-02
    1.421728e+01    8.807950e+02    3.079538e-02    6.041843e+06    1.153328e-08    6.175525e-12    9.068815e-09    9.481980e-10   -8.400000e-01    8.954814e-01    7.415906e-02
    1.427048e+01    8.789567e+02    2.670661e-02    5.357372e+06    1.132206e-08    5.796020e-12    8.787495e-09    9.225050e-10   -8.300000e-01    8.954814e-01    7.161729e-02
    1.430743e+01    8.759723e+02    2.315034e-02    4.744462e+06    1.111098e-08    5.439515e-12    8.505665e-09    8.966095e-10   -8.200000e-01    8.954814e-01    6.929083e-02
    1.433113e+01    8.721268e+02    2.006158e-02    4.197783e+06    1.090048e-08    5.104635e-12    8.223900e-09    8.705640e-10   -8.100000e-01    8.954814e-01    6.716859e-02
    1.434474e+01    8.677045e+02    1.738174e-02    3.711812e+06    1.069104e-08    4.790091e-12    7.942780e-09    8.444205e-10   -8.000000e-01    8.954814e-01    6.523879e-02
    1.435156e+01    8.629798e+02    1.505838e-02    3.280995e+06    1.048315e-08    4.494670e-12    7.662890e-09    8.182335e-10   -7.900000e-01    8.954814e-01    6.348924e-02
    1.435487e+01    8.582103e+02    1.304495e-02    2.899912e+06    1.027725e-08    4.217226e-12    7.384800e-09    7.920560e-10   -7.800000e-01    8.954814e-01    6.190760e-02
    1.435786e+01    8.536332e+02    1.130040e-02    2.563365e+06    1.007380e-08    3.956687e-12    7.109080e-09    7.659430e-10   -7.700000e-01    8.954814e-01    6.048151e-02
    1.436358e+01    8.494610e+02    9.788755e-03    2.266474e+06    9.873235e-09    3.712045e-12    6.836275e-09    7.399475e-10   -7.600000e-01    8.954814e-01    5.919886e-02
    1.437487e+01    8.458819e+02    8.478625e-03    2.004722e+06    9.675990e-09    3.482346e-12    6.566915e-09    7.141230e-10   -7.500000e-01    8.954814e-01    5.804787e-02
    1.439440e+01    8.430600e+02    7.342720e-03    1.773985e+06    9.482455e-09    3.266698e-12    6.301510e-09    6.885200e-10   -7.400000e-01    8.954814e-01    5.701725e-02
    1.442454e+01    8.411361e+02    6.357435e-03    1.570535e+06    9.293010e-09    3.064259e-12    6.040525e-09    6.631880e-10   -7.300000e-01    8.954814e-01    5.609628e-02
    1.446751e+01    8.402312e+02    5.502355e-03    1.391038e+06    9.108010e-09    2.874237e-12    5.784410e-09    6.381750e-10   -7.200000e-01    8.954814e-01    5.527484e-02
