# sky130 pfet_01v8 gm/ID Processed Lookup Table
# Corner: fs
# Temperature: 85C
# W = 2.0 um
# L = 2 um (2000 nm)
# Columns: gm/id [1/V]  gm/gds [V/V]  id/W [A/m]  ft [Hz]  Cgg/W [F/m]  Cgd/W [F/m]  Cgs/W [F/m]  Cdb/W [F/m]  vgs [V]  vth [V]  vdsat [V]
# vdsat = BSIM4 saturation voltage (|VDS|_sat, positive); use for headroom / saturation / cascode-bias calculations
#           gm/id          gm/gds            id/W              ft           Cgg/W           Cgd/W           Cgs/W           Cdb/W             vgs             vth           vdsat
    1.494988e+00    2.144583e+00    1.102067e+01    1.911553e+08    1.371765e-08    2.044000e-09    1.179980e-08    1.368112e-09   -1.800000e+00    8.857010e-01    7.836152e-01
    1.523922e+00    2.234107e+00    1.085591e+01    1.927242e+08    1.366196e-08    1.961345e-09    1.181517e-08    1.360892e-09   -1.790000e+00    8.857010e-01    7.755659e-01
    1.553814e+00    2.330338e+00    1.068980e+01    1.942909e+08    1.360619e-08    1.879233e-09    1.182977e-08    1.353584e-09   -1.780000e+00    8.857010e-01    7.675208e-01
    1.584550e+00    2.433997e+00    1.052338e+01    1.958519e+08    1.355045e-08    1.797846e-09    1.184351e-08    1.346205e-09   -1.770000e+00    8.857010e-01    7.594799e-01
    1.616209e+00    2.545906e+00    1.035632e+01    1.974037e+08    1.349483e-08    1.717369e-09    1.185635e-08    1.338768e-09   -1.760000e+00    8.857010e-01    7.514430e-01
    1.648822e+00    2.666999e+00    1.018863e+01    1.989422e+08    1.343948e-08    1.637986e-09    1.186824e-08    1.331292e-09   -1.750000e+00    8.857010e-01    7.434100e-01
    1.682416e+00    2.798334e+00    1.002034e+01    2.004629e+08    1.338449e-08    1.559882e-09    1.192821e-08    1.376487e-09   -1.740000e+00    8.857010e-01    7.353808e-01
    1.717021e+00    2.941117e+00    9.851465e+00    2.019610e+08    1.332997e-08    1.483234e-09    1.193540e-08    1.366214e-09   -1.730000e+00    8.857010e-01    7.273552e-01
    1.752665e+00    3.096728e+00    9.682040e+00    2.034309e+08    1.327605e-08    1.408217e-09    1.194160e-08    1.356070e-09   -1.720000e+00    8.857010e-01    7.193331e-01
    1.789371e+00    3.266735e+00    9.512090e+00    2.048671e+08    1.322283e-08    1.334994e-09    1.194677e-08    1.346075e-09   -1.710000e+00    8.857010e-01    7.113144e-01
    1.827162e+00    3.452926e+00    9.341640e+00    2.062630e+08    1.317040e-08    1.263717e-09    1.195088e-08    1.336246e-09   -1.700000e+00    8.857010e-01    7.032990e-01
    1.866055e+00    3.657347e+00    9.170725e+00    2.076116e+08    1.311887e-08    1.194526e-09    1.195390e-08    1.326597e-09   -1.690000e+00    8.857010e-01    6.952867e-01
    1.906064e+00    3.882324e+00    8.999390e+00    2.089059e+08    1.306833e-08    1.127546e-09    1.195581e-08    1.317145e-09   -1.680000e+00    8.857010e-01    6.872774e-01
    1.947197e+00    4.130505e+00    8.827675e+00    2.101377e+08    1.301885e-08    1.062882e-09    1.195658e-08    1.307904e-09   -1.670000e+00    8.857010e-01    6.792711e-01
    1.989458e+00    4.404896e+00    8.655625e+00    2.112990e+08    1.297048e-08    1.000627e-09    1.195621e-08    1.298886e-09   -1.660000e+00    8.857010e-01    6.712675e-01
    2.032842e+00    4.708895e+00    8.483290e+00    2.123806e+08    1.292330e-08    9.408500e-10    1.195468e-08    1.290102e-09   -1.650000e+00    8.857010e-01    6.632666e-01
    2.077337e+00    5.046338e+00    8.310740e+00    2.133737e+08    1.287733e-08    8.836030e-10    1.195199e-08    1.281561e-09   -1.640000e+00    8.857010e-01    6.552683e-01
    2.122924e+00    5.421519e+00    8.138030e+00    2.142688e+08    1.283261e-08    8.289195e-10    1.194816e-08    1.273269e-09   -1.630000e+00    8.857010e-01    6.472724e-01
    2.169579e+00    5.839231e+00    7.965235e+00    2.150563e+08    1.278916e-08    7.768135e-10    1.194317e-08    1.265233e-09   -1.620000e+00    8.857010e-01    6.392788e-01
    2.217268e+00    6.304775e+00    7.792435e+00    2.157269e+08    1.274698e-08    7.272825e-10    1.193705e-08    1.257455e-09   -1.610000e+00    8.857010e-01    6.312873e-01
    2.265958e+00    6.823975e+00    7.619705e+00    2.162715e+08    1.270606e-08    6.803065e-10    1.192980e-08    1.249937e-09   -1.600000e+00    8.857010e-01    6.232980e-01
    2.315606e+00    7.403160e+00    7.447145e+00    2.166816e+08    1.266638e-08    6.358500e-10    1.192144e-08    1.242678e-09   -1.590000e+00    8.857010e-01    6.153107e-01
    2.366172e+00    8.049151e+00    7.274845e+00    2.169494e+08    1.262792e-08    5.938645e-10    1.191199e-08    1.235677e-09   -1.580000e+00    8.857010e-01    6.073252e-01
    2.417619e+00    8.769214e+00    7.102910e+00    2.170685e+08    1.259063e-08    5.542895e-10    1.190147e-08    1.228928e-09   -1.570000e+00    8.857010e-01    5.993414e-01
    2.469912e+00    9.570987e+00    6.931440e+00    2.170334e+08    1.255448e-08    5.170535e-10    1.188989e-08    1.222427e-09   -1.560000e+00    8.857010e-01    5.913594e-01
    2.523027e+00    1.046243e+01    6.760545e+00    2.168405e+08    1.251940e-08    4.820776e-10    1.187727e-08    1.216166e-09   -1.550000e+00    8.857010e-01    5.833788e-01
    2.576949e+00    1.145171e+01    6.590335e+00    2.164878e+08    1.248533e-08    4.492749e-10    1.186363e-08    1.210139e-09   -1.540000e+00    8.857010e-01    5.753997e-01
    2.631671e+00    1.254710e+01    6.420925e+00    2.159747e+08    1.245222e-08    4.185542e-10    1.184898e-08    1.204335e-09   -1.530000e+00    8.857010e-01    5.674220e-01
    2.687212e+00    1.375691e+01    6.252415e+00    2.153025e+08    1.241998e-08    3.898205e-10    1.183334e-08    1.198745e-09   -1.520000e+00    8.857010e-01    5.594455e-01
    2.743590e+00    1.508938e+01    6.084930e+00    2.144741e+08    1.238854e-08    3.629764e-10    1.181673e-08    1.193359e-09   -1.510000e+00    8.857010e-01    5.514702e-01
    2.800855e+00    1.655258e+01    5.918560e+00    2.134935e+08    1.235783e-08    3.379241e-10    1.179913e-08    1.188164e-09   -1.500000e+00    8.857010e-01    5.434960e-01
    2.859059e+00    1.815437e+01    5.753420e+00    2.123659e+08    1.232777e-08    3.145654e-10    1.178057e-08    1.183149e-09   -1.490000e+00    8.857010e-01    5.355228e-01
    2.918272e+00    1.990237e+01    5.589605e+00    2.110974e+08    1.229828e-08    2.928037e-10    1.176105e-08    1.178303e-09   -1.480000e+00    8.857010e-01    5.275505e-01
    2.978581e+00    2.180388e+01    5.427210e+00    2.096948e+08    1.226927e-08    2.725440e-10    1.174056e-08    1.173612e-09   -1.470000e+00    8.857010e-01    5.195792e-01
    3.040074e+00    2.386596e+01    5.266330e+00    2.081649e+08    1.224066e-08    2.536941e-10    1.171910e-08    1.169064e-09   -1.460000e+00    8.857010e-01    5.116086e-01
    3.102864e+00    2.609541e+01    5.107040e+00    2.065152e+08    1.221238e-08    2.361647e-10    1.169666e-08    1.164647e-09   -1.450000e+00    8.857010e-01    5.036389e-01
    3.167059e+00    2.849879e+01    4.949425e+00    2.047526e+08    1.218433e-08    2.198702e-10    1.167324e-08    1.160349e-09   -1.440000e+00    8.857010e-01    4.956699e-01
    3.232781e+00    3.108253e+01    4.793560e+00    2.028842e+08    1.215644e-08    2.047285e-10    1.164881e-08    1.156156e-09   -1.430000e+00    8.857010e-01    4.877016e-01
    3.300157e+00    3.385299e+01    4.639517e+00    2.009167e+08    1.212863e-08    1.906618e-10    1.162336e-08    1.152056e-09   -1.420000e+00    8.857010e-01    4.797341e-01
    3.369323e+00    3.681645e+01    4.487359e+00    1.988563e+08    1.210081e-08    1.775960e-10    1.159685e-08    1.148037e-09   -1.410000e+00    8.857010e-01    4.717673e-01
    3.440417e+00    3.997933e+01    4.337149e+00    1.967090e+08    1.207290e-08    1.654614e-10    1.156927e-08    1.144086e-09   -1.400000e+00    8.857010e-01    4.638012e-01
    3.513587e+00    4.334816e+01    4.188945e+00    1.944801e+08    1.204482e-08    1.541922e-10    1.154059e-08    1.140192e-09   -1.390000e+00    8.857010e-01    4.558360e-01
    3.588984e+00    4.692972e+01    4.042802e+00    1.921748e+08    1.201650e-08    1.437267e-10    1.151077e-08    1.136342e-09   -1.380000e+00    8.857010e-01    4.478717e-01
    3.666768e+00    5.073109e+01    3.898771e+00    1.897974e+08    1.198784e-08    1.340069e-10    1.147976e-08    1.132524e-09   -1.370000e+00    8.857010e-01    4.399083e-01
    3.747101e+00    5.475971e+01    3.756901e+00    1.873519e+08    1.195879e-08    1.249790e-10    1.144753e-08    1.128727e-09   -1.360000e+00    8.857010e-01    4.319461e-01
    3.830155e+00    5.902354e+01    3.617237e+00    1.848420e+08    1.192924e-08    1.165924e-10    1.141403e-08    1.124938e-09   -1.350000e+00    8.857010e-01    4.239852e-01
    3.916111e+00    6.353108e+01    3.479824e+00    1.822710e+08    1.189912e-08    1.088002e-10    1.137921e-08    1.121146e-09   -1.340000e+00    8.857010e-01    4.160257e-01
    4.005157e+00    6.829137e+01    3.344703e+00    1.796415e+08    1.186836e-08    1.015588e-10    1.134301e-08    1.117341e-09   -1.330000e+00    8.857010e-01    4.080679e-01
    4.097486e+00    7.331413e+01    3.211916e+00    1.769560e+08    1.183686e-08    9.482760e-11    1.130537e-08    1.113508e-09   -1.320000e+00    8.857010e-01    4.001122e-01
    4.193308e+00    7.860988e+01    3.081500e+00    1.742166e+08    1.180456e-08    8.856905e-11    1.126624e-08    1.109638e-09   -1.310000e+00    8.857010e-01    3.921588e-01
    4.292838e+00    8.418980e+01    2.953494e+00    1.714250e+08    1.177136e-08    8.274825e-11    1.122554e-08    1.105718e-09   -1.300000e+00    8.857010e-01    3.842082e-01
    4.396301e+00    9.006597e+01    2.827935e+00    1.685827e+08    1.173719e-08    7.733300e-11    1.118320e-08    1.101737e-09   -1.290000e+00    8.857010e-01    3.762609e-01
    4.503937e+00    9.625135e+01    2.704857e+00    1.656908e+08    1.170195e-08    7.229330e-11    1.113914e-08    1.097683e-09   -1.280000e+00    8.857010e-01    3.683174e-01
    4.615996e+00    1.027597e+02    2.584296e+00    1.627503e+08    1.166557e-08    6.760160e-11    1.109330e-08    1.093545e-09   -1.270000e+00    8.857010e-01    3.603784e-01
    4.732740e+00    1.096059e+02    2.466286e+00    1.597617e+08    1.162796e-08    6.323235e-11    1.104558e-08    1.089309e-09   -1.260000e+00    8.857010e-01    3.524447e-01
    4.854446e+00    1.168055e+02    2.350862e+00    1.567255e+08    1.158903e-08    5.916195e-11    1.099590e-08    1.084964e-09   -1.250000e+00    8.857010e-01    3.445170e-01
    4.981402e+00    1.243753e+02    2.238055e+00    1.536419e+08    1.154869e-08    5.536855e-11    1.094416e-08    1.080499e-09   -1.240000e+00    8.857010e-01    3.365966e-01
    5.113909e+00    1.323328e+02    2.127899e+00    1.505108e+08    1.150686e-08    5.183205e-11    1.089028e-08    1.075900e-09   -1.230000e+00    8.857010e-01    3.286844e-01
    5.252286e+00    1.406967e+02    2.020428e+00    1.473321e+08    1.146343e-08    4.853380e-11    1.083415e-08    1.071155e-09   -1.220000e+00    8.857010e-01    3.207819e-01
    5.396853e+00    1.494861e+02    1.915673e+00    1.441053e+08    1.141832e-08    4.545661e-11    1.077569e-08    1.066251e-09   -1.210000e+00    8.857010e-01    3.128906e-01
    5.547949e+00    1.587211e+02    1.813667e+00    1.408298e+08    1.137144e-08    4.258459e-11    1.071477e-08    1.061174e-09   -1.200000e+00    8.857010e-01    3.050122e-01
    5.705927e+00    1.684228e+02    1.714441e+00    1.375052e+08    1.132269e-08    3.990310e-11    1.065130e-08    1.055913e-09   -1.190000e+00    8.857010e-01    2.971486e-01
    5.871136e+00    1.786120e+02    1.618028e+00    1.341306e+08    1.127198e-08    3.739856e-11    1.058516e-08    1.050453e-09   -1.180000e+00    8.857010e-01    2.893021e-01
    6.043935e+00    1.893104e+02    1.524458e+00    1.307053e+08    1.121921e-08    3.505845e-11    1.051625e-08    1.044781e-09   -1.170000e+00    8.857010e-01    2.814752e-01
    6.224690e+00    2.005394e+02    1.433763e+00    1.272285e+08    1.116428e-08    3.287120e-11    1.044445e-08    1.038884e-09   -1.160000e+00    8.857010e-01    2.736708e-01
    6.413748e+00    2.123197e+02    1.345973e+00    1.236994e+08    1.110711e-08    3.082609e-11    1.036965e-08    1.032747e-09   -1.150000e+00    8.857010e-01    2.658921e-01
    6.611467e+00    2.246717e+02    1.261118e+00    1.201175e+08    1.104759e-08    2.891326e-11    1.029174e-08    1.026357e-09   -1.140000e+00    8.857010e-01    2.581428e-01
    6.818163e+00    2.376136e+02    1.179226e+00    1.164822e+08    1.098563e-08    2.712353e-11    1.021060e-08    1.019700e-09   -1.130000e+00    8.857010e-01    2.504268e-01
    7.034146e+00    2.511620e+02    1.100324e+00    1.127935e+08    1.092115e-08    2.544844e-11    1.012612e-08    1.012761e-09   -1.120000e+00    8.857010e-01    2.427487e-01
    7.259675e+00    2.653299e+02    1.024437e+00    1.090513e+08    1.085405e-08    2.388014e-11    1.003818e-08    1.005528e-09   -1.110000e+00    8.857010e-01    2.351137e-01
    7.494960e+00    2.801268e+02    9.515895e-01    1.052566e+08    1.078424e-08    2.241139e-11    9.946695e-09    9.979860e-10   -1.100000e+00    8.857010e-01    2.275274e-01
    7.740148e+00    2.955566e+02    8.818010e-01    1.014107e+08    1.071165e-08    2.103546e-11    9.851535e-09    9.901220e-10   -1.090000e+00    8.857010e-01    2.199959e-01
    7.995293e+00    3.116167e+02    8.150890e-01    9.751541e+07    1.063619e-08    1.974610e-11    9.752615e-09    9.819225e-10   -1.080000e+00    8.857010e-01    2.125263e-01
    8.260349e+00    3.282967e+02    7.514670e-01    9.357388e+07    1.055781e-08    1.853756e-11    9.649835e-09    9.733750e-10   -1.070000e+00    8.857010e-01    2.051260e-01
    8.535141e+00    3.455763e+02    6.909435e-01    8.959019e+07    1.047642e-08    1.740447e-11    9.543105e-09    9.644670e-10   -1.060000e+00    8.857010e-01    1.978034e-01
    8.819337e+00    3.634238e+02    6.335210e-01    8.556954e+07    1.039197e-08    1.634185e-11    9.432355e-09    9.551865e-10   -1.050000e+00    8.857010e-01    1.905675e-01
    9.112426e+00    3.817942e+02    5.791965e-01    8.151860e+07    1.030442e-08    1.534510e-11    9.317510e-09    9.455230e-10   -1.040000e+00    8.857010e-01    1.834280e-01
    9.413705e+00    4.006281e+02    5.279585e-01    7.744560e+07    1.021371e-08    1.440993e-11    9.198510e-09    9.354665e-10   -1.030000e+00    8.857010e-01    1.763953e-01
    9.722224e+00    4.198487e+02    4.797876e-01    7.336034e+07    1.011984e-08    1.353234e-11    9.075320e-09    9.250075e-10   -1.020000e+00    8.857010e-01    1.694805e-01
    1.003679e+01    4.393617e+02    4.346551e-01    6.927433e+07    1.002276e-08    1.270864e-11    8.947900e-09    9.141385e-10   -1.010000e+00    8.857010e-01    1.626954e-01
    1.035593e+01    4.590540e+02    3.925220e-01    6.520068e+07    9.922495e-09    1.193538e-11    8.816240e-09    9.028525e-10   -1.000000e+00    8.857010e-01    1.560521e-01
    1.067789e+01    4.787935e+02    3.533379e-01    6.115429e+07    9.819040e-09    1.120936e-11    8.680345e-09    8.911445e-10   -9.900000e-01    8.857010e-01    1.495634e-01
    1.100066e+01    4.984293e+02    3.170413e-01    5.715140e+07    9.712425e-09    1.052757e-11    8.540230e-09    8.790110e-10   -9.800000e-01    8.857010e-01    1.432419e-01
    1.132192e+01    5.177945e+02    2.835580e-01    5.320947e+07    9.602700e-09    9.887260e-12    8.395945e-09    8.664505e-10   -9.700000e-01    8.857010e-01    1.371008e-01
    1.163915e+01    5.367089e+02    2.528021e-01    4.934689e+07    9.489915e-09    9.285820e-12    8.247545e-09    8.534635e-10   -9.600000e-01    8.857010e-01    1.311526e-01
    1.194962e+01    5.549812e+02    2.246753e-01    4.558245e+07    9.374150e-09    8.720825e-12    8.095120e-09    8.400520e-10   -9.500000e-01    8.857010e-01    1.254097e-01
    1.225047e+01    5.724182e+02    1.990680e-01    4.193478e+07    9.255505e-09    8.190030e-12    7.938775e-09    8.262200e-10   -9.400000e-01    8.857010e-01    1.198838e-01
    1.253882e+01    5.888288e+02    1.758601e-01    3.842184e+07    9.134100e-09    7.691320e-12    7.778650e-09    8.119755e-10   -9.300000e-01    8.857010e-01    1.145855e-01
    1.281183e+01    6.040330e+02    1.549219e-01    3.506032e+07    9.010070e-09    7.222725e-12    7.614895e-09    7.973265e-10   -9.200000e-01    8.857010e-01    1.095243e-01
    1.306683e+01    6.178695e+02    1.361166e-01    3.186501e+07    8.883570e-09    6.782410e-12    7.447705e-09    7.822860e-10   -9.100000e-01    8.857010e-01    1.047082e-01
    1.330148e+01    6.302044e+02    1.193014e-01    2.884832e+07    8.754775e-09    6.368645e-12    7.277275e-09    7.668675e-10   -9.000000e-01    8.857010e-01    1.001433e-01
    1.351382e+01    6.409372e+02    1.043298e-01    2.601976e+07    8.623885e-09    5.979830e-12    7.103850e-09    7.510880e-10   -8.900000e-01    8.857010e-01    9.583403e-02
    1.370238e+01    6.500079e+02    9.105425e-02    2.338578e+07    8.491110e-09    5.614445e-12    6.927680e-09    7.349670e-10   -8.800000e-01    8.857010e-01    9.178261e-02
    1.386635e+01    6.574007e+02    7.932800e-02    2.094953e+07    8.356690e-09    5.271090e-12    6.749050e-09    7.185265e-10   -8.700000e-01    8.857010e-01    8.798920e-02
    1.400551e+01    6.631445e+02    6.900725e-02    1.871097e+07    8.220865e-09    4.948432e-12    6.568260e-09    7.017910e-10   -8.600000e-01    8.857010e-01    8.445186e-02
    1.412038e+01    6.673125e+02    5.995305e-02    1.666696e+07    8.083910e-09    4.645234e-12    6.385635e-09    6.847870e-10   -8.500000e-01    8.857010e-01    8.116658e-02
    1.421207e+01    6.700184e+02    5.203315e-02    1.481166e+07    7.946100e-09    4.360331e-12    6.201505e-09    6.675430e-10   -8.400000e-01    8.857010e-01    7.812745e-02
    1.428235e+01    6.714099e+02    4.512300e-02    1.313692e+07    7.807720e-09    4.092630e-12    6.016235e-09    6.500905e-10   -8.300000e-01    8.857010e-01    7.532682e-02
    1.433352e+01    6.716638e+02    3.910685e-02    1.163277e+07    7.669070e-09    3.841105e-12    5.830190e-09    6.324615e-10   -8.200000e-01    8.857010e-01    7.275555e-02
    1.436830e+01    6.709741e+02    3.387835e-02    1.028789e+07    7.530460e-09    3.604794e-12    5.643750e-09    6.146910e-10   -8.100000e-01    8.857010e-01    7.040327e-02
    1.438973e+01    6.695469e+02    2.934071e-02    9.090128e+06    7.392195e-09    3.382790e-12    5.457290e-09    5.968140e-10   -8.000000e-01    8.857010e-01    6.825862e-02
    1.440105e+01    6.675911e+02    2.540676e-02    8.026952e+06    7.254590e-09    3.174242e-12    5.271210e-09    5.788665e-10   -7.900000e-01    8.857010e-01    6.630957e-02
    1.440560e+01    6.653115e+02    2.199858e-02    7.085831e+06    7.117955e-09    2.978349e-12    5.085885e-09    5.608860e-10   -7.800000e-01    8.857010e-01    6.454364e-02
    1.440669e+01    6.629034e+02    1.904710e-02    6.254548e+06    6.982600e-09    2.794361e-12    4.901702e-09    5.429100e-10   -7.700000e-01    8.857010e-01    6.294818e-02
    1.440754e+01    6.605489e+02    1.649150e-02    5.521463e+06    6.848820e-09    2.621567e-12    4.719041e-09    5.249755e-10   -7.600000e-01    8.857010e-01    6.151056e-02
    1.441122e+01    6.584141e+02    1.427850e-02    4.875668e+06    6.716905e-09    2.459302e-12    4.538266e-09    5.071205e-10   -7.500000e-01    8.857010e-01    6.021839e-02
    1.442059e+01    6.566478e+02    1.236168e-02    4.307086e+06    6.587145e-09    2.306939e-12    4.359730e-09    4.893802e-10   -7.400000e-01    8.857010e-01    5.905963e-02
    1.443829e+01    6.553814e+02    1.070077e-02    3.806551e+06    6.459800e-09    2.163887e-12    4.183771e-09    4.717908e-10   -7.300000e-01    8.857010e-01    5.802276e-02
    1.446673e+01    6.547297e+02    9.260885e-03    3.365799e+06    6.335120e-09    2.029590e-12    4.010705e-09    4.543866e-10   -7.200000e-01    8.857010e-01    5.709683e-02
