# sky130 pfet_01v8 gm/ID Processed Lookup Table
# Corner: fs
# Temperature: 85C
# W = 2.0 um
# L = 4.5 um (4500 nm)
# Columns: gm/id [1/V]  gm/gds [V/V]  id/W [A/m]  ft [Hz]  Cgg/W [F/m]  Cgd/W [F/m]  Cgs/W [F/m]  Cdb/W [F/m]  vgs [V]  vth [V]  vdsat [V]
# vdsat = BSIM4 saturation voltage (|VDS|_sat, positive); use for headroom / saturation / cascode-bias calculations
#           gm/id          gm/gds            id/W              ft           Cgg/W           Cgd/W           Cgs/W           Cdb/W             vgs             vth           vdsat
    1.597287e+00    2.512918e+00    4.976313e+00    4.099329e+07    3.086015e-08    4.614983e-09    2.698750e-08    2.967956e-09   -1.800000e+00    9.021986e-01    7.735721e-01
    1.628125e+00    2.631205e+00    4.896827e+00    4.129445e+07    3.072776e-08    4.424045e-09    2.701937e-08    2.951173e-09   -1.790000e+00    9.021986e-01    7.653043e-01
    1.659982e+00    2.759637e+00    4.816863e+00    4.159439e+07    3.059518e-08    4.234434e-09    2.704938e-08    2.934202e-09   -1.780000e+00    9.021986e-01    7.570420e-01
    1.692766e+00    2.899443e+00    4.736791e+00    4.189222e+07    3.046267e-08    4.046588e-09    2.707738e-08    2.917079e-09   -1.770000e+00    9.021986e-01    7.487852e-01
    1.726547e+00    3.052043e+00    4.656500e+00    4.218697e+07    3.033051e-08    3.860953e-09    2.710324e-08    2.899845e-09   -1.760000e+00    9.021986e-01    7.405340e-01
    1.761347e+00    3.219063e+00    4.576001e+00    4.247750e+07    3.019897e-08    3.677971e-09    2.712684e-08    2.882540e-09   -1.750000e+00    9.021986e-01    7.322882e-01
    1.797191e+00    3.402386e+00    4.495306e+00    4.276259e+07    3.006835e-08    3.498085e-09    2.724999e-08    2.972164e-09   -1.740000e+00    9.021986e-01    7.240478e-01
    1.834101e+00    3.604185e+00    4.414428e+00    4.304092e+07    2.993892e-08    3.321722e-09    2.726313e-08    2.949092e-09   -1.730000e+00    9.021986e-01    7.158128e-01
    1.872091e+00    3.826972e+00    4.333381e+00    4.331102e+07    2.981094e-08    3.149293e-09    2.727393e-08    2.926326e-09   -1.720000e+00    9.021986e-01    7.075832e-01
    1.911175e+00    4.073656e+00    4.252184e+00    4.357125e+07    2.968469e-08    2.981188e-09    2.728231e-08    2.903910e-09   -1.710000e+00    9.021986e-01    6.993588e-01
    1.951358e+00    4.347608e+00    4.170854e+00    4.381995e+07    2.956040e-08    2.817766e-09    2.728818e-08    2.881881e-09   -1.700000e+00    9.021986e-01    6.911398e-01
    1.992640e+00    4.652719e+00    4.089415e+00    4.405522e+07    2.943830e-08    2.659351e-09    2.729149e-08    2.860278e-09   -1.690000e+00    9.021986e-01    6.829260e-01
    2.035014e+00    4.993503e+00    4.007888e+00    4.427515e+07    2.931860e-08    2.506233e-09    2.729219e-08    2.839136e-09   -1.680000e+00    9.021986e-01    6.747174e-01
    2.078466e+00    5.375159e+00    3.926302e+00    4.447768e+07    2.920147e-08    2.358655e-09    2.729023e-08    2.818487e-09   -1.670000e+00    9.021986e-01    6.665139e-01
    2.122970e+00    5.803673e+00    3.844685e+00    4.466063e+07    2.908706e-08    2.216817e-09    2.728559e-08    2.798360e-09   -1.660000e+00    9.021986e-01    6.583157e-01
    2.168497e+00    6.285927e+00    3.763070e+00    4.482191e+07    2.897549e-08    2.080875e-09    2.727825e-08    2.778779e-09   -1.650000e+00    9.021986e-01    6.501225e-01
    2.215006e+00    6.829773e+00    3.681494e+00    4.495930e+07    2.886686e-08    1.950936e-09    2.726823e-08    2.759762e-09   -1.640000e+00    9.021986e-01    6.419344e-01
    2.262452e+00    7.444135e+00    3.599993e+00    4.507065e+07    2.876122e-08    1.827060e-09    2.725552e-08    2.741325e-09   -1.630000e+00    9.021986e-01    6.337514e-01
    2.310785e+00    8.139110e+00    3.518612e+00    4.515400e+07    2.865859e-08    1.709266e-09    2.724014e-08    2.723479e-09   -1.620000e+00    9.021986e-01    6.255734e-01
    2.359954e+00    8.926018e+00    3.437394e+00    4.520747e+07    2.855898e-08    1.597526e-09    2.722212e-08    2.706227e-09   -1.610000e+00    9.021986e-01    6.174005e-01
    2.409906e+00    9.817447e+00    3.356386e+00    4.522947e+07    2.846235e-08    1.491776e-09    2.720149e-08    2.689572e-09   -1.600000e+00    9.021986e-01    6.092325e-01
    2.460594e+00    1.082728e+01    3.275638e+00    4.521865e+07    2.836863e-08    1.391915e-09    2.717829e-08    2.673510e-09   -1.590000e+00    9.021986e-01    6.010694e-01
    2.511977e+00    1.197067e+01    3.195203e+00    4.517407e+07    2.827776e-08    1.297811e-09    2.715254e-08    2.658034e-09   -1.580000e+00    9.021986e-01    5.929113e-01
    2.564029e+00    1.326403e+01    3.115131e+00    4.509520e+07    2.818960e-08    1.209303e-09    2.712431e-08    2.643131e-09   -1.570000e+00    9.021986e-01    5.847581e-01
    2.616731e+00    1.472484e+01    3.035474e+00    4.498180e+07    2.810406e-08    1.126210e-09    2.709362e-08    2.628788e-09   -1.560000e+00    9.021986e-01    5.766099e-01
    2.670085e+00    1.637166e+01    2.956288e+00    4.483414e+07    2.802097e-08    1.048329e-09    2.706050e-08    2.614986e-09   -1.550000e+00    9.021986e-01    5.684665e-01
    2.724110e+00    1.822387e+01    2.877621e+00    4.465285e+07    2.794018e-08    9.754465e-10    2.702500e-08    2.601705e-09   -1.540000e+00    9.021986e-01    5.603280e-01
    2.778841e+00    2.030156e+01    2.799525e+00    4.443892e+07    2.786151e-08    9.073355e-10    2.698714e-08    2.588922e-09   -1.530000e+00    9.021986e-01    5.521944e-01
    2.834329e+00    2.262527e+01    2.722048e+00    4.419355e+07    2.778480e-08    8.437650e-10    2.694694e-08    2.576611e-09   -1.520000e+00    9.021986e-01    5.440657e-01
    2.890643e+00    2.521587e+01    2.645237e+00    4.391825e+07    2.770985e-08    7.844980e-10    2.690443e-08    2.564749e-09   -1.510000e+00    9.021986e-01    5.359418e-01
    2.947865e+00    2.809437e+01    2.569134e+00    4.361462e+07    2.763646e-08    7.292995e-10    2.685961e-08    2.553306e-09   -1.500000e+00    9.021986e-01    5.278229e-01
    3.006093e+00    3.128174e+01    2.493781e+00    4.328441e+07    2.756444e-08    6.779350e-10    2.681250e-08    2.542255e-09   -1.490000e+00    9.021986e-01    5.197090e-01
    3.065428e+00    3.479878e+01    2.419215e+00    4.292936e+07    2.749359e-08    6.301745e-10    2.676307e-08    2.531567e-09   -1.480000e+00    9.021986e-01    5.115999e-01
    3.125990e+00    3.866607e+01    2.345473e+00    4.255123e+07    2.742370e-08    5.857950e-10    2.671133e-08    2.521212e-09   -1.470000e+00    9.021986e-01    5.034959e-01
    3.187898e+00    4.290378e+01    2.272587e+00    4.215170e+07    2.735458e-08    5.445795e-10    2.665724e-08    2.511162e-09   -1.460000e+00    9.021986e-01    4.953969e-01
    3.251282e+00    4.753182e+01    2.200587e+00    4.173241e+07    2.728601e-08    5.063195e-10    2.660078e-08    2.501386e-09   -1.450000e+00    9.021986e-01    4.873031e-01
    3.316271e+00    5.256963e+01    2.129501e+00    4.129478e+07    2.721780e-08    4.708159e-10    2.654191e-08    2.491856e-09   -1.440000e+00    9.021986e-01    4.792144e-01
    3.383011e+00    5.803645e+01    2.059355e+00    4.084030e+07    2.714975e-08    4.378797e-10    2.648058e-08    2.482542e-09   -1.430000e+00    9.021986e-01    4.711310e-01
    3.451640e+00    6.395117e+01    1.990172e+00    4.037023e+07    2.708165e-08    4.073311e-10    2.641674e-08    2.473415e-09   -1.420000e+00    9.021986e-01    4.630529e-01
    3.522304e+00    7.033242e+01    1.921975e+00    3.988565e+07    2.701332e-08    3.790006e-10    2.635030e-08    2.464448e-09   -1.410000e+00    9.021986e-01    4.549804e-01
    3.595158e+00    7.719899e+01    1.854784e+00    3.938769e+07    2.694455e-08    3.527287e-10    2.628121e-08    2.455610e-09   -1.400000e+00    9.021986e-01    4.469135e-01
    3.670356e+00    8.456940e+01    1.788617e+00    3.887719e+07    2.687514e-08    3.283661e-10    2.620937e-08    2.446875e-09   -1.390000e+00    9.021986e-01    4.388525e-01
    3.748065e+00    9.246252e+01    1.723492e+00    3.835502e+07    2.680491e-08    3.057726e-10    2.613469e-08    2.438215e-09   -1.380000e+00    9.021986e-01    4.307975e-01
    3.828449e+00    1.008974e+02    1.659426e+00    3.782186e+07    2.673365e-08    2.848175e-10    2.605706e-08    2.429603e-09   -1.370000e+00    9.021986e-01    4.227488e-01
    3.911687e+00    1.098937e+02    1.596437e+00    3.727835e+07    2.666117e-08    2.653794e-10    2.597637e-08    2.421012e-09   -1.360000e+00    9.021986e-01    4.147066e-01
    3.997956e+00    1.194713e+02    1.534536e+00    3.672497e+07    2.658728e-08    2.473451e-10    2.589251e-08    2.412414e-09   -1.350000e+00    9.021986e-01    4.066712e-01
    4.087452e+00    1.296508e+02    1.473741e+00    3.616220e+07    2.651179e-08    2.306093e-10    2.580532e-08    2.403784e-09   -1.340000e+00    9.021986e-01    3.986431e-01
    4.180373e+00    1.404540e+02    1.414064e+00    3.559042e+07    2.643450e-08    2.150746e-10    2.571469e-08    2.395094e-09   -1.330000e+00    9.021986e-01    3.906227e-01
    4.276926e+00    1.519030e+02    1.355519e+00    3.500991e+07    2.635521e-08    2.006509e-10    2.562045e-08    2.386318e-09   -1.320000e+00    9.021986e-01    3.826103e-01
    4.377338e+00    1.640216e+02    1.298119e+00    3.442095e+07    2.627374e-08    1.872546e-10    2.552245e-08    2.377431e-09   -1.310000e+00    9.021986e-01    3.746066e-01
    4.481829e+00    1.768339e+02    1.241877e+00    3.382367e+07    2.618987e-08    1.748085e-10    2.542052e-08    2.368405e-09   -1.300000e+00    9.021986e-01    3.666122e-01
    4.590641e+00    1.903654e+02    1.186806e+00    3.321819e+07    2.610341e-08    1.632414e-10    2.531448e-08    2.359214e-09   -1.290000e+00    9.021986e-01    3.586277e-01
    4.704036e+00    2.046431e+02    1.132918e+00    3.260464e+07    2.601415e-08    1.524871e-10    2.520415e-08    2.349832e-09   -1.280000e+00    9.021986e-01    3.506541e-01
    4.822273e+00    2.196947e+02    1.080224e+00    3.198298e+07    2.592190e-08    1.424851e-10    2.508932e-08    2.340231e-09   -1.270000e+00    9.021986e-01    3.426922e-01
    4.945630e+00    2.355492e+02    1.028739e+00    3.135321e+07    2.582645e-08    1.331791e-10    2.496982e-08    2.330385e-09   -1.260000e+00    9.021986e-01    3.347430e-01
    5.074403e+00    2.522370e+02    9.784730e-01    3.071531e+07    2.572759e-08    1.245174e-10    2.484542e-08    2.320266e-09   -1.250000e+00    9.021986e-01    3.268079e-01
    5.208890e+00    2.697886e+02    9.294395e-01    3.006912e+07    2.562511e-08    1.164523e-10    2.471590e-08    2.309847e-09   -1.240000e+00    9.021986e-01    3.188880e-01
    5.349408e+00    2.882358e+02    8.816500e-01    2.941454e+07    2.551878e-08    1.089397e-10    2.458104e-08    2.299100e-09   -1.230000e+00    9.021986e-01    3.109849e-01
    5.496280e+00    3.076106e+02    8.351175e-01    2.875139e+07    2.540842e-08    1.019391e-10    2.444060e-08    2.287997e-09   -1.220000e+00    9.021986e-01    3.031004e-01
    5.649844e+00    3.279451e+02    7.898535e-01    2.807949e+07    2.529379e-08    9.541300e-11    2.429436e-08    2.276508e-09   -1.210000e+00    9.021986e-01    2.952364e-01
    5.810441e+00    3.492708e+02    7.458705e-01    2.739862e+07    2.517468e-08    8.932685e-11    2.414208e-08    2.264608e-09   -1.200000e+00    9.021986e-01    2.873950e-01
    5.978416e+00    3.716185e+02    7.031810e-01    2.670856e+07    2.505088e-08    8.364880e-11    2.398349e-08    2.252264e-09   -1.190000e+00    9.021986e-01    2.795788e-01
    6.154122e+00    3.950169e+02    6.617965e-01    2.600909e+07    2.492215e-08    7.834950e-11    2.381837e-08    2.239448e-09   -1.180000e+00    9.021986e-01    2.717906e-01
    6.337906e+00    4.194920e+02    6.217290e-01    2.529998e+07    2.478831e-08    7.340175e-11    2.364644e-08    2.226131e-09   -1.170000e+00    9.021986e-01    2.640334e-01
    6.530095e+00    4.450659e+02    5.829910e-01    2.458104e+07    2.464911e-08    6.878060e-11    2.346746e-08    2.212283e-09   -1.160000e+00    9.021986e-01    2.563107e-01
    6.731020e+00    4.717552e+02    5.455930e-01    2.385209e+07    2.450436e-08    6.446285e-11    2.328119e-08    2.197874e-09   -1.150000e+00    9.021986e-01    2.486265e-01
    6.940970e+00    4.995705e+02    5.095465e-01    2.311300e+07    2.435386e-08    6.042720e-11    2.308736e-08    2.182875e-09   -1.140000e+00    9.021986e-01    2.409851e-01
    7.160210e+00    5.285133e+02    4.748616e-01    2.236373e+07    2.419740e-08    5.665385e-11    2.288574e-08    2.167256e-09   -1.130000e+00    9.021986e-01    2.333913e-01
    7.388954e+00    5.585734e+02    4.415475e-01    2.160431e+07    2.403478e-08    5.312465e-11    2.267609e-08    2.150989e-09   -1.120000e+00    9.021986e-01    2.258505e-01
    7.627356e+00    5.897293e+02    4.096127e-01    2.083488e+07    2.386583e-08    4.982271e-11    2.245817e-08    2.134044e-09   -1.110000e+00    9.021986e-01    2.183686e-01
    7.875492e+00    6.219417e+02    3.790643e-01    2.005575e+07    2.369036e-08    4.673241e-11    2.223176e-08    2.116392e-09   -1.100000e+00    9.021986e-01    2.109522e-01
    8.133336e+00    6.551539e+02    3.499079e-01    1.926738e+07    2.350823e-08    4.383931e-11    2.199666e-08    2.098008e-09   -1.090000e+00    9.021986e-01    2.036083e-01
    8.400749e+00    6.892873e+02    3.221468e-01    1.847042e+07    2.331928e-08    4.113005e-11    2.175268e-08    2.078865e-09   -1.080000e+00    9.021986e-01    1.963449e-01
    8.677450e+00    7.242379e+02    2.957824e-01    1.766579e+07    2.312338e-08    3.859224e-11    2.149964e-08    2.058938e-09   -1.070000e+00    9.021986e-01    1.891703e-01
    8.962991e+00    7.598744e+02    2.708130e-01    1.685466e+07    2.292043e-08    3.621441e-11    2.123740e-08    2.038204e-09   -1.060000e+00    9.021986e-01    1.820937e-01
    9.256736e+00    7.960354e+02    2.472343e-01    1.603848e+07    2.271034e-08    3.398593e-11    2.096582e-08    2.016640e-09   -1.050000e+00    9.021986e-01    1.751248e-01
    9.557833e+00    8.325264e+02    2.250381e-01    1.521904e+07    2.249304e-08    3.189690e-11    2.068483e-08    1.994228e-09   -1.040000e+00    9.021986e-01    1.682741e-01
    9.865189e+00    8.691190e+02    2.042121e-01    1.439846e+07    2.226850e-08    2.993818e-11    2.039434e-08    1.970952e-09   -1.030000e+00    9.021986e-01    1.615526e-01
    1.017747e+01    9.055520e+02    1.847400e-01    1.357919e+07    2.203672e-08    2.810124e-11    2.009433e-08    1.946796e-09   -1.020000e+00    9.021986e-01    1.549716e-01
    1.049305e+01    9.415304e+02    1.666005e-01    1.276401e+07    2.179772e-08    2.637819e-11    1.978480e-08    1.921749e-09   -1.010000e+00    9.021986e-01    1.485430e-01
    1.081007e+01    9.767318e+02    1.497674e-01    1.195603e+07    2.155156e-08    2.476167e-11    1.946582e-08    1.895804e-09   -1.000000e+00    9.021986e-01    1.422788e-01
    1.112637e+01    1.010809e+03    1.342092e-01    1.115861e+07    2.129834e-08    2.324485e-11    1.913747e-08    1.868957e-09   -9.900000e-01    9.021986e-01    1.361912e-01
    1.143959e+01    1.043401e+03    1.198890e-01    1.037532e+07    2.103820e-08    2.182136e-11    1.879989e-08    1.841207e-09   -9.800000e-01    9.021986e-01    1.302922e-01
    1.174714e+01    1.074141e+03    1.067647e-01    9.609831e+06    2.077131e-08    2.048529e-11    1.845328e-08    1.812560e-09   -9.700000e-01    9.021986e-01    1.245934e-01
    1.204630e+01    1.102669e+03    9.478885e-02    8.865880e+06    2.049790e-08    1.923109e-11    1.809788e-08    1.783023e-09   -9.600000e-01    9.021986e-01    1.191058e-01
    1.233431e+01    1.128648e+03    8.390945e-02    8.147097e+06    2.021822e-08    1.805364e-11    1.773400e-08    1.752611e-09   -9.500000e-01    9.021986e-01    1.138396e-01
    1.260839e+01    1.151777e+03    7.407010e-02    7.456912e+06    1.993260e-08    1.694814e-11    1.736197e-08    1.721343e-09   -9.400000e-01    9.021986e-01    1.088039e-01
    1.286594e+01    1.171808e+03    6.521080e-02    6.798442e+06    1.964137e-08    1.591010e-11    1.698221e-08    1.689241e-09   -9.300000e-01    9.021986e-01    1.040064e-01
    1.310454e+01    1.188557e+03    5.726880e-02    6.174369e+06    1.934494e-08    1.493534e-11    1.659519e-08    1.656336e-09   -9.200000e-01    9.021986e-01    9.945321e-02
    1.332216e+01    1.201918e+03    5.017940e-02    5.586861e+06    1.904375e-08    1.401996e-11    1.620144e-08    1.622662e-09   -9.100000e-01    9.021986e-01    9.514881e-02
    1.351725e+01    1.211872e+03    4.387691e-02    5.037495e+06    1.873828e-08    1.316029e-11    1.580150e-08    1.588260e-09   -9.000000e-01    9.021986e-01    9.109564e-02
    1.368875e+01    1.218483e+03    3.829573e-02    4.527213e+06    1.842906e-08    1.235294e-11    1.539603e-08    1.553173e-09   -8.900000e-01    9.021986e-01    8.729423e-02
    1.383623e+01    1.221902e+03    3.337121e-02    4.056317e+06    1.811665e-08    1.159469e-11    1.498568e-08    1.517454e-09   -8.800000e-01    9.021986e-01    8.374311e-02
    1.395992e+01    1.222364e+03    2.904055e-02    3.624498e+06    1.780164e-08    1.088256e-11    1.457118e-08    1.481157e-09   -8.700000e-01    9.021986e-01    8.043887e-02
    1.406067e+01    1.220166e+03    2.524358e-02    3.230871e+06    1.748467e-08    1.021376e-11    1.415328e-08    1.444342e-09   -8.600000e-01    9.021986e-01    7.737626e-02
    1.413996e+01    1.215666e+03    2.192333e-02    2.874062e+06    1.716638e-08    9.585635e-12    1.373277e-08    1.407074e-09   -8.500000e-01    9.021986e-01    7.454834e-02
    1.419979e+01    1.209255e+03    1.902659e-02    2.552284e+06    1.684745e-08    8.995745e-12    1.331048e-08    1.369420e-09   -8.400000e-01    9.021986e-01    7.194669e-02
    1.424265e+01    1.201351e+03    1.650415e-02    2.263441e+06    1.652856e-08    8.441770e-12    1.288726e-08    1.331452e-09   -8.300000e-01    9.021986e-01    6.956166e-02
    1.427137e+01    1.192373e+03    1.431104e-02    2.005222e+06    1.621044e-08    7.921545e-12    1.246395e-08    1.293246e-09   -8.200000e-01    9.021986e-01    6.738258e-02
    1.428904e+01    1.182735e+03    1.240652e-02    1.775196e+06    1.589377e-08    7.433040e-12    1.204144e-08    1.254875e-09   -8.100000e-01    9.021986e-01    6.539805e-02
    1.429887e+01    1.172827e+03    1.075399e-02    1.570886e+06    1.557926e-08    6.974345e-12    1.162058e-08    1.216420e-09   -8.000000e-01    9.021986e-01    6.359619e-02
    1.430410e+01    1.163014e+03    9.320905e-03    1.389849e+06    1.526762e-08    6.543660e-12    1.120225e-08    1.177957e-09   -7.900000e-01    9.021986e-01    6.196485e-02
    1.430794e+01    1.153623e+03    8.078445e-03    1.229724e+06    1.495951e-08    6.139300e-12    1.078728e-08    1.139568e-09   -7.800000e-01    9.021986e-01    6.049185e-02
    1.431346e+01    1.144945e+03    7.001295e-03    1.088276e+06    1.465562e-08    5.759690e-12    1.037651e-08    1.101330e-09   -7.700000e-01    9.021986e-01    5.916516e-02
    1.432355e+01    1.137231e+03    6.067310e-03    9.634212e+05    1.435657e-08    5.403330e-12    9.970730e-09    1.063320e-09   -7.600000e-01    9.021986e-01    5.797305e-02
    1.434091e+01    1.130698e+03    5.257210e-03    8.532470e+05    1.406299e-08    5.068825e-12    9.570710e-09    1.025615e-09   -7.500000e-01    9.021986e-01    5.690420e-02
    1.436803e+01    1.125527e+03    4.554267e-03    7.560155e+05    1.377543e-08    4.754853e-12    9.177165e-09    9.882870e-10   -7.400000e-01    9.021986e-01    5.594785e-02
    1.440713e+01    1.121868e+03    3.944016e-03    6.701640e+05    1.349445e-08    4.460180e-12    8.790775e-09    9.514065e-10   -7.300000e-01    9.021986e-01    5.509380e-02
    1.446025e+01    1.119848e+03    3.413968e-03    5.943007e+05    1.322054e-08    4.183641e-12    8.412160e-09    9.150395e-10   -7.200000e-01    9.021986e-01    5.433252e-02
