# sky130 pfet_01v8 gm/ID Processed Lookup Table
# Corner: tt
# Temperature: 25C
# W = 2.0 um
# L = 2.16 um (2160 nm)
# Columns: gm/id [1/V]  gm/gds [V/V]  id/W [A/m]  ft [Hz]  Cgg/W [F/m]  Cgd/W [F/m]  Cgs/W [F/m]  Vov [V]
#         gm/id          gm/gds            id/W              ft           Cgg/W           Cgd/W           Cgs/W             Vov
    2.041965e+00    4.559549e+00    8.973415e+00    2.190991e+08    1.331023e-08    1.117189e-09    1.208797e-08   -2.816529e+00
    2.063484e+00    4.714225e+00    8.881790e+00    2.195484e+08    1.328592e-08    1.084409e-09    1.208933e-08   -2.811529e+00
    2.085283e+00    4.877283e+00    8.790145e+00    2.199759e+08    1.326191e-08    1.052238e-09    1.209042e-08   -2.806529e+00
    2.107358e+00    5.049260e+00    8.698490e+00    2.203805e+08    1.323821e-08    1.020688e-09    1.209124e-08   -2.801529e+00
    2.129704e+00    5.230728e+00    8.606840e+00    2.207608e+08    1.321482e-08    9.897665e-10    1.209177e-08   -2.796529e+00
    2.152323e+00    5.422295e+00    8.515195e+00    2.211156e+08    1.319176e-08    9.594825e-10    1.209204e-08   -2.791529e+00
    2.175208e+00    5.624602e+00    8.423570e+00    2.214438e+08    1.316903e-08    9.298425e-10    1.209204e-08   -2.786529e+00
    2.198357e+00    5.838323e+00    8.331970e+00    2.217440e+08    1.314662e-08    9.008510e-10    1.209176e-08   -2.781529e+00
    2.221766e+00    6.064178e+00    8.240405e+00    2.220149e+08    1.312457e-08    8.725130e-10    1.209120e-08   -2.776529e+00
    2.245427e+00    6.302914e+00    8.148890e+00    2.222552e+08    1.310285e-08    8.448310e-10    1.209039e-08   -2.771529e+00
    2.269340e+00    6.555324e+00    8.057430e+00    2.224640e+08    1.308146e-08    8.178070e-10    1.208929e-08   -2.766529e+00
    2.293495e+00    6.822233e+00    7.966040e+00    2.226397e+08    1.306044e-08    7.914415e-10    1.208794e-08   -2.761529e+00
    2.317888e+00    7.104510e+00    7.874735e+00    2.227815e+08    1.303975e-08    7.657340e-10    1.208632e-08   -2.756529e+00
    2.342513e+00    7.403052e+00    7.783520e+00    2.228881e+08    1.301941e-08    7.406830e-10    1.208443e-08   -2.751529e+00
    2.367366e+00    7.718801e+00    7.692410e+00    2.229585e+08    1.299942e-08    7.162855e-10    1.208228e-08   -2.746529e+00
    2.392440e+00    8.052724e+00    7.601415e+00    2.229916e+08    1.297978e-08    6.925380e-10    1.207988e-08   -2.741529e+00
    2.417729e+00    8.405834e+00    7.510555e+00    2.229867e+08    1.296047e-08    6.694355e-10    1.207722e-08   -2.736529e+00
    2.443229e+00    8.779166e+00    7.419835e+00    2.229429e+08    1.294151e-08    6.469735e-10    1.207431e-08   -2.731529e+00
    2.468933e+00    9.173784e+00    7.329275e+00    2.228594e+08    1.292289e-08    6.251445e-10    1.207114e-08   -2.726529e+00
    2.494839e+00    9.590782e+00    7.238885e+00    2.227358e+08    1.290459e-08    6.039420e-10    1.206773e-08   -2.721529e+00
    2.520940e+00    1.003127e+01    7.148680e+00    2.225713e+08    1.288663e-08    5.833575e-10    1.206408e-08   -2.716529e+00
    2.547234e+00    1.049639e+01    7.058675e+00    2.223657e+08    1.286899e-08    5.633830e-10    1.206018e-08   -2.711529e+00
    2.573719e+00    1.098728e+01    6.968885e+00    2.221186e+08    1.285167e-08    5.440090e-10    1.205605e-08   -2.706529e+00
    2.600392e+00    1.150512e+01    6.879320e+00    2.218298e+08    1.283467e-08    5.252260e-10    1.205169e-08   -2.701529e+00
    2.627252e+00    1.205107e+01    6.790000e+00    2.214994e+08    1.281796e-08    5.070230e-10    1.204709e-08   -2.696529e+00
    2.654299e+00    1.262631e+01    6.700935e+00    2.211273e+08    1.280157e-08    4.893901e-10    1.204226e-08   -2.691529e+00
    2.681535e+00    1.323203e+01    6.612140e+00    2.207138e+08    1.278545e-08    4.723154e-10    1.203721e-08   -2.686529e+00
    2.708958e+00    1.386938e+01    6.523635e+00    2.202590e+08    1.276964e-08    4.557877e-10    1.203194e-08   -2.681529e+00
    2.736576e+00    1.453955e+01    6.435425e+00    2.197635e+08    1.275409e-08    4.397951e-10    1.202645e-08   -2.676529e+00
    2.764389e+00    1.524369e+01    6.347530e+00    2.192276e+08    1.273881e-08    4.243256e-10    1.202074e-08   -2.671529e+00
    2.792405e+00    1.598296e+01    6.259960e+00    2.186521e+08    1.272379e-08    4.093670e-10    1.201482e-08   -2.666529e+00
    2.820628e+00    1.675847e+01    6.172730e+00    2.180375e+08    1.270902e-08    3.949069e-10    1.200868e-08   -2.661529e+00
    2.849064e+00    1.757134e+01    6.085855e+00    2.173844e+08    1.269450e-08    3.809326e-10    1.200234e-08   -2.656529e+00
    2.877723e+00    1.842266e+01    5.999345e+00    2.166939e+08    1.268021e-08    3.674317e-10    1.199578e-08   -2.651529e+00
    2.906615e+00    1.931350e+01    5.913210e+00    2.159666e+08    1.266614e-08    3.543915e-10    1.198903e-08   -2.646529e+00
    2.935743e+00    2.024492e+01    5.827475e+00    2.152037e+08    1.265229e-08    3.417995e-10    1.198206e-08   -2.641529e+00
    2.965126e+00    2.121793e+01    5.742135e+00    2.144057e+08    1.263864e-08    3.296429e-10    1.197490e-08   -2.636529e+00
    2.994770e+00    2.223352e+01    5.657215e+00    2.135740e+08    1.262518e-08    3.179094e-10    1.196753e-08   -2.631529e+00
    3.024687e+00    2.329268e+01    5.572720e+00    2.127094e+08    1.261192e-08    3.065865e-10    1.195997e-08   -2.626529e+00
    3.054894e+00    2.439636e+01    5.488660e+00    2.118129e+08    1.259883e-08    2.956619e-10    1.195220e-08   -2.621529e+00
    3.085400e+00    2.554548e+01    5.405050e+00    2.108856e+08    1.258591e-08    2.851235e-10    1.194424e-08   -2.616529e+00
    3.116223e+00    2.674096e+01    5.321895e+00    2.099285e+08    1.257314e-08    2.749593e-10    1.193608e-08   -2.611529e+00
    3.147372e+00    2.798368e+01    5.239210e+00    2.089424e+08    1.256052e-08    2.651575e-10    1.192773e-08   -2.606529e+00
    3.178865e+00    2.927450e+01    5.157005e+00    2.079286e+08    1.254803e-08    2.557064e-10    1.191917e-08   -2.601529e+00
    3.210723e+00    3.061430e+01    5.075280e+00    2.068881e+08    1.253567e-08    2.465947e-10    1.191042e-08   -2.596529e+00
    3.242954e+00    3.200391e+01    4.994053e+00    2.058215e+08    1.252343e-08    2.378111e-10    1.190147e-08   -2.591529e+00
    3.275580e+00    3.344418e+01    4.913328e+00    2.047302e+08    1.251130e-08    2.293448e-10    1.189232e-08   -2.586529e+00
    3.308614e+00    3.493591e+01    4.833116e+00    2.036148e+08    1.249926e-08    2.211851e-10    1.188297e-08   -2.581529e+00
    3.342077e+00    3.647994e+01    4.753421e+00    2.024763e+08    1.248731e-08    2.133214e-10    1.187342e-08   -2.576529e+00
    3.375985e+00    3.807709e+01    4.674254e+00    2.013156e+08    1.247543e-08    2.057436e-10    1.186367e-08   -2.571529e+00
    3.410357e+00    3.972819e+01    4.595622e+00    2.001335e+08    1.246363e-08    1.984418e-10    1.185371e-08   -2.566529e+00
    3.445210e+00    4.143406e+01    4.517530e+00    1.989308e+08    1.245188e-08    1.914063e-10    1.184356e-08   -2.561529e+00
    3.480565e+00    4.319555e+01    4.439986e+00    1.977083e+08    1.244018e-08    1.846277e-10    1.183319e-08   -2.556529e+00
    3.516442e+00    4.501353e+01    4.362996e+00    1.964668e+08    1.242851e-08    1.780968e-10    1.182261e-08   -2.551529e+00
    3.552860e+00    4.688885e+01    4.286566e+00    1.952070e+08    1.241688e-08    1.718048e-10    1.181182e-08   -2.546529e+00
    3.589839e+00    4.882240e+01    4.210701e+00    1.939295e+08    1.240526e-08    1.657429e-10    1.180080e-08   -2.541529e+00
    3.627401e+00    5.081512e+01    4.135410e+00    1.926350e+08    1.239365e-08    1.599031e-10    1.178958e-08   -2.536529e+00
    3.665567e+00    5.286792e+01    4.060696e+00    1.913241e+08    1.238204e-08    1.542769e-10    1.177812e-08   -2.531529e+00
    3.704358e+00    5.498177e+01    3.986564e+00    1.899974e+08    1.237042e-08    1.488568e-10    1.176644e-08   -2.526529e+00
    3.743797e+00    5.715769e+01    3.913021e+00    1.886554e+08    1.235877e-08    1.436351e-10    1.175453e-08   -2.521529e+00
    3.783909e+00    5.939673e+01    3.840070e+00    1.872989e+08    1.234710e-08    1.386045e-10    1.174238e-08   -2.516529e+00
    3.824714e+00    6.169992e+01    3.767718e+00    1.859280e+08    1.233538e-08    1.337577e-10    1.172999e-08   -2.511529e+00
    3.866239e+00    6.406845e+01    3.695968e+00    1.845436e+08    1.232362e-08    1.290882e-10    1.171735e-08   -2.506529e+00
    3.908508e+00    6.650343e+01    3.624824e+00    1.831458e+08    1.231179e-08    1.245891e-10    1.170447e-08   -2.501529e+00
    3.951546e+00    6.900610e+01    3.554292e+00    1.817352e+08    1.229989e-08    1.202542e-10    1.169132e-08   -2.496529e+00
    3.995381e+00    7.157773e+01    3.484376e+00    1.803122e+08    1.228792e-08    1.160772e-10    1.167792e-08   -2.491529e+00
    4.040038e+00    7.421963e+01    3.415080e+00    1.788772e+08    1.227585e-08    1.120523e-10    1.166424e-08   -2.486529e+00
    4.085546e+00    7.693321e+01    3.346407e+00    1.774305e+08    1.226368e-08    1.081738e-10    1.165028e-08   -2.481529e+00
    4.131934e+00    7.971986e+01    3.278362e+00    1.759725e+08    1.225140e-08    1.044360e-10    1.163604e-08   -2.476529e+00
    4.179231e+00    8.258114e+01    3.210948e+00    1.745035e+08    1.223899e-08    1.008337e-10    1.162151e-08   -2.471529e+00
    4.227467e+00    8.551861e+01    3.144170e+00    1.730238e+08    1.222646e-08    9.736175e-11    1.160668e-08   -2.466529e+00
    4.276676e+00    8.853391e+01    3.078031e+00    1.715337e+08    1.221378e-08    9.401525e-11    1.159155e-08   -2.461529e+00
    4.326887e+00    9.162875e+01    3.012534e+00    1.700334e+08    1.220095e-08    9.078945e-11    1.157610e-08   -2.456529e+00
    4.378137e+00    9.480494e+01    2.947683e+00    1.685232e+08    1.218795e-08    8.767980e-11    1.156032e-08   -2.451529e+00
    4.430457e+00    9.806433e+01    2.883481e+00    1.670032e+08    1.217478e-08    8.468190e-11    1.154422e-08   -2.446529e+00
    4.483887e+00    1.014089e+02    2.819933e+00    1.654738e+08    1.216142e-08    8.179150e-11    1.152777e-08   -2.441529e+00
    4.538462e+00    1.048407e+02    2.757040e+00    1.639351e+08    1.214787e-08    7.900450e-11    1.151097e-08   -2.436529e+00
    4.594220e+00    1.083619e+02    2.694806e+00    1.623873e+08    1.213410e-08    7.631710e-11    1.149380e-08   -2.431529e+00
    4.651202e+00    1.119746e+02    2.633236e+00    1.608305e+08    1.212011e-08    7.372545e-11    1.147627e-08   -2.426529e+00
    4.709447e+00    1.156812e+02    2.572331e+00    1.592649e+08    1.210590e-08    7.122590e-11    1.145834e-08   -2.421529e+00
    4.768999e+00    1.194841e+02    2.512094e+00    1.576905e+08    1.209143e-08    6.881510e-11    1.144002e-08   -2.416529e+00
    4.829902e+00    1.233859e+02    2.452530e+00    1.561076e+08    1.207671e-08    6.648960e-11    1.142130e-08   -2.411529e+00
    4.892203e+00    1.273891e+02    2.393641e+00    1.545163e+08    1.206172e-08    6.424625e-11    1.140216e-08   -2.406529e+00
    4.955948e+00    1.314965e+02    2.335429e+00    1.529166e+08    1.204645e-08    6.208195e-11    1.138258e-08   -2.401529e+00
    5.021185e+00    1.357108e+02    2.277899e+00    1.513085e+08    1.203088e-08    5.999370e-11    1.136256e-08   -2.396529e+00
    5.087966e+00    1.400353e+02    2.221052e+00    1.496922e+08    1.201501e-08    5.797870e-11    1.134207e-08   -2.391529e+00
    5.156341e+00    1.444727e+02    2.164894e+00    1.480677e+08    1.199881e-08    5.603415e-11    1.132112e-08   -2.386529e+00
    5.226367e+00    1.490264e+02    2.109424e+00    1.464349e+08    1.198228e-08    5.415750e-11    1.129968e-08   -2.381529e+00
    5.298100e+00    1.536996e+02    2.054648e+00    1.447940e+08    1.196540e-08    5.234615e-11    1.127773e-08   -2.376529e+00
    5.371597e+00    1.584959e+02    2.000568e+00    1.431450e+08    1.194815e-08    5.059770e-11    1.125527e-08   -2.371529e+00
    5.446918e+00    1.634188e+02    1.947186e+00    1.414877e+08    1.193053e-08    4.890980e-11    1.123227e-08   -2.366529e+00
    5.524123e+00    1.684717e+02    1.894507e+00    1.398222e+08    1.191251e-08    4.728024e-11    1.120872e-08   -2.361529e+00
    5.603282e+00    1.736589e+02    1.842533e+00    1.381486e+08    1.189410e-08    4.570683e-11    1.118461e-08   -2.356529e+00
    5.684454e+00    1.789839e+02    1.791266e+00    1.364665e+08    1.187526e-08    4.418754e-11    1.115991e-08   -2.351529e+00
    5.767713e+00    1.844510e+02    1.740710e+00    1.347762e+08    1.185597e-08    4.272034e-11    1.113461e-08   -2.346529e+00
    5.853130e+00    1.900645e+02    1.690868e+00    1.330774e+08    1.183623e-08    4.130334e-11    1.110870e-08   -2.341529e+00
    5.940773e+00    1.958285e+02    1.641743e+00    1.313701e+08    1.181603e-08    3.993470e-11    1.108215e-08   -2.336529e+00
    6.030722e+00    2.017475e+02    1.593336e+00    1.296542e+08    1.179534e-08    3.861266e-11    1.105493e-08   -2.331529e+00
    6.123051e+00    2.078261e+02    1.545654e+00    1.279295e+08    1.177414e-08    3.733551e-11    1.102705e-08   -2.326529e+00
    6.217840e+00    2.140691e+02    1.498697e+00    1.261960e+08    1.175243e-08    3.610164e-11    1.099845e-08   -2.321529e+00
    6.315172e+00    2.204812e+02    1.452468e+00    1.244536e+08    1.173017e-08    3.490947e-11    1.096916e-08   -2.316529e+00
    6.415130e+00    2.270672e+02    1.406972e+00    1.227020e+08    1.170736e-08    3.375751e-11    1.093911e-08   -2.311529e+00
    6.517798e+00    2.338323e+02    1.362210e+00    1.209412e+08    1.168398e-08    3.264429e-11    1.090831e-08   -2.306529e+00
    6.623266e+00    2.407814e+02    1.318187e+00    1.191709e+08    1.166001e-08    3.156844e-11    1.087673e-08   -2.301529e+00
    6.731621e+00    2.479197e+02    1.274904e+00    1.173910e+08    1.163543e-08    3.052861e-11    1.084435e-08   -2.296529e+00
    6.842955e+00    2.552525e+02    1.232366e+00    1.156014e+08    1.161022e-08    2.952353e-11    1.081113e-08   -2.291529e+00
    6.957361e+00    2.627849e+02    1.190575e+00    1.138019e+08    1.158436e-08    2.855196e-11    1.077707e-08   -2.286529e+00
    7.074933e+00    2.705222e+02    1.149535e+00    1.119923e+08    1.155783e-08    2.761270e-11    1.074214e-08   -2.281529e+00
    7.195769e+00    2.784697e+02    1.109247e+00    1.101724e+08    1.153062e-08    2.670462e-11    1.070631e-08   -2.276529e+00
    7.319953e+00    2.866323e+02    1.069717e+00    1.083421e+08    1.150270e-08    2.582662e-11    1.066956e-08   -2.271529e+00
    7.447591e+00    2.950154e+02    1.030946e+00    1.065013e+08    1.147406e-08    2.497765e-11    1.063186e-08   -2.266529e+00
    7.578774e+00    3.036239e+02    9.929370e-01    1.046496e+08    1.144467e-08    2.415669e-11    1.059320e-08   -2.261529e+00
    7.713593e+00    3.124624e+02    9.556940e-01    1.027871e+08    1.141451e-08    2.336276e-11    1.055353e-08   -2.256529e+00
    7.852151e+00    3.215359e+02    9.192195e-01    1.009136e+08    1.138357e-08    2.259492e-11    1.051285e-08   -2.251529e+00
    7.994525e+00    3.308483e+02    8.835165e-01    9.902891e+07    1.135182e-08    2.185228e-11    1.047112e-08   -2.246529e+00
    8.140810e+00    3.404037e+02    8.485875e-01    9.713303e+07    1.131925e-08    2.113395e-11    1.042833e-08   -2.241529e+00
    8.291092e+00    3.502058e+02    8.144355e-01    9.522594e+07    1.128583e-08    2.043910e-11    1.038443e-08   -2.236529e+00
    8.445451e+00    3.602576e+02    7.810625e-01    9.330759e+07    1.125154e-08    1.976693e-11    1.033941e-08   -2.231529e+00
    8.603949e+00    3.705615e+02    7.484720e-01    9.137803e+07    1.121635e-08    1.911667e-11    1.029324e-08   -2.226529e+00
    8.766676e+00    3.811198e+02    7.166650e-01    8.943737e+07    1.118027e-08    1.848755e-11    1.024590e-08   -2.221529e+00
    8.933661e+00    3.919331e+02    6.856450e-01    8.748565e+07    1.114325e-08    1.787888e-11    1.019736e-08   -2.216529e+00
    9.104968e+00    4.030011e+02    6.554125e-01    8.552309e+07    1.110529e-08    1.728995e-11    1.014759e-08   -2.211529e+00
    9.280636e+00    4.143238e+02    6.259700e-01    8.355003e+07    1.106636e-08    1.672011e-11    1.009656e-08   -2.206529e+00
    9.460682e+00    4.258991e+02    5.973190e-01    8.156683e+07    1.102644e-08    1.616870e-11    1.004427e-08   -2.201529e+00
    9.645120e+00    4.377233e+02    5.694600e-01    7.957389e+07    1.098552e-08    1.563511e-11    9.990670e-09   -2.196529e+00
    9.833931e+00    4.497916e+02    5.423940e-01    7.757170e+07    1.094357e-08    1.511875e-11    9.935750e-09   -2.191529e+00
    1.002710e+01    4.620982e+02    5.161215e-01    7.556103e+07    1.090058e-08    1.461903e-11    9.879480e-09   -2.186529e+00
    1.022456e+01    4.746345e+02    4.906420e-01    7.354260e+07    1.085652e-08    1.413543e-11    9.821840e-09   -2.181529e+00
    1.042625e+01    4.873907e+02    4.659552e-01    7.151724e+07    1.081139e-08    1.366739e-11    9.762805e-09   -2.176529e+00
    1.063206e+01    5.003545e+02    4.420599e-01    6.948610e+07    1.076517e-08    1.321440e-11    9.702355e-09   -2.171529e+00
    1.084186e+01    5.135114e+02    4.189545e-01    6.745029e+07    1.071784e-08    1.277598e-11    9.640465e-09   -2.166529e+00
    1.105550e+01    5.268452e+02    3.966366e-01    6.541117e+07    1.066938e-08    1.235164e-11    9.577125e-09   -2.161529e+00
    1.127276e+01    5.403359e+02    3.751032e-01    6.337028e+07    1.061979e-08    1.194092e-11    9.512310e-09   -2.156529e+00
    1.149343e+01    5.539621e+02    3.543507e-01    6.132920e+07    1.056904e-08    1.154339e-11    9.446005e-09   -2.151529e+00
    1.171722e+01    5.676984e+02    3.343745e-01    5.928980e+07    1.051715e-08    1.115861e-11    9.378195e-09   -2.146529e+00
    1.194382e+01    5.815171e+02    3.151694e-01    5.725409e+07    1.046408e-08    1.078617e-11    9.308860e-09   -2.141529e+00
    1.217287e+01    5.953878e+02    2.967290e-01    5.522428e+07    1.040982e-08    1.042568e-11    9.237995e-09   -2.136529e+00
    1.240397e+01    6.092765e+02    2.790464e-01    5.320263e+07    1.035439e-08    1.007674e-11    9.165585e-09   -2.131529e+00
    1.263668e+01    6.231471e+02    2.621134e-01    5.119169e+07    1.029776e-08    9.738995e-12    9.091620e-09   -2.126529e+00
    1.287049e+01    6.369592e+02    2.459208e-01    4.919412e+07    1.023994e-08    9.412080e-12    9.016095e-09   -2.121529e+00
    1.310487e+01    6.506714e+02    2.304586e-01    4.721270e+07    1.018091e-08    9.095655e-12    8.939005e-09   -2.116529e+00
    1.333923e+01    6.642390e+02    2.157156e-01    4.525038e+07    1.012069e-08    8.789380e-12    8.860345e-09   -2.111529e+00
    1.357295e+01    6.776148e+02    2.016796e-01    4.331012e+07    1.005928e-08    8.492935e-12    8.780120e-09   -2.106529e+00
    1.380536e+01    6.907504e+02    1.883371e-01    4.139508e+07    9.996660e-09    8.206015e-12    8.698325e-09   -2.101529e+00
    1.403576e+01    7.035956e+02    1.756739e-01    3.950836e+07    9.932860e-09    7.928315e-12    8.614970e-09   -2.096529e+00
    1.426342e+01    7.160997e+02    1.636747e-01    3.765315e+07    9.867880e-09    7.659540e-12    8.530060e-09   -2.091529e+00
    1.448759e+01    7.282114e+02    1.523227e-01    3.583258e+07    9.801730e-09    7.399420e-12    8.443605e-09   -2.086529e+00
    1.470749e+01    7.398799e+02    1.416008e-01    3.404978e+07    9.734420e-09    7.147675e-12    8.355615e-09   -2.081529e+00
    1.492235e+01    7.510556e+02    1.314906e-01    3.230776e+07    9.665965e-09    6.904050e-12    8.266115e-09   -2.076529e+00
    1.513141e+01    7.616910e+02    1.219728e-01    3.060940e+07    9.596385e-09    6.668285e-12    8.175115e-09   -2.071529e+00
    1.533389e+01    7.717408e+02    1.130276e-01    2.895744e+07    9.525695e-09    6.440140e-12    8.082640e-09   -2.066529e+00
    1.552906e+01    7.811636e+02    1.046343e-01    2.735439e+07    9.453925e-09    6.219375e-12    7.988720e-09   -2.061529e+00
