# sky130 pfet_01v8 gm/ID Processed Lookup Table
# Corner: tt
# Temperature: 25C
# W = 2.0 um
# L = 1.98 um (1980 nm)
# Columns: gm/id [1/V]  gm/gds [V/V]  id/W [A/m]  ft [Hz]  Cgg/W [F/m]  Cgd/W [F/m]  Cgs/W [F/m]  Vov [V]
#         gm/id          gm/gds            id/W              ft           Cgg/W           Cgd/W           Cgs/W             Vov
    2.028941e+00    4.452391e+00    9.776850e+00    2.584541e+08    1.221533e-08    1.023730e-09    1.106816e-08   -2.815246e+00
    2.050326e+00    4.600634e+00    9.677650e+00    2.589980e+08    1.219317e-08    9.937445e-10    1.106946e-08   -2.810246e+00
    2.071988e+00    4.756774e+00    9.578430e+00    2.595170e+08    1.217127e-08    9.643170e-10    1.107050e-08   -2.805246e+00
    2.093929e+00    4.921314e+00    9.479190e+00    2.600096e+08    1.214966e-08    9.354560e-10    1.107130e-08   -2.800246e+00
    2.116146e+00    5.094783e+00    9.379945e+00    2.604743e+08    1.212834e-08    9.071700e-10    1.107184e-08   -2.795246e+00
    2.138634e+00    5.277739e+00    9.280700e+00    2.609095e+08    1.210731e-08    8.794655e-10    1.107213e-08   -2.790246e+00
    2.161394e+00    5.470778e+00    9.181465e+00    2.613140e+08    1.208658e-08    8.523490e-10    1.107218e-08   -2.785246e+00
    2.184418e+00    5.674525e+00    9.082255e+00    2.616862e+08    1.206615e-08    8.258250e-10    1.107197e-08   -2.780246e+00
    2.207705e+00    5.889640e+00    8.983075e+00    2.620247e+08    1.204603e-08    7.998980e-10    1.107152e-08   -2.775246e+00
    2.231249e+00    6.116813e+00    8.883940e+00    2.623279e+08    1.202623e-08    7.745700e-10    1.107082e-08   -2.770246e+00
    2.255048e+00    6.356775e+00    8.784855e+00    2.625945e+08    1.200674e-08    7.498425e-10    1.106986e-08   -2.765246e+00
    2.279093e+00    6.610283e+00    8.685840e+00    2.628229e+08    1.198756e-08    7.257165e-10    1.106868e-08   -2.760246e+00
    2.303382e+00    6.878135e+00    8.586905e+00    2.630122e+08    1.196869e-08    7.021915e-10    1.106724e-08   -2.755246e+00
    2.327909e+00    7.161157e+00    8.488055e+00    2.631606e+08    1.195015e-08    6.792660e-10    1.106557e-08   -2.750246e+00
    2.352667e+00    7.460209e+00    8.389315e+00    2.632671e+08    1.193192e-08    6.569370e-10    1.106366e-08   -2.745246e+00
    2.377652e+00    7.776181e+00    8.290690e+00    2.633304e+08    1.191401e-08    6.352020e-10    1.106150e-08   -2.740246e+00
    2.402858e+00    8.109993e+00    8.192195e+00    2.633495e+08    1.189642e-08    6.140560e-10    1.105913e-08   -2.735246e+00
    2.428282e+00    8.462595e+00    8.093845e+00    2.633235e+08    1.187913e-08    5.934945e-10    1.105652e-08   -2.730246e+00
    2.453914e+00    8.834958e+00    7.995660e+00    2.632514e+08    1.186215e-08    5.735115e-10    1.105368e-08   -2.725246e+00
    2.479754e+00    9.228074e+00    7.897645e+00    2.631323e+08    1.184547e-08    5.541005e-10    1.105060e-08   -2.720246e+00
    2.505798e+00    9.642964e+00    7.799820e+00    2.629657e+08    1.182910e-08    5.352545e-10    1.104732e-08   -2.715246e+00
    2.532039e+00    1.008065e+01    7.702200e+00    2.627511e+08    1.181302e-08    5.169655e-10    1.104381e-08   -2.710246e+00
    2.558475e+00    1.054219e+01    7.604805e+00    2.624881e+08    1.179723e-08    4.992247e-10    1.104009e-08   -2.705246e+00
    2.585107e+00    1.102864e+01    7.507640e+00    2.621762e+08    1.178173e-08    4.820238e-10    1.103615e-08   -2.700246e+00
    2.611931e+00    1.154105e+01    7.410730e+00    2.618156e+08    1.176650e-08    4.653531e-10    1.103200e-08   -2.695246e+00
    2.638949e+00    1.208050e+01    7.314080e+00    2.614060e+08    1.175156e-08    4.492028e-10    1.102764e-08   -2.690246e+00
    2.666157e+00    1.264805e+01    7.217720e+00    2.609478e+08    1.173687e-08    4.335629e-10    1.102308e-08   -2.685246e+00
    2.693562e+00    1.324476e+01    7.121650e+00    2.604410e+08    1.172245e-08    4.184227e-10    1.101831e-08   -2.680246e+00
    2.721163e+00    1.387169e+01    7.025895e+00    2.598862e+08    1.170828e-08    4.037716e-10    1.101335e-08   -2.675246e+00
    2.748963e+00    1.452989e+01    6.930470e+00    2.592837e+08    1.169436e-08    3.895986e-10    1.100818e-08   -2.670246e+00
    2.776969e+00    1.522038e+01    6.835385e+00    2.586343e+08    1.168068e-08    3.758924e-10    1.100282e-08   -2.665246e+00
    2.805184e+00    1.594419e+01    6.740660e+00    2.579387e+08    1.166722e-08    3.626419e-10    1.099727e-08   -2.660246e+00
    2.833615e+00    1.670231e+01    6.646305e+00    2.571975e+08    1.165398e-08    3.498356e-10    1.099153e-08   -2.655246e+00
    2.862274e+00    1.749574e+01    6.552330e+00    2.564118e+08    1.164097e-08    3.374621e-10    1.098559e-08   -2.650246e+00
    2.891163e+00    1.832542e+01    6.458760e+00    2.555824e+08    1.162815e-08    3.255098e-10    1.097947e-08   -2.645246e+00
    2.920291e+00    1.919230e+01    6.365605e+00    2.547104e+08    1.161554e-08    3.139672e-10    1.097316e-08   -2.640246e+00
    2.949675e+00    2.009730e+01    6.272870e+00    2.537968e+08    1.160311e-08    3.028230e-10    1.096668e-08   -2.635246e+00
    2.979317e+00    2.104132e+01    6.180580e+00    2.528427e+08    1.159086e-08    2.920655e-10    1.096000e-08   -2.630246e+00
    3.009238e+00    2.202522e+01    6.088735e+00    2.518494e+08    1.157878e-08    2.816838e-10    1.095315e-08   -2.625246e+00
    3.039442e+00    2.304986e+01    5.997360e+00    2.508179e+08    1.156686e-08    2.716664e-10    1.094611e-08   -2.620246e+00
    3.069947e+00    2.411608e+01    5.906455e+00    2.497494e+08    1.155510e-08    2.620022e-10    1.093890e-08   -2.615246e+00
    3.100766e+00    2.522467e+01    5.816035e+00    2.486449e+08    1.154348e-08    2.526804e-10    1.093150e-08   -2.610246e+00
    3.131911e+00    2.637646e+01    5.726115e+00    2.475058e+08    1.153199e-08    2.436902e-10    1.092392e-08   -2.605246e+00
    3.163398e+00    2.757223e+01    5.636705e+00    2.463332e+08    1.152063e-08    2.350209e-10    1.091617e-08   -2.600246e+00
    3.195243e+00    2.881271e+01    5.547810e+00    2.451283e+08    1.150939e-08    2.266623e-10    1.090824e-08   -2.595246e+00
    3.227463e+00    3.009870e+01    5.459440e+00    2.438921e+08    1.149825e-08    2.186040e-10    1.090012e-08   -2.590246e+00
    3.260071e+00    3.143092e+01    5.371610e+00    2.426258e+08    1.148721e-08    2.108361e-10    1.089182e-08   -2.585246e+00
    3.293087e+00    3.281016e+01    5.284325e+00    2.413304e+08    1.147627e-08    2.033488e-10    1.088335e-08   -2.580246e+00
    3.326526e+00    3.423712e+01    5.197595e+00    2.400071e+08    1.146541e-08    1.961327e-10    1.087470e-08   -2.575246e+00
    3.360405e+00    3.571257e+01    5.111430e+00    2.386568e+08    1.145461e-08    1.891783e-10    1.086586e-08   -2.570246e+00
    3.394744e+00    3.723724e+01    5.025835e+00    2.372805e+08    1.144388e-08    1.824766e-10    1.085683e-08   -2.565246e+00
    3.429563e+00    3.881189e+01    4.940817e+00    2.358792e+08    1.143321e-08    1.760189e-10    1.084762e-08   -2.560246e+00
    3.464877e+00    4.043730e+01    4.856387e+00    2.344539e+08    1.142257e-08    1.697964e-10    1.083822e-08   -2.555246e+00
    3.500707e+00    4.211423e+01    4.772551e+00    2.330053e+08    1.141198e-08    1.638008e-10    1.082862e-08   -2.550246e+00
    3.537074e+00    4.384349e+01    4.689316e+00    2.315343e+08    1.140141e-08    1.580240e-10    1.081883e-08   -2.545246e+00
    3.573996e+00    4.562587e+01    4.606689e+00    2.300417e+08    1.139086e-08    1.524583e-10    1.080885e-08   -2.540246e+00
    3.611497e+00    4.746224e+01    4.524675e+00    2.285285e+08    1.138032e-08    1.470958e-10    1.079867e-08   -2.535246e+00
    3.649595e+00    4.935344e+01    4.443283e+00    2.269951e+08    1.136979e-08    1.419293e-10    1.078829e-08   -2.530246e+00
    3.688312e+00    5.130035e+01    4.362516e+00    2.254425e+08    1.135924e-08    1.369515e-10    1.077769e-08   -2.525246e+00
    3.727673e+00    5.330392e+01    4.282381e+00    2.238712e+08    1.134867e-08    1.321556e-10    1.076690e-08   -2.520246e+00
    3.767698e+00    5.536509e+01    4.202885e+00    2.222819e+08    1.133808e-08    1.275347e-10    1.075588e-08   -2.515246e+00
    3.808412e+00    5.748486e+01    4.124031e+00    2.206753e+08    1.132746e-08    1.230826e-10    1.074465e-08   -2.510246e+00
    3.849839e+00    5.966425e+01    4.045826e+00    2.190518e+08    1.131679e-08    1.187928e-10    1.073320e-08   -2.505246e+00
    3.892003e+00    6.190433e+01    3.968275e+00    2.174120e+08    1.130606e-08    1.146593e-10    1.072151e-08   -2.500246e+00
    3.934930e+00    6.420625e+01    3.891382e+00    2.157565e+08    1.129528e-08    1.106764e-10    1.070959e-08   -2.495246e+00
    3.978645e+00    6.657118e+01    3.815153e+00    2.140858e+08    1.128443e-08    1.068384e-10    1.069744e-08   -2.490246e+00
    4.023176e+00    6.900032e+01    3.739593e+00    2.124003e+08    1.127349e-08    1.031398e-10    1.068504e-08   -2.485246e+00
    4.068552e+00    7.149497e+01    3.664705e+00    2.107005e+08    1.126247e-08    9.957535e-11    1.067239e-08   -2.480246e+00
    4.114798e+00    7.405643e+01    3.590494e+00    2.089866e+08    1.125134e-08    9.614010e-11    1.065949e-08   -2.475246e+00
    4.161948e+00    7.668616e+01    3.516964e+00    2.072594e+08    1.124011e-08    9.282915e-11    1.064632e-08   -2.470246e+00
    4.210027e+00    7.938554e+01    3.444121e+00    2.055189e+08    1.122876e-08    8.963780e-11    1.063288e-08   -2.465246e+00
    4.259070e+00    8.215612e+01    3.371967e+00    2.037656e+08    1.121728e-08    8.656155e-11    1.061917e-08   -2.460246e+00
    4.309109e+00    8.499951e+01    3.300508e+00    2.019998e+08    1.120566e-08    8.359605e-11    1.060516e-08   -2.455246e+00
    4.360176e+00    8.791736e+01    3.229746e+00    2.002218e+08    1.119390e-08    8.073710e-11    1.059087e-08   -2.450246e+00
    4.412307e+00    9.091144e+01    3.159686e+00    1.984318e+08    1.118198e-08    7.798070e-11    1.057627e-08   -2.445246e+00
    4.465536e+00    9.398349e+01    3.090332e+00    1.966302e+08    1.116988e-08    7.532300e-11    1.056137e-08   -2.440246e+00
    4.519902e+00    9.713545e+01    3.021688e+00    1.948171e+08    1.115762e-08    7.276025e-11    1.054615e-08   -2.435246e+00
    4.575442e+00    1.003693e+02    2.953756e+00    1.929929e+08    1.114516e-08    7.028885e-11    1.053060e-08   -2.430246e+00
    4.632194e+00    1.036871e+02    2.886542e+00    1.911575e+08    1.113252e-08    6.790540e-11    1.051471e-08   -2.425246e+00
    4.690202e+00    1.070910e+02    2.820047e+00    1.893114e+08    1.111966e-08    6.560655e-11    1.049847e-08   -2.420246e+00
    4.749507e+00    1.105833e+02    2.754277e+00    1.874547e+08    1.110657e-08    6.338910e-11    1.048187e-08   -2.415246e+00
    4.810151e+00    1.141662e+02    2.689234e+00    1.855873e+08    1.109326e-08    6.125005e-11    1.046491e-08   -2.410246e+00
    4.872182e+00    1.178422e+02    2.624922e+00    1.837096e+08    1.107971e-08    5.918640e-11    1.044757e-08   -2.405246e+00
    4.935643e+00    1.216139e+02    2.561344e+00    1.818215e+08    1.106589e-08    5.719530e-11    1.042983e-08   -2.400246e+00
    5.000588e+00    1.254839e+02    2.498504e+00    1.799233e+08    1.105182e-08    5.527415e-11    1.041169e-08   -2.395246e+00
    5.067064e+00    1.294549e+02    2.436405e+00    1.780149e+08    1.103747e-08    5.342020e-11    1.039313e-08   -2.390246e+00
    5.135123e+00    1.335298e+02    2.375051e+00    1.760966e+08    1.102282e-08    5.163100e-11    1.037416e-08   -2.385246e+00
    5.204819e+00    1.377115e+02    2.314445e+00    1.741682e+08    1.100788e-08    4.990416e-11    1.035473e-08   -2.380246e+00
    5.276212e+00    1.420033e+02    2.254589e+00    1.722298e+08    1.099263e-08    4.823733e-11    1.033485e-08   -2.375246e+00
    5.349352e+00    1.464081e+02    2.195489e+00    1.702815e+08    1.097704e-08    4.662828e-11    1.031451e-08   -2.370246e+00
    5.424304e+00    1.509294e+02    2.137146e+00    1.683231e+08    1.096111e-08    4.507488e-11    1.029368e-08   -2.365246e+00
    5.501130e+00    1.555706e+02    2.079565e+00    1.663548e+08    1.094483e-08    4.357507e-11    1.027235e-08   -2.360246e+00
    5.579891e+00    1.603352e+02    2.022748e+00    1.643765e+08    1.092818e-08    4.212688e-11    1.025050e-08   -2.355246e+00
    5.660654e+00    1.652269e+02    1.966698e+00    1.623880e+08    1.091115e-08    4.072840e-11    1.022814e-08   -2.350246e+00
    5.743490e+00    1.702496e+02    1.911420e+00    1.603895e+08    1.089372e-08    3.937781e-11    1.020522e-08   -2.345246e+00
    5.828466e+00    1.754071e+02    1.856917e+00    1.583807e+08    1.087589e-08    3.807335e-11    1.018174e-08   -2.340246e+00
    5.915657e+00    1.807037e+02    1.803192e+00    1.563616e+08    1.085763e-08    3.681335e-11    1.015768e-08   -2.335246e+00
    6.005135e+00    1.861432e+02    1.750248e+00    1.543322e+08    1.083892e-08    3.559617e-11    1.013304e-08   -2.330246e+00
    6.096979e+00    1.917302e+02    1.698089e+00    1.522921e+08    1.081976e-08    3.442027e-11    1.010777e-08   -2.325246e+00
    6.191267e+00    1.974688e+02    1.646717e+00    1.502413e+08    1.080014e-08    3.328416e-11    1.008188e-08   -2.320246e+00
    6.288085e+00    2.033638e+02    1.596137e+00    1.481798e+08    1.078002e-08    3.218639e-11    1.005533e-08   -2.315246e+00
    6.387510e+00    2.094196e+02    1.546352e+00    1.461072e+08    1.075941e-08    3.112557e-11    1.002811e-08   -2.310246e+00
    6.489632e+00    2.156412e+02    1.497364e+00    1.440235e+08    1.073827e-08    3.010039e-11    1.000020e-08   -2.305246e+00
    6.594537e+00    2.220331e+02    1.449179e+00    1.419285e+08    1.071660e-08    2.910957e-11    9.971595e-09   -2.300246e+00
    6.702316e+00    2.286004e+02    1.401799e+00    1.398220e+08    1.069437e-08    2.815188e-11    9.942250e-09   -2.295246e+00
    6.813055e+00    2.353478e+02    1.355228e+00    1.377037e+08    1.067158e-08    2.722614e-11    9.912155e-09   -2.290246e+00
    6.926855e+00    2.422805e+02    1.309468e+00    1.355735e+08    1.064820e-08    2.633122e-11    9.881290e-09   -2.285246e+00
    7.043803e+00    2.494033e+02    1.264524e+00    1.334313e+08    1.062421e-08    2.546602e-11    9.849635e-09   -2.280246e+00
    7.163996e+00    2.567215e+02    1.220399e+00    1.312766e+08    1.059961e-08    2.462950e-11    9.817160e-09   -2.275246e+00
    7.287535e+00    2.642400e+02    1.177095e+00    1.291096e+08    1.057435e-08    2.382066e-11    9.783850e-09   -2.270246e+00
    7.414505e+00    2.719634e+02    1.134619e+00    1.269298e+08    1.054845e-08    2.303851e-11    9.749685e-09   -2.265246e+00
    7.545015e+00    2.798969e+02    1.092970e+00    1.247371e+08    1.052186e-08    2.228213e-11    9.714635e-09   -2.260246e+00
    7.679153e+00    2.880454e+02    1.052155e+00    1.225315e+08    1.049458e-08    2.155062e-11    9.678680e-09   -2.255246e+00
    7.817012e+00    2.964129e+02    1.012175e+00    1.203125e+08    1.046660e-08    2.084312e-11    9.641795e-09   -2.250246e+00
    7.958684e+00    3.050041e+02    9.730340e-01    1.180803e+08    1.043787e-08    2.015879e-11    9.603965e-09   -2.245246e+00
    8.104265e+00    3.138228e+02    9.347350e-01    1.158347e+08    1.040840e-08    1.949683e-11    9.565155e-09   -2.240246e+00
    8.253837e+00    3.228730e+02    8.972815e-01    1.135756e+08    1.037815e-08    1.885649e-11    9.525345e-09   -2.235246e+00
    8.407479e+00    3.321576e+02    8.606760e-01    1.113029e+08    1.034711e-08    1.823702e-11    9.484515e-09   -2.230246e+00
    8.565275e+00    3.416797e+02    8.249210e-01    1.090168e+08    1.031527e-08    1.763770e-11    9.442640e-09   -2.225246e+00
    8.727285e+00    3.514414e+02    7.900200e-01    1.067173e+08    1.028260e-08    1.705786e-11    9.399695e-09   -2.220246e+00
    8.893580e+00    3.614441e+02    7.559745e-01    1.044045e+08    1.024908e-08    1.649682e-11    9.355655e-09   -2.215246e+00
    9.064206e+00    3.716887e+02    7.227875e-01    1.020786e+08    1.021471e-08    1.595396e-11    9.310495e-09   -2.210246e+00
    9.239203e+00    3.821750e+02    6.904605e-01    9.974001e+07    1.017944e-08    1.542866e-11    9.264195e-09   -2.205246e+00
    9.418607e+00    3.929017e+02    6.589950e-01    9.738909e+07    1.014329e-08    1.492033e-11    9.216735e-09   -2.200246e+00
    9.602422e+00    4.038663e+02    6.283925e-01    9.502630e+07    1.010621e-08    1.442841e-11    9.168085e-09   -2.195246e+00
    9.790647e+00    4.150658e+02    5.986545e-01    9.265229e+07    1.006820e-08    1.395235e-11    9.118225e-09   -2.190246e+00
    9.983274e+00    4.264949e+02    5.697805e-01    9.026781e+07    1.002924e-08    1.349162e-11    9.067135e-09   -2.185246e+00
    1.018023e+01    4.381464e+02    5.417715e-01    8.787366e+07    9.989305e-09    1.304571e-11    9.014795e-09   -2.180246e+00
    1.038148e+01    4.500126e+02    5.146265e-01    8.547100e+07    9.948390e-09    1.261413e-11    8.961180e-09   -2.175246e+00
    1.058691e+01    4.620831e+02    4.883453e-01    8.306093e+07    9.906480e-09    1.219642e-11    8.906270e-09   -2.170246e+00
    1.079640e+01    4.743458e+02    4.629255e-01    8.064489e+07    9.863555e-09    1.179213e-11    8.850045e-09   -2.165246e+00
    1.100981e+01    4.867855e+02    4.383651e-01    7.822432e+07    9.819605e-09    1.140079e-11    8.792490e-09   -2.160246e+00
    1.122693e+01    4.993859e+02    4.146612e-01    7.580096e+07    9.774620e-09    1.102201e-11    8.733590e-09   -2.155246e+00
    1.144756e+01    5.121275e+02    3.918100e-01    7.337682e+07    9.728580e-09    1.065536e-11    8.673325e-09   -2.150246e+00
    1.167141e+01    5.249883e+02    3.698069e-01    7.095401e+07    9.681475e-09    1.030046e-11    8.611675e-09   -2.145246e+00
    1.189820e+01    5.379436e+02    3.486463e-01    6.853479e+07    9.633305e-09    9.956925e-12    8.548635e-09   -2.140246e+00
    1.212757e+01    5.509661e+02    3.283219e-01    6.612180e+07    9.584050e-09    9.624395e-12    8.484190e-09   -2.135246e+00
    1.235913e+01    5.640255e+02    3.088262e-01    6.371771e+07    9.533710e-09    9.302515e-12    8.418330e-09   -2.130246e+00
    1.259244e+01    5.770883e+02    2.901507e-01    6.132546e+07    9.482280e-09    8.990940e-12    8.351040e-09   -2.125246e+00
    1.282702e+01    5.901192e+02    2.722857e-01    5.894821e+07    9.429750e-09    8.689345e-12    8.282320e-09   -2.120246e+00
    1.306234e+01    6.030802e+02    2.552207e-01    5.658923e+07    9.376120e-09    8.397410e-12    8.212160e-09   -2.115246e+00
    1.329781e+01    6.159289e+02    2.389438e-01    5.425195e+07    9.321390e-09    8.114825e-12    8.140560e-09   -2.110246e+00
    1.353283e+01    6.286239e+02    2.234419e-01    5.193997e+07    9.265560e-09    7.841305e-12    8.067515e-09   -2.105246e+00
    1.376673e+01    6.411191e+02    2.087008e-01    4.965695e+07    9.208630e-09    7.576555e-12    7.993030e-09   -2.100246e+00
    1.399881e+01    6.533685e+02    1.947053e-01    4.740662e+07    9.150610e-09    7.320305e-12    7.917105e-09   -2.095246e+00
    1.422834e+01    6.653243e+02    1.814388e-01    4.519277e+07    9.091500e-09    7.072280e-12    7.839750e-09   -2.090246e+00
    1.445458e+01    6.769385e+02    1.688836e-01    4.301919e+07    9.031310e-09    6.832225e-12    7.760970e-09   -2.085246e+00
    1.467675e+01    6.881632e+02    1.570209e-01    4.088957e+07    8.970055e-09    6.599895e-12    7.680780e-09   -2.080246e+00
    1.489407e+01    6.989512e+02    1.458312e-01    3.880758e+07    8.907740e-09    6.375045e-12    7.599185e-09   -2.075246e+00
    1.510575e+01    7.092564e+02    1.352937e-01    3.677665e+07    8.844390e-09    6.157445e-12    7.516210e-09   -2.070246e+00
    1.531103e+01    7.190354e+02    1.253868e-01    3.480016e+07    8.780010e-09    5.946865e-12    7.431870e-09   -2.065246e+00
    1.550916e+01    7.282477e+02    1.160881e-01    3.288115e+07    8.714630e-09    5.743085e-12    7.346190e-09   -2.060246e+00
