# sky130 pfet_01v8 gm/ID Processed Lookup Table
# Corner: tt
# Temperature: 25C
# W = 2.0 um
# L = 3.42 um (3420 nm)
# Columns: gm/id [1/V]  gm/gds [V/V]  id/W [A/m]  ft [Hz]  Cgg/W [F/m]  Cgd/W [F/m]  Cgs/W [F/m]  Vov [V]
#         gm/id          gm/gds            id/W              ft           Cgg/W           Cgd/W           Cgs/W             Vov
    2.100766e+00    5.189715e+00    5.657155e+00    9.021611e+07    2.096582e-08    1.775781e-09    1.925071e-08   -2.821454e+00
    2.122809e+00    5.383049e+00    5.597735e+00    9.037521e+07    2.092638e-08    1.723311e-09    1.925257e-08   -2.816454e+00
    2.145114e+00    5.587703e+00    5.538330e+00    9.052422e+07    2.088741e-08    1.671819e-09    1.925398e-08   -2.811454e+00
    2.167681e+00    5.804448e+00    5.478935e+00    9.066251e+07    2.084894e-08    1.621324e-09    1.925495e-08   -2.806454e+00
    2.190503e+00    6.034116e+00    5.419565e+00    9.078954e+07    2.081099e-08    1.571840e-09    1.925549e-08   -2.801454e+00
    2.213578e+00    6.277591e+00    5.360220e+00    9.090483e+07    2.077354e-08    1.523379e-09    1.925559e-08   -2.796454e+00
    2.236896e+00    6.535809e+00    5.300915e+00    9.100775e+07    2.073664e-08    1.475954e-09    1.925525e-08   -2.791454e+00
    2.260454e+00    6.809764e+00    5.241650e+00    9.109779e+07    2.070027e-08    1.429573e-09    1.925447e-08   -2.786454e+00
    2.284249e+00    7.100514e+00    5.182430e+00    9.117447e+07    2.066444e-08    1.384243e-09    1.925325e-08   -2.781454e+00
    2.308270e+00    7.409174e+00    5.123270e+00    9.123726e+07    2.062917e-08    1.339969e-09    1.925160e-08   -2.776454e+00
    2.332511e+00    7.736914e+00    5.064175e+00    9.128562e+07    2.059445e-08    1.296755e-09    1.924952e-08   -2.771454e+00
    2.356968e+00    8.084974e+00    5.005150e+00    9.131912e+07    2.056029e-08    1.254600e-09    1.924701e-08   -2.766454e+00
    2.381632e+00    8.454659e+00    4.946209e+00    9.133734e+07    2.052669e-08    1.213505e-09    1.924407e-08   -2.761454e+00
    2.406497e+00    8.847316e+00    4.887354e+00    9.133979e+07    2.049365e-08    1.173468e-09    1.924071e-08   -2.756454e+00
    2.431558e+00    9.264382e+00    4.828597e+00    9.132618e+07    2.046117e-08    1.134483e-09    1.923693e-08   -2.751454e+00
    2.456806e+00    9.707318e+00    4.769947e+00    9.129608e+07    2.042925e-08    1.096545e-09    1.923274e-08   -2.746454e+00
    2.482238e+00    1.017768e+01    4.711412e+00    9.124931e+07    2.039788e-08    1.059647e-09    1.922813e-08   -2.741454e+00
    2.507847e+00    1.067705e+01    4.653002e+00    9.118554e+07    2.036706e-08    1.023780e-09    1.922312e-08   -2.736454e+00
    2.533628e+00    1.120707e+01    4.594725e+00    9.110459e+07    2.033678e-08    9.889325e-10    1.921770e-08   -2.731454e+00
    2.559579e+00    1.176944e+01    4.536592e+00    9.100632e+07    2.030705e-08    9.550940e-10    1.921189e-08   -2.726454e+00
    2.585696e+00    1.236589e+01    4.478611e+00    9.089062e+07    2.027785e-08    9.222515e-10    1.920569e-08   -2.721454e+00
    2.611976e+00    1.299820e+01    4.420791e+00    9.075743e+07    2.024917e-08    8.903910e-10    1.919909e-08   -2.716454e+00
    2.638419e+00    1.366816e+01    4.363143e+00    9.060681e+07    2.022100e-08    8.594970e-10    1.919212e-08   -2.711454e+00
    2.665024e+00    1.437765e+01    4.305677e+00    9.043877e+07    2.019333e-08    8.295540e-10    1.918477e-08   -2.706454e+00
    2.691793e+00    1.512849e+01    4.248400e+00    9.025346e+07    2.016616e-08    8.005450e-10    1.917704e-08   -2.701454e+00
    2.718726e+00    1.592259e+01    4.191321e+00    9.005100e+07    2.013947e-08    7.724530e-10    1.916895e-08   -2.696454e+00
    2.745828e+00    1.676183e+01    4.134452e+00    8.983164e+07    2.011324e-08    7.452590e-10    1.916049e-08   -2.691454e+00
    2.773102e+00    1.764809e+01    4.077800e+00    8.959553e+07    2.008749e-08    7.189450e-10    1.915167e-08   -2.686454e+00
    2.800554e+00    1.858329e+01    4.021374e+00    8.934304e+07    2.006217e-08    6.934910e-10    1.914250e-08   -2.681454e+00
    2.828191e+00    1.956931e+01    3.965182e+00    8.907447e+07    2.003728e-08    6.688785e-10    1.913298e-08   -2.676454e+00
    2.856018e+00    2.060802e+01    3.909233e+00    8.879015e+07    2.001280e-08    6.450865e-10    1.912310e-08   -2.671454e+00
    2.884046e+00    2.170131e+01    3.853536e+00    8.849050e+07    1.998873e-08    6.220950e-10    1.911289e-08   -2.666454e+00
    2.912284e+00    2.285102e+01    3.798098e+00    8.817589e+07    1.996504e-08    5.998840e-10    1.910233e-08   -2.661454e+00
    2.940741e+00    2.405894e+01    3.742927e+00    8.784673e+07    1.994173e-08    5.784330e-10    1.909144e-08   -2.656454e+00
    2.969429e+00    2.532688e+01    3.688031e+00    8.750343e+07    1.991877e-08    5.577215e-10    1.908021e-08   -2.651454e+00
    2.998360e+00    2.665660e+01    3.633416e+00    8.714651e+07    1.989615e-08    5.377290e-10    1.906865e-08   -2.646454e+00
    3.027548e+00    2.804982e+01    3.579090e+00    8.677637e+07    1.987386e-08    5.184345e-10    1.905677e-08   -2.641454e+00
    3.057004e+00    2.950824e+01    3.525060e+00    8.639349e+07    1.985188e-08    4.998184e-10    1.904455e-08   -2.636454e+00
    3.086744e+00    3.103353e+01    3.471331e+00    8.599833e+07    1.983019e-08    4.818602e-10    1.903201e-08   -2.631454e+00
    3.116780e+00    3.262726e+01    3.417911e+00    8.559127e+07    1.980877e-08    4.645401e-10    1.901914e-08   -2.626454e+00
    3.147130e+00    3.429105e+01    3.364804e+00    8.517281e+07    1.978762e-08    4.478384e-10    1.900595e-08   -2.621454e+00
    3.177808e+00    3.602645e+01    3.312018e+00    8.474342e+07    1.976671e-08    4.317356e-10    1.899244e-08   -2.616454e+00
    3.208831e+00    3.783498e+01    3.259556e+00    8.430351e+07    1.974603e-08    4.162125e-10    1.897860e-08   -2.611454e+00
    3.240214e+00    3.971809e+01    3.207426e+00    8.385347e+07    1.972556e-08    4.012504e-10    1.896443e-08   -2.606454e+00
    3.271974e+00    4.167726e+01    3.155631e+00    8.339372e+07    1.970528e-08    3.868308e-10    1.894995e-08   -2.601454e+00
    3.304130e+00    4.371391e+01    3.104176e+00    8.292473e+07    1.968518e-08    3.729357e-10    1.893514e-08   -2.596454e+00
    3.336697e+00    4.582944e+01    3.053066e+00    8.244674e+07    1.966525e-08    3.595473e-10    1.892000e-08   -2.591454e+00
    3.369695e+00    4.802524e+01    3.002306e+00    8.196026e+07    1.964547e-08    3.466484e-10    1.890453e-08   -2.586454e+00
    3.403142e+00    5.030267e+01    2.951899e+00    8.146558e+07    1.962581e-08    3.342220e-10    1.888873e-08   -2.581454e+00
    3.437056e+00    5.266310e+01    2.901850e+00    8.096306e+07    1.960626e-08    3.222517e-10    1.887259e-08   -2.576454e+00
    3.471456e+00    5.510786e+01    2.852162e+00    8.045301e+07    1.958681e-08    3.107215e-10    1.885613e-08   -2.571454e+00
    3.506362e+00    5.763833e+01    2.802839e+00    7.993576e+07    1.956744e-08    2.996158e-10    1.883931e-08   -2.566454e+00
    3.541792e+00    6.025580e+01    2.753885e+00    7.941156e+07    1.954814e-08    2.889194e-10    1.882216e-08   -2.561454e+00
    3.577769e+00    6.296165e+01    2.705304e+00    7.888075e+07    1.952888e-08    2.786175e-10    1.880465e-08   -2.556454e+00
    3.614311e+00    6.575728e+01    2.657097e+00    7.834359e+07    1.950965e-08    2.686959e-10    1.878678e-08   -2.551454e+00
    3.651440e+00    6.864406e+01    2.609269e+00    7.780033e+07    1.949045e-08    2.591406e-10    1.876857e-08   -2.546454e+00
    3.689177e+00    7.162334e+01    2.561822e+00    7.725117e+07    1.947124e-08    2.499385e-10    1.874998e-08   -2.541454e+00
    3.727543e+00    7.469661e+01    2.514760e+00    7.669637e+07    1.945201e-08    2.410762e-10    1.873102e-08   -2.536454e+00
    3.766563e+00    7.786531e+01    2.468084e+00    7.613618e+07    1.943275e-08    2.325413e-10    1.871168e-08   -2.531454e+00
    3.806258e+00    8.113092e+01    2.421798e+00    7.557077e+07    1.941344e-08    2.243215e-10    1.869195e-08   -2.526454e+00
    3.846652e+00    8.449505e+01    2.375905e+00    7.500035e+07    1.939407e-08    2.164052e-10    1.867184e-08   -2.521454e+00
    3.887768e+00    8.795921e+01    2.330407e+00    7.442506e+07    1.937461e-08    2.087809e-10    1.865132e-08   -2.516454e+00
    3.929633e+00    9.152505e+01    2.285305e+00    7.384513e+07    1.935506e-08    2.014378e-10    1.863038e-08   -2.511454e+00
    3.972269e+00    9.519428e+01    2.240604e+00    7.326069e+07    1.933539e-08    1.943650e-10    1.860903e-08   -2.506454e+00
    4.015705e+00    9.896865e+01    2.196303e+00    7.267189e+07    1.931558e-08    1.875525e-10    1.858725e-08   -2.501454e+00
    4.059966e+00    1.028500e+02    2.152407e+00    7.207887e+07    1.929563e-08    1.809905e-10    1.856502e-08   -2.496454e+00
    4.105081e+00    1.068402e+02    2.108917e+00    7.148178e+07    1.927552e-08    1.746692e-10    1.854235e-08   -2.491454e+00
    4.151079e+00    1.109413e+02    2.065835e+00    7.088075e+07    1.925522e-08    1.685797e-10    1.851922e-08   -2.486454e+00
    4.197988e+00    1.151551e+02    2.023163e+00    7.027588e+07    1.923472e-08    1.627132e-10    1.849560e-08   -2.481454e+00
    4.245838e+00    1.194840e+02    1.980903e+00    6.966728e+07    1.921401e-08    1.570610e-10    1.847150e-08   -2.476454e+00
    4.294661e+00    1.239302e+02    1.939058e+00    6.905504e+07    1.919306e-08    1.516150e-10    1.844691e-08   -2.471454e+00
    4.344487e+00    1.284957e+02    1.897628e+00    6.843925e+07    1.917187e-08    1.463675e-10    1.842180e-08   -2.466454e+00
    4.395354e+00    1.331834e+02    1.856616e+00    6.782006e+07    1.915040e-08    1.413107e-10    1.839617e-08   -2.461454e+00
    4.447290e+00    1.379954e+02    1.816024e+00    6.719744e+07    1.912866e-08    1.364375e-10    1.836999e-08   -2.456454e+00
    4.500336e+00    1.429344e+02    1.775853e+00    6.657155e+07    1.910660e-08    1.317407e-10    1.834325e-08   -2.451454e+00
    4.554529e+00    1.480032e+02    1.736105e+00    6.594246e+07    1.908422e-08    1.272137e-10    1.831594e-08   -2.446454e+00
    4.609900e+00    1.532047e+02    1.696782e+00    6.531014e+07    1.906150e-08    1.228500e-10    1.828804e-08   -2.441454e+00
    4.666495e+00    1.585418e+02    1.657886e+00    6.467473e+07    1.903842e-08    1.186433e-10    1.825954e-08   -2.436454e+00
    4.724353e+00    1.640175e+02    1.619418e+00    6.403625e+07    1.901496e-08    1.145877e-10    1.823041e-08   -2.431454e+00
    4.783515e+00    1.696351e+02    1.581379e+00    6.339472e+07    1.899110e-08    1.106774e-10    1.820064e-08   -2.426454e+00
    4.844023e+00    1.753979e+02    1.543772e+00    6.275020e+07    1.896682e-08    1.069070e-10    1.817021e-08   -2.421454e+00
    4.905927e+00    1.813094e+02    1.506599e+00    6.210273e+07    1.894210e-08    1.032709e-10    1.813910e-08   -2.416454e+00
    4.969271e+00    1.873732e+02    1.469861e+00    6.145233e+07    1.891693e-08    9.976430e-11    1.810729e-08   -2.411454e+00
    5.034100e+00    1.935929e+02    1.433558e+00    6.079897e+07    1.889127e-08    9.638210e-11    1.807475e-08   -2.406454e+00
    5.100469e+00    1.999727e+02    1.397694e+00    6.014273e+07    1.886511e-08    9.311970e-11    1.804147e-08   -2.401454e+00
    5.168425e+00    2.065163e+02    1.362270e+00    5.948357e+07    1.883842e-08    8.997255e-11    1.800743e-08   -2.396454e+00
    5.238023e+00    2.132279e+02    1.327287e+00    5.882149e+07    1.881120e-08    8.693630e-11    1.797259e-08   -2.391454e+00
    5.309324e+00    2.201122e+02    1.292747e+00    5.815655e+07    1.878340e-08    8.400675e-11    1.793695e-08   -2.386454e+00
    5.382378e+00    2.271733e+02    1.258651e+00    5.748868e+07    1.875501e-08    8.117995e-11    1.790046e-08   -2.381454e+00
    5.457240e+00    2.344158e+02    1.225002e+00    5.681784e+07    1.872601e-08    7.845195e-11    1.786311e-08   -2.376454e+00
    5.533984e+00    2.418447e+02    1.191801e+00    5.614412e+07    1.869637e-08    7.581915e-11    1.782489e-08   -2.371454e+00
    5.612664e+00    2.494649e+02    1.159049e+00    5.546741e+07    1.866607e-08    7.327800e-11    1.778573e-08   -2.366454e+00
    5.693352e+00    2.572814e+02    1.126748e+00    5.478774e+07    1.863509e-08    7.082500e-11    1.774564e-08   -2.361454e+00
    5.776105e+00    2.652994e+02    1.094900e+00    5.410500e+07    1.860339e-08    6.845695e-11    1.770459e-08   -2.356454e+00
    5.860999e+00    2.735241e+02    1.063505e+00    5.341918e+07    1.857096e-08    6.617070e-11    1.766253e-08   -2.351454e+00
    5.948107e+00    2.819613e+02    1.032568e+00    5.273029e+07    1.853777e-08    6.396320e-11    1.761945e-08   -2.346454e+00
    6.037499e+00    2.906164e+02    1.002088e+00    5.203822e+07    1.850379e-08    6.183155e-11    1.757530e-08   -2.341454e+00
    6.129250e+00    2.994952e+02    9.720675e-01    5.134296e+07    1.846898e-08    5.977295e-11    1.753007e-08   -2.336454e+00
    6.223443e+00    3.086036e+02    9.425080e-01    5.064442e+07    1.843335e-08    5.778480e-11    1.748371e-08   -2.331454e+00
    6.320153e+00    3.179474e+02    9.134115e-01    4.994258e+07    1.839684e-08    5.586440e-11    1.743621e-08   -2.326454e+00
    6.419464e+00    3.275329e+02    8.847795e-01    4.923735e+07    1.835944e-08    5.400940e-11    1.738752e-08   -2.321454e+00
    6.521455e+00    3.373657e+02    8.566140e-01    4.852866e+07    1.832110e-08    5.221735e-11    1.733761e-08   -2.316454e+00
    6.626216e+00    3.474522e+02    8.289165e-01    4.781644e+07    1.828182e-08    5.048600e-11    1.728644e-08   -2.311454e+00
    6.733831e+00    3.577983e+02    8.016885e-01    4.710061e+07    1.824154e-08    4.881315e-11    1.723399e-08   -2.306454e+00
    6.844390e+00    3.684104e+02    7.749325e-01    4.638112e+07    1.820025e-08    4.719669e-11    1.718021e-08   -2.301454e+00
    6.957984e+00    3.792947e+02    7.486500e-01    4.565793e+07    1.815793e-08    4.563459e-11    1.712507e-08   -2.296454e+00
    7.074702e+00    3.904567e+02    7.228425e-01    4.493090e+07    1.811452e-08    4.412491e-11    1.706853e-08   -2.291454e+00
    7.194641e+00    4.019026e+02    6.975115e-01    4.419999e+07    1.807002e-08    4.266579e-11    1.701056e-08   -2.286454e+00
    7.317879e+00    4.136375e+02    6.726595e-01    4.346510e+07    1.802437e-08    4.125541e-11    1.695111e-08   -2.281454e+00
    7.444524e+00    4.256674e+02    6.482875e-01    4.272618e+07    1.797756e-08    3.989207e-11    1.689016e-08   -2.276454e+00
    7.574655e+00    4.379973e+02    6.243980e-01    4.198318e+07    1.792954e-08    3.857409e-11    1.682765e-08   -2.271454e+00
    7.708365e+00    4.506317e+02    6.009925e-01    4.123601e+07    1.788030e-08    3.729987e-11    1.676356e-08   -2.266454e+00
    7.845751e+00    4.635750e+02    5.780720e-01    4.048464e+07    1.782980e-08    3.606788e-11    1.669783e-08   -2.261454e+00
    7.986895e+00    4.768311e+02    5.556385e-01    3.972900e+07    1.777800e-08    3.487665e-11    1.663044e-08   -2.256454e+00
    8.131875e+00    4.904026e+02    5.336940e-01    3.896908e+07    1.772487e-08    3.372474e-11    1.656133e-08   -2.251454e+00
    8.280771e+00    5.042924e+02    5.122400e-01    3.820483e+07    1.767039e-08    3.261080e-11    1.649049e-08   -2.246454e+00
    8.433668e+00    5.185020e+02    4.912773e-01    3.743627e+07    1.761452e-08    3.153351e-11    1.641785e-08   -2.241454e+00
    8.590625e+00    5.330313e+02    4.708077e-01    3.666339e+07    1.755722e-08    3.049160e-11    1.634339e-08   -2.236454e+00
    8.751707e+00    5.478800e+02    4.508324e-01    3.588623e+07    1.749847e-08    2.948386e-11    1.626706e-08   -2.231454e+00
    8.916966e+00    5.630459e+02    4.313525e-01    3.510483e+07    1.743824e-08    2.850911e-11    1.618882e-08   -2.226454e+00
    9.086447e+00    5.785263e+02    4.123691e-01    3.431929e+07    1.737649e-08    2.756623e-11    1.610863e-08   -2.221454e+00
    9.260179e+00    5.943156e+02    3.938831e-01    3.352968e+07    1.731320e-08    2.665414e-11    1.602646e-08   -2.216454e+00
    9.438182e+00    6.104071e+02    3.758950e-01    3.273618e+07    1.724833e-08    2.577177e-11    1.594226e-08   -2.211454e+00
    9.620459e+00    6.267918e+02    3.584055e-01    3.193894e+07    1.718186e-08    2.491815e-11    1.585601e-08   -2.206454e+00
    9.806994e+00    6.434592e+02    3.414148e-01    3.113818e+07    1.711375e-08    2.409228e-11    1.576765e-08   -2.201454e+00
    9.997756e+00    6.603961e+02    3.249229e-01    3.033416e+07    1.704399e-08    2.329324e-11    1.567716e-08   -2.196454e+00
    1.019269e+01    6.775858e+02    3.089297e-01    2.952718e+07    1.697253e-08    2.252014e-11    1.558450e-08   -2.191454e+00
    1.039171e+01    6.950099e+02    2.934345e-01    2.871760e+07    1.689936e-08    2.177210e-11    1.548963e-08   -2.186454e+00
    1.059473e+01    7.126468e+02    2.784365e-01    2.790584e+07    1.682446e-08    2.104828e-11    1.539253e-08   -2.181454e+00
    1.080159e+01    7.304712e+02    2.639345e-01    2.709235e+07    1.674778e-08    2.034790e-11    1.529315e-08   -2.176454e+00
    1.101215e+01    7.484551e+02    2.499268e-01    2.627766e+07    1.666933e-08    1.967018e-11    1.519149e-08   -2.171454e+00
    1.122620e+01    7.665666e+02    2.364114e-01    2.546237e+07    1.658909e-08    1.901435e-11    1.508750e-08   -2.166454e+00
    1.144351e+01    7.847700e+02    2.233858e-01    2.464713e+07    1.650702e-08    1.837972e-11    1.498116e-08   -2.161454e+00
    1.166380e+01    8.030264e+02    2.108471e-01    2.383266e+07    1.642311e-08    1.776557e-11    1.487245e-08   -2.156454e+00
    1.188676e+01    8.212927e+02    1.987918e-01    2.301976e+07    1.633734e-08    1.717126e-11    1.476134e-08   -2.151454e+00
    1.211205e+01    8.395220e+02    1.872158e-01    2.220928e+07    1.624972e-08    1.659612e-11    1.464783e-08   -2.146454e+00
    1.233926e+01    8.576642e+02    1.761145e-01    2.140214e+07    1.616021e-08    1.603954e-11    1.453189e-08   -2.141454e+00
    1.256795e+01    8.756651e+02    1.654827e-01    2.059932e+07    1.606883e-08    1.550092e-11    1.441350e-08   -2.136454e+00
    1.279764e+01    8.934669e+02    1.553147e-01    1.980187e+07    1.597556e-08    1.497967e-11    1.429267e-08   -2.131454e+00
    1.302779e+01    9.110099e+02    1.456039e-01    1.901088e+07    1.588041e-08    1.447524e-11    1.416938e-08   -2.126454e+00
    1.325785e+01    9.282308e+02    1.363432e-01    1.822751e+07    1.578336e-08    1.398709e-11    1.404364e-08   -2.121454e+00
    1.348719e+01    9.450645e+02    1.275250e-01    1.745294e+07    1.568443e-08    1.351469e-11    1.391543e-08   -2.116454e+00
    1.371518e+01    9.614445e+02    1.191408e-01    1.668837e+07    1.558362e-08    1.305755e-11    1.378478e-08   -2.111454e+00
    1.394112e+01    9.773032e+02    1.111815e-01    1.593504e+07    1.548094e-08    1.261518e-11    1.365168e-08   -2.106454e+00
    1.416432e+01    9.925734e+02    1.036375e-01    1.519420e+07    1.537641e-08    1.218710e-11    1.351615e-08   -2.101454e+00
    1.438403e+01    1.007188e+03    9.649840e-02    1.446707e+07    1.527004e-08    1.177288e-11    1.337821e-08   -2.096454e+00
    1.459951e+01    1.021083e+03    8.975340e-02    1.375489e+07    1.516185e-08    1.137206e-11    1.323789e-08   -2.091454e+00
    1.481001e+01    1.034194e+03    8.339095e-02    1.305881e+07    1.505188e-08    1.098422e-11    1.309520e-08   -2.086454e+00
    1.501477e+01    1.046466e+03    7.739910e-02    1.237999e+07    1.494014e-08    1.060896e-11    1.295018e-08   -2.081454e+00
    1.521308e+01    1.057844e+03    7.176540e-02    1.171949e+07    1.482667e-08    1.024588e-11    1.280287e-08   -2.076454e+00
    1.540419e+01    1.068281e+03    6.647700e-02    1.107831e+07    1.471150e-08    9.894600e-12    1.265330e-08   -2.071454e+00
    1.558744e+01    1.077736e+03    6.152070e-02    1.045735e+07    1.459469e-08    9.554745e-12    1.250153e-08   -2.066454e+00
