# sky130 pfet_01v8 gm/ID Processed Lookup Table
# Corner: tt
# Temperature: 25C
# W = 2.0 um
# L = 3.24 um (3240 nm)
# Columns: gm/id [1/V]  gm/gds [V/V]  id/W [A/m]  ft [Hz]  Cgg/W [F/m]  Cgd/W [F/m]  Cgs/W [F/m]  Vov [V]
#         gm/id          gm/gds            id/W              ft           Cgg/W           Cgd/W           Cgs/W             Vov
    2.094917e+00    5.111375e+00    5.976795e+00    1.002793e+08    1.987211e-08    1.679005e-09    1.822994e-08   -2.820983e+00
    2.116920e+00    5.299884e+00    5.914190e+00    1.004593e+08    1.983487e-08    1.629413e-09    1.823171e-08   -2.815983e+00
    2.139189e+00    5.499344e+00    5.851595e+00    1.006283e+08    1.979810e-08    1.580747e-09    1.823307e-08   -2.810983e+00
    2.161719e+00    5.710502e+00    5.789015e+00    1.007854e+08    1.976179e-08    1.533024e-09    1.823402e-08   -2.805983e+00
    2.184509e+00    5.934158e+00    5.726455e+00    1.009303e+08    1.972596e-08    1.486258e-09    1.823455e-08   -2.800983e+00
    2.207551e+00    6.171155e+00    5.663925e+00    1.010622e+08    1.969063e-08    1.440460e-09    1.823466e-08   -2.795983e+00
    2.230845e+00    6.422404e+00    5.601425e+00    1.011806e+08    1.965580e-08    1.395641e-09    1.823436e-08   -2.790983e+00
    2.254381e+00    6.688850e+00    5.538965e+00    1.012848e+08    1.962147e-08    1.351810e-09    1.823364e-08   -2.785983e+00
    2.278153e+00    6.971515e+00    5.476560e+00    1.013744e+08    1.958766e-08    1.308972e-09    1.823251e-08   -2.780983e+00
    2.302158e+00    7.271464e+00    5.414205e+00    1.014486e+08    1.955438e-08    1.267133e-09    1.823098e-08   -2.775983e+00
    2.326388e+00    7.589827e+00    5.351915e+00    1.015070e+08    1.952161e-08    1.226296e-09    1.822903e-08   -2.770983e+00
    2.350835e+00    7.927790e+00    5.289700e+00    1.015489e+08    1.948938e-08    1.186460e-09    1.822667e-08   -2.765983e+00
    2.375492e+00    8.286600e+00    5.227570e+00    1.015741e+08    1.945767e-08    1.147626e-09    1.822392e-08   -2.760983e+00
    2.400356e+00    8.667560e+00    5.165525e+00    1.015818e+08    1.942649e-08    1.109792e-09    1.822075e-08   -2.755983e+00
    2.425419e+00    9.072035e+00    5.103580e+00    1.015718e+08    1.939584e-08    1.072951e-09    1.821720e-08   -2.750983e+00
    2.450673e+00    9.501442e+00    5.041745e+00    1.015437e+08    1.936572e-08    1.037101e-09    1.821326e-08   -2.745983e+00
    2.476115e+00    9.957247e+00    4.980026e+00    1.014970e+08    1.933611e-08    1.002233e-09    1.820893e-08   -2.740983e+00
    2.501736e+00    1.044098e+01    4.918436e+00    1.014316e+08    1.930704e-08    9.683380e-10    1.820421e-08   -2.735983e+00
    2.527535e+00    1.095422e+01    4.856983e+00    1.013471e+08    1.927847e-08    9.354075e-10    1.819911e-08   -2.730983e+00
    2.553506e+00    1.149858e+01    4.795678e+00    1.012434e+08    1.925042e-08    9.034300e-10    1.819363e-08   -2.725983e+00
    2.579645e+00    1.207572e+01    4.734528e+00    1.011205e+08    1.922285e-08    8.723930e-10    1.818779e-08   -2.720983e+00
    2.605951e+00    1.268733e+01    4.673547e+00    1.009780e+08    1.919579e-08    8.422835e-10    1.818158e-08   -2.715983e+00
    2.632422e+00    1.333514e+01    4.612742e+00    1.008162e+08    1.916922e-08    8.130870e-10    1.817500e-08   -2.710983e+00
    2.659058e+00    1.402092e+01    4.552123e+00    1.006351e+08    1.914311e-08    7.847885e-10    1.816807e-08   -2.705983e+00
    2.685859e+00    1.474644e+01    4.491701e+00    1.004347e+08    1.911748e-08    7.573725e-10    1.816079e-08   -2.700983e+00
    2.712826e+00    1.551348e+01    4.431485e+00    1.002151e+08    1.909230e-08    7.308225e-10    1.815316e-08   -2.695983e+00
    2.739963e+00    1.632383e+01    4.371486e+00    9.997673e+07    1.906755e-08    7.051205e-10    1.814518e-08   -2.690983e+00
    2.767274e+00    1.717932e+01    4.311712e+00    9.971967e+07    1.904325e-08    6.802495e-10    1.813686e-08   -2.685983e+00
    2.794762e+00    1.808176e+01    4.252172e+00    9.944431e+07    1.901936e-08    6.561915e-10    1.812822e-08   -2.680983e+00
    2.822436e+00    1.903292e+01    4.192877e+00    9.915097e+07    1.899588e-08    6.329270e-10    1.811923e-08   -2.675983e+00
    2.850302e+00    2.003461e+01    4.133834e+00    9.884005e+07    1.897279e-08    6.104380e-10    1.810992e-08   -2.670983e+00
    2.878367e+00    2.108857e+01    4.075053e+00    9.851186e+07    1.895008e-08    5.887050e-10    1.810029e-08   -2.665983e+00
    2.906641e+00    2.219658e+01    4.016541e+00    9.816695e+07    1.892773e-08    5.677090e-10    1.809033e-08   -2.660983e+00
    2.935135e+00    2.336032e+01    3.958309e+00    9.780573e+07    1.890573e-08    5.474310e-10    1.808005e-08   -2.655983e+00
    2.963859e+00    2.458152e+01    3.900362e+00    9.742868e+07    1.888408e-08    5.278510e-10    1.806946e-08   -2.650983e+00
    2.992824e+00    2.586181e+01    3.842711e+00    9.703628e+07    1.886274e-08    5.089500e-10    1.805856e-08   -2.645983e+00
    3.022043e+00    2.720285e+01    3.785360e+00    9.662903e+07    1.884171e-08    4.907087e-10    1.804734e-08   -2.640983e+00
    3.051531e+00    2.860622e+01    3.728318e+00    9.620743e+07    1.882098e-08    4.731079e-10    1.803582e-08   -2.635983e+00
    3.081299e+00    3.007348e+01    3.671591e+00    9.577200e+07    1.880052e-08    4.561286e-10    1.802399e-08   -2.630983e+00
    3.111365e+00    3.160617e+01    3.615187e+00    9.532327e+07    1.878032e-08    4.397518e-10    1.801184e-08   -2.625983e+00
    3.141739e+00    3.320575e+01    3.559112e+00    9.486165e+07    1.876036e-08    4.239591e-10    1.799940e-08   -2.620983e+00
    3.172440e+00    3.487370e+01    3.503371e+00    9.438768e+07    1.874064e-08    4.087321e-10    1.798665e-08   -2.615983e+00
    3.203484e+00    3.661143e+01    3.447971e+00    9.390187e+07    1.872113e-08    3.940527e-10    1.797360e-08   -2.610983e+00
    3.234886e+00    3.842033e+01    3.392918e+00    9.340462e+07    1.870183e-08    3.799032e-10    1.796023e-08   -2.605983e+00
    3.266662e+00    4.030177e+01    3.338216e+00    9.289647e+07    1.868270e-08    3.662662e-10    1.794656e-08   -2.600983e+00
    3.298832e+00    4.225709e+01    3.283871e+00    9.237779e+07    1.866375e-08    3.531247e-10    1.793259e-08   -2.595983e+00
    3.331411e+00    4.428759e+01    3.229888e+00    9.184904e+07    1.864495e-08    3.404618e-10    1.791830e-08   -2.590983e+00
    3.364418e+00    4.639459e+01    3.176271e+00    9.131065e+07    1.862628e-08    3.282613e-10    1.790371e-08   -2.585983e+00
    3.397871e+00    4.857936e+01    3.123026e+00    9.076301e+07    1.860775e-08    3.165073e-10    1.788881e-08   -2.580983e+00
    3.431789e+00    5.084320e+01    3.070156e+00    9.020651e+07    1.858931e-08    3.051842e-10    1.787358e-08   -2.575983e+00
    3.466190e+00    5.318735e+01    3.017667e+00    8.964148e+07    1.857098e-08    2.942769e-10    1.785804e-08   -2.570983e+00
    3.501093e+00    5.561305e+01    2.965560e+00    8.906828e+07    1.855271e-08    2.837706e-10    1.784218e-08   -2.565983e+00
    3.536520e+00    5.812163e+01    2.913841e+00    8.848729e+07    1.853451e-08    2.736512e-10    1.782599e-08   -2.560983e+00
    3.572487e+00    6.071431e+01    2.862513e+00    8.789876e+07    1.851635e-08    2.639045e-10    1.780948e-08   -2.555983e+00
    3.609020e+00    6.339243e+01    2.811579e+00    8.730308e+07    1.849823e-08    2.545173e-10    1.779263e-08   -2.550983e+00
    3.646137e+00    6.615726e+01    2.761043e+00    8.670047e+07    1.848012e-08    2.454763e-10    1.777543e-08   -2.545983e+00
    3.683857e+00    6.901015e+01    2.710909e+00    8.609121e+07    1.846201e-08    2.367688e-10    1.775789e-08   -2.540983e+00
    3.722207e+00    7.195244e+01    2.661178e+00    8.547560e+07    1.844388e-08    2.283827e-10    1.774001e-08   -2.535983e+00
    3.761204e+00    7.498551e+01    2.611855e+00    8.485382e+07    1.842573e-08    2.203060e-10    1.772176e-08   -2.530983e+00
    3.800874e+00    7.811076e+01    2.562942e+00    8.422616e+07    1.840753e-08    2.125272e-10    1.770315e-08   -2.525983e+00
    3.841240e+00    8.132972e+01    2.514442e+00    8.359279e+07    1.838927e-08    2.050352e-10    1.768418e-08   -2.520983e+00
    3.882327e+00    8.464389e+01    2.466357e+00    8.295397e+07    1.837092e-08    1.978192e-10    1.766482e-08   -2.515983e+00
    3.924159e+00    8.805479e+01    2.418691e+00    8.230986e+07    1.835250e-08    1.908690e-10    1.764507e-08   -2.510983e+00
    3.966760e+00    9.156408e+01    2.371444e+00    8.166065e+07    1.833396e-08    1.841745e-10    1.762493e-08   -2.505983e+00
    4.010155e+00    9.517334e+01    2.324622e+00    8.100648e+07    1.831530e-08    1.777260e-10    1.760438e-08   -2.500983e+00
    4.054374e+00    9.888443e+01    2.278224e+00    8.034754e+07    1.829650e-08    1.715142e-10    1.758342e-08   -2.495983e+00
    4.099444e+00    1.026991e+02    2.232255e+00    7.968403e+07    1.827754e-08    1.655303e-10    1.756203e-08   -2.490983e+00
    4.145394e+00    1.066193e+02    2.186715e+00    7.901602e+07    1.825841e-08    1.597654e-10    1.754021e-08   -2.485983e+00
    4.192250e+00    1.106470e+02    2.141608e+00    7.834365e+07    1.823910e-08    1.542112e-10    1.751794e-08   -2.480983e+00
    4.240047e+00    1.147841e+02    2.096935e+00    7.766711e+07    1.821959e-08    1.488599e-10    1.749521e-08   -2.475983e+00
    4.288810e+00    1.190328e+02    2.052698e+00    7.698642e+07    1.819985e-08    1.437036e-10    1.747201e-08   -2.470983e+00
    4.338577e+00    1.233954e+02    2.008898e+00    7.630173e+07    1.817988e-08    1.387349e-10    1.744832e-08   -2.465983e+00
    4.389378e+00    1.278741e+02    1.965541e+00    7.561318e+07    1.815966e-08    1.339466e-10    1.742414e-08   -2.460983e+00
    4.441247e+00    1.324714e+02    1.922624e+00    7.492077e+07    1.813917e-08    1.293319e-10    1.739945e-08   -2.455983e+00
    4.494221e+00    1.371899e+02    1.880153e+00    7.422464e+07    1.811839e-08    1.248842e-10    1.737423e-08   -2.450983e+00
    4.548336e+00    1.420320e+02    1.838127e+00    7.352488e+07    1.809731e-08    1.205970e-10    1.734848e-08   -2.445983e+00
    4.603629e+00    1.470005e+02    1.796549e+00    7.282149e+07    1.807590e-08    1.164643e-10    1.732217e-08   -2.440983e+00
    4.660141e+00    1.520985e+02    1.755421e+00    7.211460e+07    1.805416e-08    1.124802e-10    1.729528e-08   -2.435983e+00
    4.717913e+00    1.573287e+02    1.714744e+00    7.140426e+07    1.803206e-08    1.086390e-10    1.726781e-08   -2.430983e+00
    4.776983e+00    1.626942e+02    1.674522e+00    7.069046e+07    1.800959e-08    1.049352e-10    1.723974e-08   -2.425983e+00
    4.837399e+00    1.681984e+02    1.634754e+00    6.997332e+07    1.798671e-08    1.013638e-10    1.721103e-08   -2.420983e+00
    4.899202e+00    1.738445e+02    1.595443e+00    6.925280e+07    1.796343e-08    9.791950e-11    1.718169e-08   -2.415983e+00
    4.962440e+00    1.796360e+02    1.556590e+00    6.852896e+07    1.793972e-08    9.459770e-11    1.715169e-08   -2.410983e+00
    5.027164e+00    1.855766e+02    1.518198e+00    6.780185e+07    1.791555e-08    9.139370e-11    1.712100e-08   -2.405983e+00
    5.093421e+00    1.916701e+02    1.480268e+00    6.707147e+07    1.789091e-08    8.830300e-11    1.708962e-08   -2.400983e+00
    5.161261e+00    1.979202e+02    1.442802e+00    6.633778e+07    1.786578e-08    8.532135e-11    1.705752e-08   -2.395983e+00
    5.230740e+00    2.043310e+02    1.405802e+00    6.560086e+07    1.784012e-08    8.244470e-11    1.702467e-08   -2.390983e+00
    5.301913e+00    2.109069e+02    1.369269e+00    6.486066e+07    1.781395e-08    7.966900e-11    1.699105e-08   -2.385983e+00
    5.374837e+00    2.176520e+02    1.333205e+00    6.411722e+07    1.778721e-08    7.699055e-11    1.695665e-08   -2.380983e+00
    5.449568e+00    2.245708e+02    1.297612e+00    6.337045e+07    1.775989e-08    7.440565e-11    1.692143e-08   -2.375983e+00
    5.526172e+00    2.316682e+02    1.262492e+00    6.262040e+07    1.773198e-08    7.191085e-11    1.688537e-08   -2.370983e+00
    5.604710e+00    2.389486e+02    1.227845e+00    6.186703e+07    1.770343e-08    6.950275e-11    1.684845e-08   -2.365983e+00
    5.685241e+00    2.464171e+02    1.193675e+00    6.111024e+07    1.767426e-08    6.717815e-11    1.681065e-08   -2.360983e+00
    5.767841e+00    2.540788e+02    1.159982e+00    6.035010e+07    1.764440e-08    6.493400e-11    1.677193e-08   -2.355983e+00
    5.852577e+00    2.619388e+02    1.126770e+00    5.958652e+07    1.761385e-08    6.276725e-11    1.673226e-08   -2.350983e+00
    5.939519e+00    2.700026e+02    1.094038e+00    5.881947e+07    1.758259e-08    6.067505e-11    1.669163e-08   -2.345983e+00
    6.028737e+00    2.782755e+02    1.061789e+00    5.804884e+07    1.755057e-08    5.865465e-11    1.665000e-08   -2.340983e+00
    6.120316e+00    2.867633e+02    1.030026e+00    5.727467e+07    1.751780e-08    5.670350e-11    1.660734e-08   -2.335983e+00
    6.214321e+00    2.954714e+02    9.987495e-01    5.649680e+07    1.748423e-08    5.481895e-11    1.656363e-08   -2.330983e+00
    6.310848e+00    3.044061e+02    9.679610e-01    5.571529e+07    1.744984e-08    5.299865e-11    1.651883e-08   -2.325983e+00
    6.409959e+00    3.135726e+02    9.376635e-01    5.492991e+07    1.741460e-08    5.124020e-11    1.647290e-08   -2.320983e+00
    6.511756e+00    3.229775e+02    9.078580e-01    5.414074e+07    1.737849e-08    4.954140e-11    1.642583e-08   -2.315983e+00
    6.616315e+00    3.326264e+02    8.785465e-01    5.334760e+07    1.734148e-08    4.790008e-11    1.637757e-08   -2.310983e+00
    6.723718e+00    3.425255e+02    8.497315e-01    5.255044e+07    1.730354e-08    4.631416e-11    1.632810e-08   -2.305983e+00
    6.834067e+00    3.526808e+02    8.214135e-01    5.174919e+07    1.726465e-08    4.478164e-11    1.627738e-08   -2.300983e+00
    6.947439e+00    3.630983e+02    7.935960e-01    5.094377e+07    1.722476e-08    4.330062e-11    1.622537e-08   -2.295983e+00
    7.063932e+00    3.737838e+02    7.662800e-01    5.013409e+07    1.718387e-08    4.186926e-11    1.617204e-08   -2.290983e+00
    7.183640e+00    3.847434e+02    7.394670e-01    4.932008e+07    1.714193e-08    4.048576e-11    1.611736e-08   -2.285983e+00
    7.306642e+00    3.959822e+02    7.131600e-01    4.850161e+07    1.709892e-08    3.914847e-11    1.606129e-08   -2.280983e+00
    7.433054e+00    4.075065e+02    6.873595e-01    4.767870e+07    1.705481e-08    3.785571e-11    1.600379e-08   -2.275983e+00
    7.562941e+00    4.193206e+02    6.620685e-01    4.685117e+07    1.700957e-08    3.660592e-11    1.594482e-08   -2.270983e+00
    7.696409e+00    4.314298e+02    6.372885e-01    4.601903e+07    1.696317e-08    3.539760e-11    1.588436e-08   -2.265983e+00
    7.833545e+00    4.438386e+02    6.130210e-01    4.518218e+07    1.691557e-08    3.422928e-11    1.582236e-08   -2.260983e+00
    7.974440e+00    4.565508e+02    5.892675e-01    4.434057e+07    1.686675e-08    3.309958e-11    1.575878e-08   -2.255983e+00
    8.119169e+00    4.695695e+02    5.660305e-01    4.349418e+07    1.681668e-08    3.200714e-11    1.569359e-08   -2.250983e+00
    8.267821e+00    4.828979e+02    5.433110e-01    4.264297e+07    1.676534e-08    3.095066e-11    1.562675e-08   -2.245983e+00
    8.420464e+00    4.965372e+02    5.211110e-01    4.178694e+07    1.671267e-08    2.992892e-11    1.555822e-08   -2.240983e+00
    8.577171e+00    5.104886e+02    4.994318e-01    4.092608e+07    1.665866e-08    2.894069e-11    1.548796e-08   -2.235983e+00
    8.738007e+00    5.247522e+02    4.782745e-01    4.006044e+07    1.660328e-08    2.798486e-11    1.541592e-08   -2.230983e+00
    8.903024e+00    5.393264e+02    4.576405e-01    3.919005e+07    1.654651e-08    2.706028e-11    1.534210e-08   -2.225983e+00
    9.072269e+00    5.542088e+02    4.375309e-01    3.831503e+07    1.648829e-08    2.616590e-11    1.526643e-08   -2.220983e+00
    9.245771e+00    5.693948e+02    4.179468e-01    3.743547e+07    1.642862e-08    2.530070e-11    1.518888e-08   -2.215983e+00
    9.423555e+00    5.848785e+02    3.988888e-01    3.655153e+07    1.636746e-08    2.446368e-11    1.510942e-08   -2.210983e+00
    9.605622e+00    6.006523e+02    3.803575e-01    3.566340e+07    1.630478e-08    2.365389e-11    1.502801e-08   -2.205983e+00
    9.791961e+00    6.167067e+02    3.623532e-01    3.477132e+07    1.624055e-08    2.287041e-11    1.494461e-08   -2.200983e+00
    9.982543e+00    6.330287e+02    3.448759e-01    3.387556e+07    1.617476e-08    2.211236e-11    1.485920e-08   -2.195983e+00
    1.017732e+01    6.496047e+02    3.279256e-01    3.297647e+07    1.610737e-08    2.137889e-11    1.477173e-08   -2.190983e+00
    1.037620e+01    6.664168e+02    3.115017e-01    3.207443e+07    1.603836e-08    2.066918e-11    1.468217e-08   -2.185983e+00
    1.057910e+01    6.834451e+02    2.956033e-01    3.116991e+07    1.596770e-08    1.998243e-11    1.459051e-08   -2.180983e+00
    1.078587e+01    7.006665e+02    2.802291e-01    3.026339e+07    1.589539e-08    1.931790e-11    1.449669e-08   -2.175983e+00
    1.099637e+01    7.180543e+02    2.653775e-01    2.935548e+07    1.582138e-08    1.867485e-11    1.440070e-08   -2.170983e+00
    1.121039e+01    7.355791e+02    2.510464e-01    2.844683e+07    1.574566e-08    1.805256e-11    1.430251e-08   -2.165983e+00
    1.142771e+01    7.532074e+02    2.372333e-01    2.753816e+07    1.566823e-08    1.745035e-11    1.420210e-08   -2.160983e+00
    1.164805e+01    7.709024e+02    2.239350e-01    2.663027e+07    1.558905e-08    1.686758e-11    1.409943e-08   -2.155983e+00
    1.187111e+01    7.886232e+02    2.111479e-01    2.572403e+07    1.550813e-08    1.630360e-11    1.399450e-08   -2.150983e+00
    1.209654e+01    8.063260e+02    1.988678e-01    2.482038e+07    1.542544e-08    1.575780e-11    1.388729e-08   -2.145983e+00
    1.232394e+01    8.239624e+02    1.870901e-01    2.392037e+07    1.534097e-08    1.522960e-11    1.377778e-08   -2.140983e+00
    1.255289e+01    8.414816e+02    1.758091e-01    2.302507e+07    1.525471e-08    1.471843e-11    1.366595e-08   -2.135983e+00
    1.278288e+01    8.588283e+02    1.650188e-01    2.213564e+07    1.516667e-08    1.422373e-11    1.355180e-08   -2.130983e+00
    1.301341e+01    8.759453e+02    1.547126e-01    2.125330e+07    1.507684e-08    1.374499e-11    1.343532e-08   -2.125983e+00
    1.324390e+01    8.927714e+02    1.448829e-01    2.037932e+07    1.498522e-08    1.328167e-11    1.331652e-08   -2.120983e+00
    1.347374e+01    9.092447e+02    1.355216e-01    1.951504e+07    1.489181e-08    1.283331e-11    1.319538e-08   -2.115983e+00
    1.370230e+01    9.253006e+02    1.266200e-01    1.866178e+07    1.479662e-08    1.239940e-11    1.307192e-08   -2.110983e+00
    1.392888e+01    9.408739e+02    1.181684e-01    1.782094e+07    1.469966e-08    1.197951e-11    1.294613e-08   -2.105983e+00
    1.415278e+01    9.558991e+02    1.101569e-01    1.699388e+07    1.460094e-08    1.157317e-11    1.281805e-08   -2.100983e+00
    1.437326e+01    9.703111e+02    1.025745e-01    1.618202e+07    1.450048e-08    1.117997e-11    1.268766e-08   -2.095983e+00
    1.458959e+01    9.840466e+02    9.540970e-02    1.538668e+07    1.439829e-08    1.079949e-11    1.255502e-08   -2.090983e+00
    1.480100e+01    9.970448e+02    8.865050e-02    1.460921e+07    1.429439e-08    1.043131e-11    1.242013e-08   -2.085983e+00
    1.500674e+01    1.009248e+03    8.228425e-02    1.385086e+07    1.418883e-08    1.007507e-11    1.228302e-08   -2.080983e+00
    1.520608e+01    1.020603e+03    7.629785e-02    1.311285e+07    1.408162e-08    9.730390e-12    1.214374e-08   -2.075983e+00
    1.539828e+01    1.031063e+03    7.067775e-02    1.239629e+07    1.397280e-08    9.396895e-12    1.200231e-08   -2.070983e+00
    1.558267e+01    1.040586e+03    6.541000e-02    1.170220e+07    1.386241e-08    9.074245e-12    1.185878e-08   -2.065983e+00
