# sky130 pfet_01v8 gm/ID Processed Lookup Table
# Corner: tt
# Temperature: 25C
# W = 2.0 um
# L = 0.72 um (720 nm)
# Columns: gm/id [1/V]  gm/gds [V/V]  id/W [A/m]  ft [Hz]  Cgg/W [F/m]  Cgd/W [F/m]  Cgs/W [F/m]  Vov [V]
#         gm/id          gm/gds            id/W              ft           Cgg/W           Cgd/W           Cgs/W             Vov
    1.865587e+00    3.296434e+00    2.725906e+01    1.800043e+09    4.496387e-09    2.599493e-10    4.201790e-09   -2.783514e+00
    1.885319e+00    3.387482e+00    2.700464e+01    1.804399e+09    4.490666e-09    2.522015e-10    4.202084e-09   -2.778514e+00
    1.905335e+00    3.482721e+00    2.674994e+01    1.808626e+09    4.485032e-09    2.446336e-10    4.202296e-09   -2.773514e+00
    1.925638e+00    3.582389e+00    2.649497e+01    1.812717e+09    4.479485e-09    2.372449e-10    4.202426e-09   -2.768514e+00
    1.946227e+00    3.686745e+00    2.623974e+01    1.816665e+09    4.474024e-09    2.300345e-10    4.202475e-09   -2.763514e+00
    1.967104e+00    3.796063e+00    2.598428e+01    1.820464e+09    4.468650e-09    2.230013e-10    4.202443e-09   -2.758514e+00
    1.988273e+00    3.910636e+00    2.572861e+01    1.824108e+09    4.463360e-09    2.161439e-10    4.202332e-09   -2.753514e+00
    2.009729e+00    4.030762e+00    2.547274e+01    1.827587e+09    4.458156e-09    2.094607e-10    4.202141e-09   -2.748514e+00
    2.031474e+00    4.156766e+00    2.521669e+01    1.830894e+09    4.453037e-09    2.029502e-10    4.201873e-09   -2.743514e+00
    2.053511e+00    4.288990e+00    2.496048e+01    1.834025e+09    4.448000e-09    1.966103e-10    4.201528e-09   -2.738514e+00
    2.075833e+00    4.427785e+00    2.470413e+01    1.836967e+09    4.443046e-09    1.904391e-10    4.201106e-09   -2.733514e+00
    2.098444e+00    4.573527e+00    2.444767e+01    1.839716e+09    4.438173e-09    1.844344e-10    4.200610e-09   -2.728514e+00
    2.121339e+00    4.726607e+00    2.419111e+01    1.842261e+09    4.433380e-09    1.785937e-10    4.200039e-09   -2.723514e+00
    2.144513e+00    4.887424e+00    2.393450e+01    1.844592e+09    4.428665e-09    1.729147e-10    4.199395e-09   -2.718514e+00
    2.167970e+00    5.056415e+00    2.367785e+01    1.846706e+09    4.424028e-09    1.673950e-10    4.198680e-09   -2.713514e+00
    2.191700e+00    5.234006e+00    2.342118e+01    1.848588e+09    4.419466e-09    1.620316e-10    4.197892e-09   -2.708514e+00
    2.215702e+00    5.420653e+00    2.316454e+01    1.850233e+09    4.414979e-09    1.568219e-10    4.197036e-09   -2.703514e+00
    2.239973e+00    5.616828e+00    2.290794e+01    1.851632e+09    4.410564e-09    1.517630e-10    4.196109e-09   -2.698514e+00
    2.264506e+00    5.823003e+00    2.265141e+01    1.852775e+09    4.406220e-09    1.468521e-10    4.195115e-09   -2.693514e+00
    2.289294e+00    6.039661e+00    2.239500e+01    1.853652e+09    4.401945e-09    1.420862e-10    4.194053e-09   -2.688514e+00
    2.314337e+00    6.267301e+00    2.213874e+01    1.854259e+09    4.397737e-09    1.374621e-10    4.192926e-09   -2.683514e+00
    2.339625e+00    6.506416e+00    2.188265e+01    1.854583e+09    4.393595e-09    1.329771e-10    4.191734e-09   -2.678514e+00
    2.365154e+00    6.757499e+00    2.162677e+01    1.854619e+09    4.389516e-09    1.286278e-10    4.190477e-09   -2.673514e+00
    2.390919e+00    7.021054e+00    2.137116e+01    1.854360e+09    4.385498e-09    1.244113e-10    4.189156e-09   -2.668514e+00
    2.416913e+00    7.297557e+00    2.111582e+01    1.853798e+09    4.381540e-09    1.203243e-10    4.187773e-09   -2.663514e+00
    2.443131e+00    7.587490e+00    2.086081e+01    1.852926e+09    4.377640e-09    1.163637e-10    4.186328e-09   -2.658514e+00
    2.469568e+00    7.891318e+00    2.060618e+01    1.851741e+09    4.373795e-09    1.125265e-10    4.184823e-09   -2.653514e+00
    2.496221e+00    8.209483e+00    2.035195e+01    1.850237e+09    4.370003e-09    1.088095e-10    4.183257e-09   -2.648514e+00
    2.523082e+00    8.542391e+00    2.009816e+01    1.848408e+09    4.366262e-09    1.052095e-10    4.181631e-09   -2.643514e+00
    2.550148e+00    8.890438e+00    1.984487e+01    1.846253e+09    4.362570e-09    1.017236e-10    4.179947e-09   -2.638514e+00
    2.577419e+00    9.253993e+00    1.959210e+01    1.843770e+09    4.358926e-09    9.834860e-11    4.178205e-09   -2.633514e+00
    2.604891e+00    9.633355e+00    1.933991e+01    1.840956e+09    4.355326e-09    9.508150e-11    4.176405e-09   -2.628514e+00
    2.632561e+00    1.002882e+01    1.908834e+01    1.837811e+09    4.351769e-09    9.191930e-11    4.174548e-09   -2.623514e+00
    2.660429e+00    1.044061e+01    1.883742e+01    1.834334e+09    4.348252e-09    8.885905e-11    4.172635e-09   -2.618514e+00
    2.688501e+00    1.086895e+01    1.858719e+01    1.830530e+09    4.344773e-09    8.589780e-11    4.170665e-09   -2.613514e+00
    2.716772e+00    1.131396e+01    1.833771e+01    1.826399e+09    4.341331e-09    8.303265e-11    4.168639e-09   -2.608514e+00
    2.745249e+00    1.177575e+01    1.808901e+01    1.821943e+09    4.337923e-09    8.026085e-11    4.166558e-09   -2.603514e+00
    2.773934e+00    1.225437e+01    1.784114e+01    1.817168e+09    4.334547e-09    7.757960e-11    4.164421e-09   -2.598514e+00
    2.802832e+00    1.274982e+01    1.759413e+01    1.812077e+09    4.331199e-09    7.498610e-11    4.162231e-09   -2.593514e+00
    2.831950e+00    1.326207e+01    1.734802e+01    1.806676e+09    4.327881e-09    7.247775e-11    4.159984e-09   -2.588514e+00
    2.861295e+00    1.379103e+01    1.710285e+01    1.800971e+09    4.324587e-09    7.005190e-11    4.157683e-09   -2.583514e+00
    2.890875e+00    1.433659e+01    1.685866e+01    1.794968e+09    4.321315e-09    6.770600e-11    4.155327e-09   -2.578514e+00
    2.920700e+00    1.489858e+01    1.661550e+01    1.788674e+09    4.318066e-09    6.543755e-11    4.152917e-09   -2.573514e+00
    2.950780e+00    1.547683e+01    1.637339e+01    1.782097e+09    4.314835e-09    6.324410e-11    4.150451e-09   -2.568514e+00
    2.981126e+00    1.607111e+01    1.613237e+01    1.775244e+09    4.311620e-09    6.112325e-11    4.147931e-09   -2.563514e+00
    3.011748e+00    1.668118e+01    1.589247e+01    1.768122e+09    4.308420e-09    5.907270e-11    4.145356e-09   -2.558514e+00
    3.042663e+00    1.730681e+01    1.565374e+01    1.760741e+09    4.305231e-09    5.709020e-11    4.142725e-09   -2.553514e+00
    3.073880e+00    1.794771e+01    1.541620e+01    1.753107e+09    4.302054e-09    5.517345e-11    4.140038e-09   -2.548514e+00
    3.105418e+00    1.860363e+01    1.517987e+01    1.745229e+09    4.298884e-09    5.332040e-11    4.137295e-09   -2.543514e+00
    3.137287e+00    1.927429e+01    1.494481e+01    1.737115e+09    4.295720e-09    5.152895e-11    4.134495e-09   -2.538514e+00
    3.169506e+00    1.995943e+01    1.471102e+01    1.728774e+09    4.292560e-09    4.979701e-11    4.131638e-09   -2.533514e+00
    3.202090e+00    2.065878e+01    1.447855e+01    1.720212e+09    4.289401e-09    4.812266e-11    4.128724e-09   -2.528514e+00
    3.235054e+00    2.137211e+01    1.424742e+01    1.711438e+09    4.286241e-09    4.650396e-11    4.125751e-09   -2.523514e+00
    3.268418e+00    2.209918e+01    1.401764e+01    1.702459e+09    4.283078e-09    4.493906e-11    4.122719e-09   -2.518514e+00
    3.302198e+00    2.283979e+01    1.378927e+01    1.693283e+09    4.279910e-09    4.342617e-11    4.119626e-09   -2.513514e+00
    3.336410e+00    2.359373e+01    1.356231e+01    1.683917e+09    4.276735e-09    4.196352e-11    4.116473e-09   -2.508514e+00
    3.371076e+00    2.436087e+01    1.333678e+01    1.674368e+09    4.273551e-09    4.054944e-11    4.113258e-09   -2.503514e+00
    3.406212e+00    2.514106e+01    1.311272e+01    1.664642e+09    4.270353e-09    3.918227e-11    4.109980e-09   -2.498514e+00
    3.441840e+00    2.593419e+01    1.289014e+01    1.654746e+09    4.267143e-09    3.786042e-11    4.106638e-09   -2.493514e+00
    3.477977e+00    2.674019e+01    1.266906e+01    1.644685e+09    4.263916e-09    3.658237e-11    4.103231e-09   -2.488514e+00
    3.514644e+00    2.755901e+01    1.244952e+01    1.634467e+09    4.260669e-09    3.534662e-11    4.099757e-09   -2.483514e+00
    3.551862e+00    2.839064e+01    1.223152e+01    1.624096e+09    4.257403e-09    3.415173e-11    4.096215e-09   -2.478514e+00
    3.589649e+00    2.923510e+01    1.201508e+01    1.613578e+09    4.254113e-09    3.299631e-11    4.092605e-09   -2.473514e+00
    3.628031e+00    3.009242e+01    1.180022e+01    1.602917e+09    4.250797e-09    3.187900e-11    4.088923e-09   -2.468514e+00
    3.667027e+00    3.096270e+01    1.158697e+01    1.592119e+09    4.247453e-09    3.079852e-11    4.085170e-09   -2.463514e+00
    3.706662e+00    3.184603e+01    1.137533e+01    1.581189e+09    4.244078e-09    2.975359e-11    4.081342e-09   -2.458514e+00
    3.746954e+00    3.274258e+01    1.116533e+01    1.570130e+09    4.240671e-09    2.874301e-11    4.077438e-09   -2.453514e+00
    3.787931e+00    3.365250e+01    1.095698e+01    1.558947e+09    4.237227e-09    2.776560e-11    4.073458e-09   -2.448514e+00
    3.829617e+00    3.457599e+01    1.075029e+01    1.547643e+09    4.233746e-09    2.682022e-11    4.069398e-09   -2.443514e+00
    3.872032e+00    3.551328e+01    1.054529e+01    1.536223e+09    4.230225e-09    2.590578e-11    4.065256e-09   -2.438514e+00
    3.915208e+00    3.646465e+01    1.034198e+01    1.524690e+09    4.226659e-09    2.502123e-11    4.061030e-09   -2.433514e+00
    3.959166e+00    3.743036e+01    1.014039e+01    1.513046e+09    4.223048e-09    2.416553e-11    4.056718e-09   -2.428514e+00
    4.003936e+00    3.841074e+01    9.940510e+00    1.501297e+09    4.219388e-09    2.333770e-11    4.052318e-09   -2.423514e+00
    4.049545e+00    3.940610e+01    9.742375e+00    1.489443e+09    4.215677e-09    2.253679e-11    4.047827e-09   -2.418514e+00
    4.096021e+00    4.041685e+01    9.545990e+00    1.477488e+09    4.211911e-09    2.176189e-11    4.043244e-09   -2.413514e+00
    4.143391e+00    4.144333e+01    9.351375e+00    1.465435e+09    4.208089e-09    2.101211e-11    4.038564e-09   -2.408514e+00
    4.191691e+00    4.248599e+01    9.158530e+00    1.453286e+09    4.204206e-09    2.028659e-11    4.033786e-09   -2.403514e+00
    4.240946e+00    4.354528e+01    8.967480e+00    1.441044e+09    4.200260e-09    1.958451e-11    4.028907e-09   -2.398514e+00
    4.291192e+00    4.462161e+01    8.778230e+00    1.428710e+09    4.196247e-09    1.890507e-11    4.023922e-09   -2.393514e+00
    4.342460e+00    4.571551e+01    8.590795e+00    1.416286e+09    4.192165e-09    1.824750e-11    4.018831e-09   -2.388514e+00
    4.394789e+00    4.682748e+01    8.405180e+00    1.403775e+09    4.188011e-09    1.761107e-11    4.013628e-09   -2.383514e+00
    4.448207e+00    4.795806e+01    8.221410e+00    1.391178e+09    4.183781e-09    1.699507e-11    4.008311e-09   -2.378514e+00
    4.502760e+00    4.910777e+01    8.039480e+00    1.378496e+09    4.179470e-09    1.639880e-11    4.002877e-09   -2.373514e+00
    4.558477e+00    5.027724e+01    7.859415e+00    1.365732e+09    4.175078e-09    1.582160e-11    3.997322e-09   -2.368514e+00
    4.615404e+00    5.146704e+01    7.681215e+00    1.352886e+09    4.170599e-09    1.526283e-11    3.991641e-09   -2.363514e+00
    4.673581e+00    5.267782e+01    7.504895e+00    1.339961e+09    4.166030e-09    1.472188e-11    3.985832e-09   -2.358514e+00
    4.733046e+00    5.391017e+01    7.330470e+00    1.326957e+09    4.161367e-09    1.419815e-11    3.979890e-09   -2.353514e+00
    4.793847e+00    5.516483e+01    7.157945e+00    1.313874e+09    4.156607e-09    1.369107e-11    3.973811e-09   -2.348514e+00
    4.856026e+00    5.644243e+01    6.987335e+00    1.300715e+09    4.151745e-09    1.320007e-11    3.967591e-09   -2.343514e+00
    4.919633e+00    5.774377e+01    6.818645e+00    1.287479e+09    4.146778e-09    1.272464e-11    3.961225e-09   -2.338514e+00
    4.984718e+00    5.906954e+01    6.651885e+00    1.274168e+09    4.141701e-09    1.226426e-11    3.954709e-09   -2.333514e+00
    5.051327e+00    6.042046e+01    6.487070e+00    1.260782e+09    4.136510e-09    1.181843e-11    3.948038e-09   -2.328514e+00
    5.119516e+00    6.179735e+01    6.324205e+00    1.247322e+09    4.131202e-09    1.138667e-11    3.941207e-09   -2.323514e+00
    5.189336e+00    6.320105e+01    6.163305e+00    1.233788e+09    4.125770e-09    1.096853e-11    3.934211e-09   -2.318514e+00
    5.260846e+00    6.463239e+01    6.004375e+00    1.220180e+09    4.120211e-09    1.056356e-11    3.927045e-09   -2.313514e+00
    5.334105e+00    6.609219e+01    5.847425e+00    1.206499e+09    4.114521e-09    1.017132e-11    3.919703e-09   -2.308514e+00
    5.409169e+00    6.758133e+01    5.692470e+00    1.192745e+09    4.108694e-09    9.791430e-12    3.912181e-09   -2.303514e+00
    5.486102e+00    6.910071e+01    5.539515e+00    1.178917e+09    4.102725e-09    9.423465e-12    3.904471e-09   -2.298514e+00
    5.564972e+00    7.065127e+01    5.388570e+00    1.165016e+09    4.096610e-09    9.067050e-12    3.896569e-09   -2.293514e+00
    5.645842e+00    7.223393e+01    5.239645e+00    1.151042e+09    4.090342e-09    8.721815e-12    3.888469e-09   -2.288514e+00
    5.728784e+00    7.384968e+01    5.092750e+00    1.136993e+09    4.083919e-09    8.387405e-12    3.880163e-09   -2.283514e+00
    5.813867e+00    7.549947e+01    4.947894e+00    1.122870e+09    4.077332e-09    8.063480e-12    3.871646e-09   -2.278514e+00
    5.901165e+00    7.718434e+01    4.805089e+00    1.108672e+09    4.070578e-09    7.749700e-12    3.862911e-09   -2.273514e+00
    5.990756e+00    7.890527e+01    4.664341e+00    1.094399e+09    4.063651e-09    7.445755e-12    3.853952e-09   -2.268514e+00
    6.082717e+00    8.066334e+01    4.525663e+00    1.080050e+09    4.056543e-09    7.151335e-12    3.844760e-09   -2.263514e+00
    6.177129e+00    8.245955e+01    4.389061e+00    1.065623e+09    4.049251e-09    6.866140e-12    3.835331e-09   -2.258514e+00
    6.274077e+00    8.429499e+01    4.254548e+00    1.051119e+09    4.041768e-09    6.589885e-12    3.825656e-09   -2.253514e+00
    6.373645e+00    8.617072e+01    4.122131e+00    1.036536e+09    4.034087e-09    6.322300e-12    3.815727e-09   -2.248514e+00
    6.475923e+00    8.808783e+01    3.991821e+00    1.021874e+09    4.026202e-09    6.063115e-12    3.805536e-09   -2.243514e+00
    6.580999e+00    9.004736e+01    3.863627e+00    1.007130e+09    4.018107e-09    5.812070e-12    3.795078e-09   -2.238514e+00
    6.688967e+00    9.205043e+01    3.737559e+00    9.923047e+08    4.009796e-09    5.568925e-12    3.784341e-09   -2.233514e+00
    6.799922e+00    9.409809e+01    3.613626e+00    9.773957e+08    4.001261e-09    5.333440e-12    3.773321e-09   -2.228514e+00
    6.913958e+00    9.619138e+01    3.491839e+00    9.624020e+08    3.992496e-09    5.105380e-12    3.762007e-09   -2.223514e+00
    7.031177e+00    9.833135e+01    3.372205e+00    9.473227e+08    3.983494e-09    4.884534e-12    3.750392e-09   -2.218514e+00
    7.151674e+00    1.005190e+02    3.254736e+00    9.321559e+08    3.974248e-09    4.670679e-12    3.738466e-09   -2.213514e+00
    7.275554e+00    1.027554e+02    3.139440e+00    9.169008e+08    3.964752e-09    4.463614e-12    3.726220e-09   -2.208514e+00
    7.402913e+00    1.050413e+02    3.026328e+00    9.015557e+08    3.954997e-09    4.263138e-12    3.713648e-09   -2.203514e+00
    7.533857e+00    1.073777e+02    2.915407e+00    8.861194e+08    3.944977e-09    4.069061e-12    3.700738e-09   -2.198514e+00
    7.668489e+00    1.097655e+02    2.806688e+00    8.705910e+08    3.934684e-09    3.881198e-12    3.687481e-09   -2.193514e+00
    7.806905e+00    1.122053e+02    2.700180e+00    8.549690e+08    3.924111e-09    3.699371e-12    3.673870e-09   -2.188514e+00
    7.949209e+00    1.146978e+02    2.595890e+00    8.392528e+08    3.913250e-09    3.523408e-12    3.659893e-09   -2.183514e+00
    8.095495e+00    1.172436e+02    2.493829e+00    8.234412e+08    3.902094e-09    3.353143e-12    3.645543e-09   -2.178514e+00
    8.245864e+00    1.198431e+02    2.394005e+00    8.075340e+08    3.890635e-09    3.188417e-12    3.630808e-09   -2.173514e+00
    8.400401e+00    1.224966e+02    2.296426e+00    7.915305e+08    3.878866e-09    3.029075e-12    3.615680e-09   -2.168514e+00
    8.559192e+00    1.252042e+02    2.201099e+00    7.754310e+08    3.866779e-09    2.874968e-12    3.600149e-09   -2.163514e+00
    8.722320e+00    1.279659e+02    2.108032e+00    7.592352e+08    3.854367e-09    2.725953e-12    3.584206e-09   -2.158514e+00
    8.889862e+00    1.307815e+02    2.017231e+00    7.429446e+08    3.841621e-09    2.581891e-12    3.567840e-09   -2.153514e+00
    9.061871e+00    1.336504e+02    1.928705e+00    7.265597e+08    3.828534e-09    2.442648e-12    3.551042e-09   -2.148514e+00
    9.238413e+00    1.365721e+02    1.842456e+00    7.100827e+08    3.815099e-09    2.308094e-12    3.533803e-09   -2.143514e+00
    9.419520e+00    1.395454e+02    1.758493e+00    6.935157e+08    3.801308e-09    2.178106e-12    3.516113e-09   -2.138514e+00
    9.605219e+00    1.425691e+02    1.676816e+00    6.768616e+08    3.787155e-09    2.052562e-12    3.497962e-09   -2.133514e+00
    9.795528e+00    1.456416e+02    1.597432e+00    6.601245e+08    3.772632e-09    1.931346e-12    3.479342e-09   -2.128514e+00
    9.990433e+00    1.487609e+02    1.520340e+00    6.433089e+08    3.757731e-09    1.814344e-12    3.460243e-09   -2.123514e+00
    1.018990e+01    1.519245e+02    1.445543e+00    6.264203e+08    3.742445e-09    1.701450e-12    3.440655e-09   -2.118514e+00
    1.039389e+01    1.551297e+02    1.373041e+00    6.094654e+08    3.726769e-09    1.592556e-12    3.420572e-09   -2.113514e+00
    1.060231e+01    1.583732e+02    1.302830e+00    5.924520e+08    3.710696e-09    1.487561e-12    3.399983e-09   -2.108514e+00
    1.081506e+01    1.616512e+02    1.234909e+00    5.753886e+08    3.694219e-09    1.386367e-12    3.378881e-09   -2.103514e+00
    1.103199e+01    1.649597e+02    1.169272e+00    5.582862e+08    3.677332e-09    1.288877e-12    3.357258e-09   -2.098514e+00
    1.125293e+01    1.682935e+02    1.105913e+00    5.411554e+08    3.660030e-09    1.195000e-12    3.335106e-09   -2.093514e+00
    1.147767e+01    1.716476e+02    1.044821e+00    5.240096e+08    3.642308e-09    1.104644e-12    3.312419e-09   -2.088514e+00
    1.170596e+01    1.750159e+02    9.859870e-01    5.068632e+08    3.624161e-09    1.017726e-12    3.289189e-09   -2.083514e+00
    1.193748e+01    1.783920e+02    9.293970e-01    4.897319e+08    3.605583e-09    9.341565e-13    3.265410e-09   -2.078514e+00
    1.217190e+01    1.817689e+02    8.750350e-01    4.726334e+08    3.586572e-09    8.538570e-13    3.241078e-09   -2.073514e+00
    1.240883e+01    1.851388e+02    8.228820e-01    4.555860e+08    3.567124e-09    7.767460e-13    3.216186e-09   -2.068514e+00
    1.264783e+01    1.884935e+02    7.729170e-01    4.386106e+08    3.547236e-09    7.027465e-13    3.190730e-09   -2.063514e+00
    1.288840e+01    1.918243e+02    7.251160e-01    4.217285e+08    3.526905e-09    6.317820e-13    3.164708e-09   -2.058514e+00
    1.313001e+01    1.951220e+02    6.794515e-01    4.049633e+08    3.506130e-09    5.637800e-13    3.138115e-09   -2.053514e+00
    1.337204e+01    1.983768e+02    6.358935e-01    3.883389e+08    3.484909e-09    4.986673e-13    3.110950e-09   -2.048514e+00
    1.361388e+01    2.015787e+02    5.944080e-01    3.718810e+08    3.463242e-09    4.363744e-13    3.083211e-09   -2.043514e+00
    1.385484e+01    2.047174e+02    5.549585e-01    3.556159e+08    3.441129e-09    3.768324e-13    3.054898e-09   -2.038514e+00
    1.409416e+01    2.077820e+02    5.175055e-01    3.395702e+08    3.418572e-09    3.199741e-13    3.026012e-09   -2.033514e+00
    1.433108e+01    2.107618e+02    4.820058e-01    3.237714e+08    3.395572e-09    2.657333e-13    2.996553e-09   -2.028514e+00
