# sky130 pfet_01v8 gm/ID Processed Lookup Table
# Corner: tt
# Temperature: 25C
# W = 2.0 um
# L = 1.44 um (1440 nm)
# Columns: gm/id [1/V]  gm/gds [V/V]  id/W [A/m]  ft [Hz]  Cgg/W [F/m]  Cgd/W [F/m]  Cgs/W [F/m]  Vov [V]
#         gm/id          gm/gds            id/W              ft           Cgg/W           Cgd/W           Cgs/W             Vov
    1.989869e+00    4.044465e+00    1.361103e+01    4.840780e+08    8.904720e-09    6.640630e-10    8.183520e-09   -2.807009e+00
    2.011030e+00    4.172582e+00    1.347557e+01    4.851467e+08    8.890225e-09    6.444110e-10    8.184305e-09   -2.802009e+00
    2.032481e+00    4.307323e+00    1.334004e+01    4.861715e+08    8.875935e-09    6.251605e-10    8.184910e-09   -2.797009e+00
    2.054222e+00    4.449103e+00    1.320444e+01    4.871509e+08    8.861840e-09    6.063160e-10    8.185345e-09   -2.792009e+00
    2.076250e+00    4.598373e+00    1.306879e+01    4.880815e+08    8.847955e-09    5.878795e-10    8.185595e-09   -2.787009e+00
    2.098566e+00    4.755600e+00    1.293310e+01    4.889614e+08    8.834275e-09    5.698535e-10    8.185675e-09   -2.782009e+00
    2.121167e+00    4.921290e+00    1.279739e+01    4.897879e+08    8.820805e-09    5.522385e-10    8.185575e-09   -2.777009e+00
    2.144051e+00    5.095965e+00    1.266165e+01    4.905584e+08    8.807545e-09    5.350355e-10    8.185305e-09   -2.772009e+00
    2.167215e+00    5.280193e+00    1.252592e+01    4.912704e+08    8.794495e-09    5.182450e-10    8.184860e-09   -2.767009e+00
    2.190654e+00    5.474555e+00    1.239019e+01    4.919209e+08    8.781660e-09    5.018655e-10    8.184240e-09   -2.762009e+00
    2.214365e+00    5.679674e+00    1.225450e+01    4.925080e+08    8.769030e-09    4.858959e-10    8.183455e-09   -2.757009e+00
    2.238345e+00    5.896202e+00    1.211884e+01    4.930284e+08    8.756615e-09    4.703344e-10    8.182495e-09   -2.752009e+00
    2.262588e+00    6.124819e+00    1.198324e+01    4.934797e+08    8.744410e-09    4.551784e-10    8.181375e-09   -2.747009e+00
    2.287088e+00    6.366235e+00    1.184771e+01    4.938595e+08    8.732410e-09    4.404248e-10    8.180085e-09   -2.742009e+00
    2.311841e+00    6.621191e+00    1.171227e+01    4.941650e+08    8.720620e-09    4.260701e-10    8.178630e-09   -2.737009e+00
    2.336839e+00    6.890452e+00    1.157695e+01    4.943938e+08    8.709035e-09    4.121101e-10    8.177015e-09   -2.732009e+00
    2.362077e+00    7.174816e+00    1.144175e+01    4.945438e+08    8.697650e-09    3.985405e-10    8.175240e-09   -2.727009e+00
    2.387550e+00    7.475096e+00    1.130669e+01    4.946127e+08    8.686465e-09    3.853562e-10    8.173310e-09   -2.722009e+00
    2.413252e+00    7.792133e+00    1.117180e+01    4.945981e+08    8.675480e-09    3.725518e-10    8.171220e-09   -2.717009e+00
    2.439174e+00    8.126782e+00    1.103710e+01    4.944982e+08    8.664690e-09    3.601218e-10    8.168980e-09   -2.712009e+00
    2.465313e+00    8.479917e+00    1.090259e+01    4.943117e+08    8.654085e-09    3.480600e-10    8.166585e-09   -2.707009e+00
    2.491663e+00    8.852421e+00    1.076832e+01    4.940366e+08    8.643670e-09    3.363602e-10    8.164045e-09   -2.702009e+00
    2.518218e+00    9.245180e+00    1.063429e+01    4.936715e+08    8.633440e-09    3.250158e-10    8.161355e-09   -2.697009e+00
    2.544973e+00    9.659089e+00    1.050053e+01    4.932156e+08    8.623385e-09    3.140201e-10    8.158520e-09   -2.692009e+00
    2.571926e+00    1.009504e+01    1.036707e+01    4.926681e+08    8.613505e-09    3.033659e-10    8.155540e-09   -2.687009e+00
    2.599073e+00    1.055391e+01    1.023391e+01    4.920284e+08    8.603790e-09    2.930461e-10    8.152420e-09   -2.682009e+00
    2.626411e+00    1.103657e+01    1.010108e+01    4.912959e+08    8.594245e-09    2.830536e-10    8.149160e-09   -2.677009e+00
    2.653939e+00    1.154388e+01    9.968620e+00    4.904708e+08    8.584855e-09    2.733806e-10    8.145765e-09   -2.672009e+00
    2.681658e+00    1.207666e+01    9.836530e+00    4.895529e+08    8.575625e-09    2.640199e-10    8.142230e-09   -2.667009e+00
    2.709566e+00    1.263573e+01    9.704845e+00    4.885433e+08    8.566540e-09    2.549638e-10    8.138565e-09   -2.662009e+00
    2.737668e+00    1.322185e+01    9.573580e+00    4.874423e+08    8.557600e-09    2.462047e-10    8.134760e-09   -2.657009e+00
    2.765965e+00    1.383577e+01    9.442755e+00    4.862511e+08    8.548795e-09    2.377349e-10    8.130830e-09   -2.652009e+00
    2.794460e+00    1.447820e+01    9.312400e+00    4.849703e+08    8.540130e-09    2.295467e-10    8.126770e-09   -2.647009e+00
    2.823158e+00    1.514978e+01    9.182535e+00    4.836018e+08    8.531590e-09    2.216327e-10    8.122575e-09   -2.642009e+00
    2.852068e+00    1.585114e+01    9.053170e+00    4.821471e+08    8.523170e-09    2.139851e-10    8.118260e-09   -2.637009e+00
    2.881196e+00    1.658288e+01    8.924335e+00    4.806078e+08    8.514870e-09    2.065964e-10    8.113815e-09   -2.632009e+00
    2.910548e+00    1.734550e+01    8.796050e+00    4.789857e+08    8.506680e-09    1.994593e-10    8.109245e-09   -2.627009e+00
    2.940136e+00    1.813950e+01    8.668330e+00    4.772832e+08    8.498590e-09    1.925662e-10    8.104550e-09   -2.622009e+00
    2.969970e+00    1.896533e+01    8.541195e+00    4.755018e+08    8.490605e-09    1.859098e-10    8.099730e-09   -2.617009e+00
    3.000059e+00    1.982341e+01    8.414665e+00    4.736439e+08    8.482715e-09    1.794830e-10    8.094785e-09   -2.612009e+00
    3.030418e+00    2.071407e+01    8.288755e+00    4.717120e+08    8.474910e-09    1.732788e-10    8.089715e-09   -2.607009e+00
    3.061058e+00    2.163766e+01    8.163485e+00    4.697083e+08    8.467185e-09    1.672901e-10    8.084525e-09   -2.602009e+00
    3.091990e+00    2.259446e+01    8.038875e+00    4.676348e+08    8.459540e-09    1.615101e-10    8.079215e-09   -2.597009e+00
    3.123235e+00    2.358477e+01    7.914930e+00    4.654941e+08    8.451965e-09    1.559320e-10    8.073775e-09   -2.592009e+00
    3.154802e+00    2.460878e+01    7.791675e+00    4.632885e+08    8.444455e-09    1.505494e-10    8.068215e-09   -2.587009e+00
    3.186708e+00    2.566672e+01    7.669125e+00    4.610204e+08    8.437000e-09    1.453558e-10    8.062535e-09   -2.582009e+00
    3.218969e+00    2.675880e+01    7.547290e+00    4.586915e+08    8.429605e-09    1.403450e-10    8.056725e-09   -2.577009e+00
    3.251602e+00    2.788519e+01    7.426185e+00    4.563046e+08    8.422255e-09    1.355108e-10    8.050795e-09   -2.572009e+00
    3.284623e+00    2.904608e+01    7.305825e+00    4.538618e+08    8.414945e-09    1.308472e-10    8.044735e-09   -2.567009e+00
    3.318051e+00    3.024160e+01    7.186220e+00    4.513652e+08    8.407670e-09    1.263485e-10    8.038550e-09   -2.562009e+00
    3.351903e+00    3.147197e+01    7.067385e+00    4.488165e+08    8.400430e-09    1.220090e-10    8.032235e-09   -2.557009e+00
    3.386198e+00    3.273733e+01    6.949330e+00    4.462179e+08    8.393215e-09    1.178232e-10    8.025795e-09   -2.552009e+00
    3.420952e+00    3.403786e+01    6.832070e+00    4.435717e+08    8.386015e-09    1.137858e-10    8.019225e-09   -2.547009e+00
    3.456185e+00    3.537380e+01    6.715615e+00    4.408792e+08    8.378830e-09    1.098915e-10    8.012520e-09   -2.542009e+00
    3.491920e+00    3.674529e+01    6.599970e+00    4.381422e+08    8.371655e-09    1.061353e-10    8.005680e-09   -2.537009e+00
    3.528175e+00    3.815260e+01    6.485150e+00    4.353628e+08    8.364480e-09    1.025124e-10    7.998705e-09   -2.532009e+00
    3.564969e+00    3.959598e+01    6.371165e+00    4.325425e+08    8.357300e-09    9.901800e-11    7.991595e-09   -2.527009e+00
    3.602323e+00    4.107572e+01    6.258025e+00    4.296827e+08    8.350110e-09    9.564755e-11    7.984340e-09   -2.522009e+00
    3.640259e+00    4.259209e+01    6.145735e+00    4.267849e+08    8.342905e-09    9.239660e-11    7.976945e-09   -2.517009e+00
    3.678801e+00    4.414546e+01    6.034305e+00    4.238505e+08    8.335680e-09    8.926080e-11    7.969405e-09   -2.512009e+00
    3.717969e+00    4.573620e+01    5.923745e+00    4.208808e+08    8.328430e-09    8.623610e-11    7.961715e-09   -2.507009e+00
    3.757784e+00    4.736470e+01    5.814065e+00    4.178773e+08    8.321145e-09    8.331840e-11    7.953870e-09   -2.502009e+00
    3.798272e+00    4.903144e+01    5.705270e+00    4.148411e+08    8.313820e-09    8.050385e-11    7.945875e-09   -2.497009e+00
    3.839457e+00    5.073688e+01    5.597365e+00    4.117730e+08    8.306455e-09    7.778870e-11    7.937720e-09   -2.492009e+00
    3.881361e+00    5.248158e+01    5.490365e+00    4.086748e+08    8.299035e-09    7.516935e-11    7.929405e-09   -2.487009e+00
    3.924016e+00    5.426608e+01    5.384265e+00    4.055469e+08    8.291560e-09    7.264230e-11    7.920920e-09   -2.482009e+00
    3.967438e+00    5.609103e+01    5.279085e+00    4.023906e+08    8.284020e-09    7.020415e-11    7.912270e-09   -2.477009e+00
    4.011660e+00    5.795709e+01    5.174825e+00    3.992066e+08    8.276415e-09    6.785170e-11    7.903445e-09   -2.472009e+00
    4.056710e+00    5.986498e+01    5.071490e+00    3.959961e+08    8.268730e-09    6.558180e-11    7.894440e-09   -2.467009e+00
    4.102612e+00    6.181547e+01    4.969092e+00    3.927594e+08    8.260970e-09    6.339135e-11    7.885255e-09   -2.462009e+00
    4.149399e+00    6.380940e+01    4.867631e+00    3.894979e+08    8.253115e-09    6.127755e-11    7.875880e-09   -2.457009e+00
    4.197099e+00    6.584760e+01    4.767116e+00    3.862118e+08    8.245170e-09    5.923755e-11    7.866310e-09   -2.452009e+00
    4.245743e+00    6.793102e+01    4.667553e+00    3.829018e+08    8.237125e-09    5.726860e-11    7.856545e-09   -2.447009e+00
    4.295364e+00    7.006065e+01    4.568945e+00    3.795687e+08    8.228975e-09    5.536815e-11    7.846575e-09   -2.442009e+00
    4.345994e+00    7.223753e+01    4.471302e+00    3.762133e+08    8.220705e-09    5.353370e-11    7.836395e-09   -2.437009e+00
    4.397667e+00    7.446275e+01    4.374625e+00    3.728357e+08    8.212320e-09    5.176280e-11    7.826000e-09   -2.432009e+00
    4.450419e+00    7.673747e+01    4.278922e+00    3.694367e+08    8.203805e-09    5.005310e-11    7.815385e-09   -2.427009e+00
    4.504285e+00    7.906293e+01    4.184197e+00    3.660167e+08    8.195155e-09    4.840240e-11    7.804535e-09   -2.422009e+00
    4.559305e+00    8.144041e+01    4.090455e+00    3.625764e+08    8.186360e-09    4.680852e-11    7.793455e-09   -2.417009e+00
    4.615514e+00    8.387122e+01    3.997702e+00    3.591156e+08    8.177420e-09    4.526941e-11    7.782135e-09   -2.412009e+00
    4.672955e+00    8.635682e+01    3.905943e+00    3.556353e+08    8.168320e-09    4.378305e-11    7.770560e-09   -2.407009e+00
    4.731671e+00    8.889871e+01    3.815181e+00    3.521354e+08    8.159060e-09    4.234753e-11    7.758730e-09   -2.402009e+00
    4.791701e+00    9.149833e+01    3.725422e+00    3.486163e+08    8.149625e-09    4.096099e-11    7.746635e-09   -2.397009e+00
    4.853094e+00    9.415743e+01    3.636671e+00    3.450785e+08    8.140010e-09    3.962166e-11    7.734270e-09   -2.392009e+00
    4.915894e+00    9.687766e+01    3.548933e+00    3.415221e+08    8.130205e-09    3.832781e-11    7.721620e-09   -2.387009e+00
    4.980149e+00    9.966074e+01    3.462211e+00    3.379473e+08    8.120205e-09    3.707781e-11    7.708680e-09   -2.382009e+00
    5.045908e+00    1.025086e+02    3.376511e+00    3.343542e+08    8.110000e-09    3.587006e-11    7.695440e-09   -2.377009e+00
    5.113226e+00    1.054231e+02    3.291837e+00    3.307432e+08    8.099580e-09    3.470306e-11    7.681895e-09   -2.372009e+00
    5.182152e+00    1.084062e+02    3.208194e+00    3.271140e+08    8.088940e-09    3.357532e-11    7.668030e-09   -2.367009e+00
    5.252743e+00    1.114601e+02    3.125585e+00    3.234672e+08    8.078065e-09    3.248543e-11    7.653835e-09   -2.362009e+00
    5.325056e+00    1.145868e+02    3.044016e+00    3.198025e+08    8.066950e-09    3.143204e-11    7.639305e-09   -2.357009e+00
    5.399149e+00    1.177886e+02    2.963491e+00    3.161198e+08    8.055590e-09    3.041383e-11    7.624425e-09   -2.352009e+00
    5.475086e+00    1.210679e+02    2.884014e+00    3.124196e+08    8.043965e-09    2.942957e-11    7.609185e-09   -2.347009e+00
    5.552928e+00    1.244271e+02    2.805590e+00    3.087016e+08    8.032070e-09    2.847803e-11    7.593575e-09   -2.342009e+00
    5.632743e+00    1.278686e+02    2.728223e+00    3.049657e+08    8.019900e-09    2.755804e-11    7.577585e-09   -2.337009e+00
    5.714595e+00    1.313951e+02    2.651918e+00    3.012119e+08    8.007435e-09    2.666850e-11    7.561195e-09   -2.332009e+00
    5.798557e+00    1.350091e+02    2.576678e+00    2.974400e+08    7.994675e-09    2.580834e-11    7.544405e-09   -2.327009e+00
    5.884700e+00    1.387135e+02    2.502509e+00    2.936501e+08    7.981600e-09    2.497650e-11    7.527195e-09   -2.322009e+00
    5.973100e+00    1.425111e+02    2.429415e+00    2.898418e+08    7.968205e-09    2.417200e-11    7.509550e-09   -2.317009e+00
    6.063831e+00    1.464047e+02    2.357399e+00    2.860150e+08    7.954475e-09    2.339387e-11    7.491465e-09   -2.312009e+00
    6.156974e+00    1.503975e+02    2.286468e+00    2.821693e+08    7.940405e-09    2.264119e-11    7.472920e-09   -2.307009e+00
    6.252611e+00    1.544924e+02    2.216624e+00    2.783049e+08    7.925975e-09    2.191308e-11    7.453900e-09   -2.302009e+00
    6.350825e+00    1.586927e+02    2.147872e+00    2.744211e+08    7.911180e-09    2.120869e-11    7.434400e-09   -2.297009e+00
    6.451703e+00    1.630016e+02    2.080218e+00    2.705180e+08    7.896000e-09    2.052718e-11    7.414395e-09   -2.292009e+00
    6.555331e+00    1.674222e+02    2.013664e+00    2.665948e+08    7.880435e-09    1.986777e-11    7.393875e-09   -2.287009e+00
    6.661803e+00    1.719580e+02    1.948217e+00    2.626517e+08    7.864460e-09    1.922969e-11    7.372825e-09   -2.282009e+00
    6.771210e+00    1.766125e+02    1.883879e+00    2.586882e+08    7.848070e-09    1.861222e-11    7.351230e-09   -2.277009e+00
    6.883641e+00    1.813890e+02    1.820657e+00    2.547037e+08    7.831250e-09    1.801465e-11    7.329075e-09   -2.272009e+00
    6.999200e+00    1.862909e+02    1.758553e+00    2.506982e+08    7.813990e-09    1.743629e-11    7.306340e-09   -2.267009e+00
    7.117975e+00    1.913217e+02    1.697574e+00    2.466711e+08    7.796270e-09    1.687650e-11    7.283010e-09   -2.262009e+00
    7.240072e+00    1.964851e+02    1.637722e+00    2.426223e+08    7.778080e-09    1.633464e-11    7.259070e-09   -2.257009e+00
    7.365587e+00    2.017843e+02    1.579003e+00    2.385514e+08    7.759405e-09    1.581011e-11    7.234505e-09   -2.252009e+00
    7.494618e+00    2.072228e+02    1.521421e+00    2.344577e+08    7.740240e-09    1.530232e-11    7.209290e-09   -2.247009e+00
    7.627264e+00    2.128038e+02    1.464979e+00    2.303414e+08    7.720555e-09    1.481071e-11    7.183415e-09   -2.242009e+00
    7.763626e+00    2.185307e+02    1.409684e+00    2.262018e+08    7.700350e-09    1.433474e-11    7.156865e-09   -2.237009e+00
    7.903799e+00    2.244067e+02    1.355538e+00    2.220386e+08    7.679610e-09    1.387388e-11    7.129615e-09   -2.232009e+00
    8.047878e+00    2.304346e+02    1.302547e+00    2.178521e+08    7.658310e-09    1.342764e-11    7.101650e-09   -2.227009e+00
    8.195960e+00    2.366171e+02    1.250712e+00    2.136417e+08    7.636445e-09    1.299553e-11    7.072950e-09   -2.222009e+00
    8.348129e+00    2.429568e+02    1.200040e+00    2.094074e+08    7.614000e-09    1.257708e-11    7.043500e-09   -2.217009e+00
    8.504466e+00    2.494557e+02    1.150532e+00    2.051491e+08    7.590955e-09    1.217183e-11    7.013280e-09   -2.212009e+00
    8.665063e+00    2.561158e+02    1.102194e+00    2.008670e+08    7.567305e-09    1.177937e-11    6.982275e-09   -2.207009e+00
    8.829974e+00    2.629385e+02    1.055028e+00    1.965613e+08    7.543025e-09    1.139926e-11    6.950465e-09   -2.202009e+00
    8.999273e+00    2.699244e+02    1.009037e+00    1.922320e+08    7.518110e-09    1.103111e-11    6.917830e-09   -2.197009e+00
    9.173018e+00    2.770744e+02    9.642225e-01    1.878800e+08    7.492540e-09    1.067453e-11    6.884350e-09   -2.192009e+00
    9.351236e+00    2.843878e+02    9.205890e-01    1.835055e+08    7.466305e-09    1.032913e-11    6.850015e-09   -2.187009e+00
    9.533962e+00    2.918635e+02    8.781370e-01    1.791095e+08    7.439390e-09    9.994580e-12    6.814800e-09   -2.182009e+00
    9.721211e+00    2.994999e+02    8.368680e-01    1.746928e+08    7.411780e-09    9.670500e-12    6.778690e-09   -2.177009e+00
    9.912969e+00    3.072939e+02    7.967835e-01    1.702566e+08    7.383465e-09    9.356570e-12    6.741665e-09   -2.172009e+00
    1.010923e+01    3.152422e+02    7.578830e-01    1.658026e+08    7.354425e-09    9.052465e-12    6.703715e-09   -2.167009e+00
    1.030991e+01    3.233393e+02    7.201670e-01    1.613323e+08    7.324655e-09    8.757865e-12    6.664815e-09   -2.162009e+00
    1.051498e+01    3.315794e+02    6.836340e-01    1.568475e+08    7.294145e-09    8.472470e-12    6.624955e-09   -2.157009e+00
    1.072429e+01    3.399546e+02    6.482825e-01    1.523508e+08    7.262870e-09    8.195995e-12    6.584120e-09   -2.152009e+00
    1.093776e+01    3.484562e+02    6.141090e-01    1.478446e+08    7.230835e-09    7.928150e-12    6.542290e-09   -2.147009e+00
    1.115518e+01    3.570734e+02    5.811110e-01    1.433319e+08    7.198020e-09    7.668670e-12    6.499455e-09   -2.142009e+00
    1.137637e+01    3.657941e+02    5.492835e-01    1.388161e+08    7.164415e-09    7.417290e-12    6.455600e-09   -2.137009e+00
    1.160109e+01    3.746040e+02    5.186205e-01    1.343007e+08    7.130015e-09    7.173760e-12    6.410715e-09   -2.132009e+00
    1.182907e+01    3.834877e+02    4.891153e-01    1.297900e+08    7.094810e-09    6.937830e-12    6.364780e-09   -2.127009e+00
    1.205996e+01    3.924267e+02    4.607598e-01    1.252882e+08    7.058795e-09    6.709265e-12    6.317800e-09   -2.122009e+00
    1.229340e+01    4.014015e+02    4.335445e-01    1.208001e+08    7.021960e-09    6.487840e-12    6.269750e-09   -2.117009e+00
    1.252897e+01    4.103904e+02    4.074586e-01    1.163311e+08    6.984300e-09    6.273330e-12    6.220630e-09   -2.112009e+00
    1.276621e+01    4.193698e+02    3.824898e-01    1.118869e+08    6.945810e-09    6.065525e-12    6.170430e-09   -2.107009e+00
    1.300460e+01    4.283141e+02    3.586243e-01    1.074731e+08    6.906485e-09    5.864215e-12    6.119145e-09   -2.102009e+00
    1.324358e+01    4.371954e+02    3.358468e-01    1.030961e+08    6.866330e-09    5.669210e-12    6.066775e-09   -2.097009e+00
    1.348254e+01    4.459848e+02    3.141403e-01    9.876236e+07    6.825335e-09    5.480310e-12    6.013310e-09   -2.092009e+00
    1.372082e+01    4.546519e+02    2.934862e-01    9.447861e+07    6.783510e-09    5.297325e-12    5.958755e-09   -2.087009e+00
    1.395772e+01    4.631644e+02    2.738645e-01    9.025188e+07    6.740845e-09    5.120085e-12    5.903105e-09   -2.082009e+00
    1.419252e+01    4.714898e+02    2.552534e-01    8.608905e+07    6.697355e-09    4.948412e-12    5.846370e-09   -2.077009e+00
    1.442444e+01    4.795941e+02    2.376296e-01    8.199728e+07    6.653040e-09    4.782135e-12    5.788550e-09   -2.072009e+00
    1.465269e+01    4.874438e+02    2.209682e-01    7.798361e+07    6.607905e-09    4.621092e-12    5.729650e-09   -2.067009e+00
    1.487646e+01    4.950056e+02    2.052428e-01    7.405494e+07    6.561960e-09    4.465126e-12    5.669685e-09   -2.062009e+00
    1.509494e+01    5.022463e+02    1.904259e-01    7.021802e+07    6.515215e-09    4.314083e-12    5.608655e-09   -2.057009e+00
    1.530731e+01    5.091343e+02    1.764883e-01    6.647929e+07    6.467680e-09    4.167815e-12    5.546585e-09   -2.052009e+00
