# sky130 nfet_01v8 gm/ID Processed Lookup Table
# Corner: sf
# Temperature: -40C
# W = 2.0 um
# L = 3.5 um (3500 nm)
# Columns: gm/id [1/V]  gm/gds [V/V]  id/W [A/m]  ft [Hz]  Cgg/W [F/m]  Cgd/W [F/m]  Cgs/W [F/m]  Cdb/W [F/m]  vgs [V]  vth [V]  vdsat [V]
# vdsat = BSIM4 saturation voltage (|VDS|_sat, positive); use for headroom / saturation / cascode-bias calculations
#           gm/id          gm/gds            id/W              ft           Cgg/W           Cgd/W           Cgs/W           Cdb/W             vgs             vth           vdsat
    3.289686e+01    1.878228e+02    4.000238e-05    2.162167e+04    9.686595e-09    1.159514e-12    4.269817e-09    5.167555e-10    3.300000e-01    5.820104e-01    3.040454e-02
    3.288657e+01    1.873893e+02    5.558350e-05    2.916622e+04    9.974805e-09    1.279328e-12    4.666052e-09    5.568805e-10    3.400000e-01    5.820104e-01    3.041005e-02
    3.284312e+01    1.868924e+02    7.721240e-05    3.925584e+04    1.028129e-08    1.411000e-12    5.083945e-09    5.986560e-10    3.500000e-01    5.820104e-01    3.041769e-02
    3.277041e+01    1.863267e+02    1.071952e-04    5.271851e+04    1.060508e-08    1.555510e-12    5.522220e-09    6.419265e-10    3.600000e-01    5.820104e-01    3.042828e-02
    3.267070e+01    1.856872e+02    1.486922e-04    7.064037e+04    1.094495e-08    1.713888e-12    5.979285e-09    6.865090e-10    3.700000e-01    5.820104e-01    3.044292e-02
    3.254513e+01    1.849712e+02    2.060212e-04    9.444122e+04    1.129943e-08    1.887217e-12    6.453220e-09    7.321985e-10    3.800000e-01    5.820104e-01    3.046313e-02
    3.239402e+01    1.841783e+02    2.850589e-04    1.259704e+05    1.166679e-08    2.076631e-12    6.941855e-09    7.787705e-10    3.900000e-01    5.820104e-01    3.049095e-02
    3.221734e+01    1.833129e+02    3.937728e-04    1.676269e+05    1.204514e-08    2.283316e-12    7.442770e-09    8.259860e-10    4.000000e-01    5.820104e-01    3.052914e-02
    3.201489e+01    1.823850e+02    5.429170e-04    2.225102e+05    1.243242e-08    2.508513e-12    7.953370e-09    8.735950e-10    4.100000e-01    5.820104e-01    3.058140e-02
    3.178672e+01    1.814128e+02    7.469405e-04    2.946084e+05    1.282646e-08    2.753519e-12    8.470925e-09    9.213425e-10    4.200000e-01    5.820104e-01    3.065262e-02
    3.153329e+01    1.804247e+02    1.025162e-03    3.890328e+05    1.322500e-08    3.019688e-12    8.992635e-09    9.689755e-10    4.300000e-01    5.820104e-01    3.074927e-02
    3.125589e+01    1.794628e+02    1.403286e-03    5.123139e+05    1.362580e-08    3.308437e-12    9.515680e-09    1.016246e-09    4.400000e-01    5.820104e-01    3.087977e-02
    3.095669e+01    1.785844e+02    1.915342e-03    6.727730e+05    1.402660e-08    3.621244e-12    1.003731e-08    1.062916e-09    4.500000e-01    5.820104e-01    3.105493e-02
    3.063889e+01    1.778642e+02    2.606187e-03    8.809989e+05    1.442525e-08    3.959655e-12    1.055485e-08    1.108764e-09    4.600000e-01    5.820104e-01    3.128852e-02
    3.030660e+01    1.773954e+02    3.534690e-03    1.150456e+06    1.481967e-08    4.325292e-12    1.106578e-08    1.153585e-09    4.700000e-01    5.820104e-01    3.159771e-02
    2.996441e+01    1.772876e+02    4.777833e-03    1.498254e+06    1.520798e-08    4.719851e-12    1.156780e-08    1.197199e-09    4.800000e-01    5.820104e-01    3.200357e-02
    2.961671e+01    1.776638e+02    6.435925e-03    1.946102e+06    1.558843e-08    5.145115e-12    1.205880e-08    1.239449e-09    4.900000e-01    5.820104e-01    3.253141e-02
    2.926653e+01    1.786526e+02    8.639230e-03    2.521436e+06    1.595947e-08    5.602955e-12    1.253694e-08    1.280201e-09    5.000000e-01    5.820104e-01    3.321091e-02
    2.891435e+01    1.803767e+02    1.155618e-02    3.258618e+06    1.631978e-08    6.095355e-12    1.300063e-08    1.319349e-09    5.100000e-01    5.820104e-01    3.407594e-02
    2.855671e+01    1.829389e+02    1.540331e-02    4.200037e+06    1.666822e-08    6.624385e-12    1.344857e-08    1.356813e-09    5.200000e-01    5.820104e-01    3.516398e-02
    2.818551e+01    1.864053e+02    2.045668e-02    5.396755e+06    1.700390e-08    7.192255e-12    1.387972e-08    1.392536e-09    5.300000e-01    5.820104e-01    3.651499e-02
    2.778803e+01    1.907893e+02    2.706403e-02    6.908261e+06    1.732613e-08    7.801290e-12    1.429329e-08    1.426483e-09    5.400000e-01    5.820104e-01    3.816990e-02
    2.734809e+01    1.960382e+02    3.565640e-02    8.800837e+06    1.763440e-08    8.453965e-12    1.468877e-08    1.458644e-09    5.500000e-01    5.820104e-01    4.016856e-02
    2.684851e+01    2.020271e+02    4.675720e-02    1.114415e+07    1.792841e-08    9.152900e-12    1.506583e-08    1.489025e-09    5.600000e-01    5.820104e-01    4.254746e-02
    2.627392e+01    2.085604e+02    6.098625e-02    1.400600e+07    1.820802e-08    9.900885e-12    1.542439e-08    1.517649e-09    5.700000e-01    5.820104e-01    4.533741e-02
    2.561381e+01    2.153844e+02    7.905635e-02    1.744569e+07    1.847324e-08    1.070090e-11    1.576454e-08    1.544554e-09    5.800000e-01    5.820104e-01    4.856143e-02
    2.486444e+01    2.222072e+02    1.017609e-01    2.150682e+07    1.872422e-08    1.155611e-11    1.608654e-08    1.569791e-09    5.900000e-01    5.820104e-01    5.223314e-02
    2.402961e+01    2.287249e+02    1.299519e-01    2.621100e+07    1.896120e-08    1.246990e-11    1.639074e-08    1.593418e-09    6.000000e-01    5.820104e-01    5.635584e-02
    2.312000e+01    2.346487e+02    1.645095e-01    3.155349e+07    1.918455e-08    1.344589e-11    1.667767e-08    1.615502e-09    6.100000e-01    5.820104e-01    6.092243e-02
    2.215145e+01    2.397299e+02    2.063074e-01    3.750199e+07    1.939469e-08    1.448796e-11    1.694789e-08    1.636115e-09    6.200000e-01    5.820104e-01    6.591609e-02
    2.114283e+01    2.437773e+02    2.561758e-01    4.399871e+07    1.959212e-08    1.560024e-11    1.720207e-08    1.655334e-09    6.300000e-01    5.820104e-01    7.131167e-02
    2.011378e+01    2.466669e+02    3.148687e-01    5.096536e+07    1.977735e-08    1.678718e-11    1.744090e-08    1.673237e-09    6.400000e-01    5.820104e-01    7.707749e-02
    1.908301e+01    2.483429e+02    3.830379e-01    5.831022e+07    1.995097e-08    1.805355e-11    1.766512e-08    1.689903e-09    6.500000e-01    5.820104e-01    8.317742e-02
    1.806700e+01    2.488123e+02    4.612156e-01    6.593577e+07    2.011356e-08    1.940446e-11    1.787549e-08    1.705410e-09    6.600000e-01    5.820104e-01    8.957291e-02
    1.707928e+01    2.481326e+02    5.498075e-01    7.374602e+07    2.026570e-08    2.084539e-11    1.807278e-08    1.719836e-09    6.700000e-01    5.820104e-01    9.622487e-02
    1.613026e+01    2.464005e+02    6.490960e-01    8.165252e+07    2.040802e-08    2.238227e-11    1.825774e-08    1.733256e-09    6.800000e-01    5.820104e-01    1.030952e-01
    1.522731e+01    2.437361e+02    7.592475e-01    8.957845e+07    2.054107e-08    2.402143e-11    1.843112e-08    1.745746e-09    6.900000e-01    5.820104e-01    1.101482e-01
    1.437510e+01    2.402722e+02    8.803290e-01    9.746100e+07    2.066546e-08    2.576969e-11    1.859366e-08    1.757373e-09    7.000000e-01    5.820104e-01    1.173508e-01
    1.357598e+01    2.361435e+02    1.012327e+00    1.052519e+08    2.078174e-08    2.763440e-11    1.874606e-08    1.768206e-09    7.100000e-01    5.820104e-01    1.246738e-01
    1.283053e+01    2.314783e+02    1.155161e+00    1.129169e+08    2.089047e-08    2.962346e-11    1.888901e-08    1.778308e-09    7.200000e-01    5.820104e-01    1.320915e-01
    1.213793e+01    2.263953e+02    1.308705e+00    1.204341e+08    2.099216e-08    3.174539e-11    1.902315e-08    1.787738e-09    7.300000e-01    5.820104e-01    1.395821e-01
    1.149634e+01    2.209988e+02    1.472804e+00    1.277920e+08    2.108731e-08    3.400936e-11    1.914910e-08    1.796554e-09    7.400000e-01    5.820104e-01    1.471269e-01
    1.090328e+01    2.153787e+02    1.647282e+00    1.349873e+08    2.117641e-08    3.642526e-11    1.926744e-08    1.804809e-09    7.500000e-01    5.820104e-01    1.547107e-01
    1.035581e+01    2.096100e+02    1.831959e+00    1.420230e+08    2.125989e-08    3.900376e-11    1.937873e-08    1.812553e-09    7.600000e-01    5.820104e-01    1.623211e-01
    9.850801e+00    2.037538e+02    2.026651e+00    1.489064e+08    2.133818e-08    4.175635e-11    1.948349e-08    1.819831e-09    7.700000e-01    5.820104e-01    1.699482e-01
    9.385055e+00    1.978592e+02    2.231184e+00    1.556473e+08    2.141167e-08    4.469544e-11    1.958219e-08    1.826687e-09    7.800000e-01    5.820104e-01    1.775840e-01
    8.955403e+00    1.919640e+02    2.445394e+00    1.622573e+08    2.148077e-08    4.783444e-11    1.967529e-08    1.833161e-09    7.900000e-01    5.820104e-01    1.852226e-01
    8.558799e+00    1.860973e+02    2.669125e+00    1.687483e+08    2.154579e-08    5.118780e-11    1.976321e-08    1.839290e-09    8.000000e-01    5.820104e-01    1.928595e-01
    8.192354e+00    1.802805e+02    2.902239e+00    1.751322e+08    2.160708e-08    5.477115e-11    1.984633e-08    1.845109e-09    8.100000e-01    5.820104e-01    2.004912e-01
    7.853367e+00    1.745290e+02    3.144608e+00    1.814199e+08    2.166495e-08    5.860130e-11    1.992502e-08    1.850650e-09    8.200000e-01    5.820104e-01    2.081155e-01
    7.539342e+00    1.688535e+02    3.396118e+00    1.876217e+08    2.171967e-08    6.269660e-11    1.999962e-08    1.855943e-09    8.300000e-01    5.820104e-01    2.157307e-01
    7.247989e+00    1.632611e+02    3.656665e+00    1.937466e+08    2.177153e-08    6.707665e-11    2.007043e-08    1.861016e-09    8.400000e-01    5.820104e-01    2.233359e-01
    6.977215e+00    1.577559e+02    3.926158e+00    1.998022e+08    2.182075e-08    7.176275e-11    2.013774e-08    1.865894e-09    8.500000e-01    5.820104e-01    2.309305e-01
    6.725128e+00    1.523403e+02    4.204512e+00    2.057952e+08    2.186760e-08    7.677800e-11    2.020180e-08    1.870601e-09    8.600000e-01    5.820104e-01    2.385145e-01
    6.490006e+00    1.470151e+02    4.491652e+00    2.117307e+08    2.191227e-08    8.214725e-11    2.026286e-08    1.875161e-09    8.700000e-01    5.820104e-01    2.460879e-01
    6.270303e+00    1.417804e+02    4.787507e+00    2.176131e+08    2.195498e-08    8.789745e-11    2.032114e-08    1.879594e-09    8.800000e-01    5.820104e-01    2.536509e-01
    6.064621e+00    1.366354e+02    5.092015e+00    2.234456e+08    2.199590e-08    9.405765e-11    2.037684e-08    1.883920e-09    8.900000e-01    5.820104e-01    2.612042e-01
    5.871713e+00    1.315794e+02    5.405110e+00    2.292302e+08    2.203523e-08    1.006594e-10    2.043014e-08    1.888157e-09    9.000000e-01    5.820104e-01    2.687480e-01
    5.690444e+00    1.266114e+02    5.726740e+00    2.349687e+08    2.207313e-08    1.077367e-10    2.048122e-08    1.892322e-09    9.100000e-01    5.820104e-01    2.762832e-01
    5.519806e+00    1.217306e+02    6.056845e+00    2.406615e+08    2.210974e-08    1.153264e-10    2.053022e-08    1.896435e-09    9.200000e-01    5.820104e-01    2.838101e-01
    5.358883e+00    1.169363e+02    6.395375e+00    2.463088e+08    2.214524e-08    1.234682e-10    2.057729e-08    1.900509e-09    9.300000e-01    5.820104e-01    2.913296e-01
    5.206861e+00    1.122281e+02    6.742270e+00    2.519101e+08    2.217976e-08    1.322053e-10    2.062255e-08    1.904559e-09    9.400000e-01    5.820104e-01    2.988420e-01
    5.063005e+00    1.076058e+02    7.097475e+00    2.574642e+08    2.221342e-08    1.415839e-10    2.066613e-08    1.908602e-09    9.500000e-01    5.820104e-01    3.063481e-01
    4.926645e+00    1.030696e+02    7.460940e+00    2.629698e+08    2.224637e-08    1.516543e-10    2.070810e-08    1.912650e-09    9.600000e-01    5.820104e-01    3.138484e-01
    4.797188e+00    9.862013e+01    7.832605e+00    2.684250e+08    2.227871e-08    1.624706e-10    2.074858e-08    1.916718e-09    9.700000e-01    5.820104e-01    3.213434e-01
    4.674093e+00    9.425808e+01    8.212410e+00    2.738276e+08    2.231059e-08    1.740912e-10    2.078764e-08    1.920820e-09    9.800000e-01    5.820104e-01    3.288336e-01
    4.556872e+00    8.998457e+01    8.600295e+00    2.791749e+08    2.234210e-08    1.865790e-10    2.082537e-08    1.924970e-09    9.900000e-01    5.820104e-01    3.363195e-01
    4.445081e+00    8.580098e+01    8.996195e+00    2.844642e+08    2.237335e-08    2.000020e-10    2.086181e-08    1.929179e-09    1.000000e+00    5.820104e-01    3.438015e-01
    4.338316e+00    8.170891e+01    9.400050e+00    2.896923e+08    2.240446e-08    2.144328e-10    2.089703e-08    1.933463e-09    1.010000e+00    5.820104e-01    3.512801e-01
    4.236217e+00    7.771015e+01    9.811780e+00    2.948557e+08    2.243555e-08    2.299498e-10    2.093108e-08    1.937832e-09    1.020000e+00    5.820104e-01    3.587556e-01
    4.138445e+00    7.380676e+01    1.023132e+01    2.999506e+08    2.246670e-08    2.466370e-10    2.096398e-08    1.942302e-09    1.030000e+00    5.820104e-01    3.662284e-01
    4.044699e+00    7.000078e+01    1.065859e+01    3.049731e+08    2.249803e-08    2.645846e-10    2.099579e-08    1.946885e-09    1.040000e+00    5.820104e-01    3.736988e-01
    3.954696e+00    6.629453e+01    1.109351e+01    3.099187e+08    2.252965e-08    2.838887e-10    2.102652e-08    1.951595e-09    1.050000e+00    5.820104e-01    3.811671e-01
    3.868183e+00    6.269024e+01    1.153599e+01    3.147827e+08    2.256167e-08    3.046519e-10    2.105619e-08    1.956445e-09    1.060000e+00    5.820104e-01    3.886336e-01
    3.784920e+00    5.919026e+01    1.198595e+01    3.195602e+08    2.259418e-08    3.269837e-10    2.108482e-08    1.961449e-09    1.070000e+00    5.820104e-01    3.960986e-01
    3.704689e+00    5.579692e+01    1.244327e+01    3.242456e+08    2.262729e-08    3.510001e-10    2.111241e-08    1.966620e-09    1.080000e+00    5.820104e-01    4.035623e-01
    3.627288e+00    5.251251e+01    1.290788e+01    3.288333e+08    2.266112e-08    3.768240e-10    2.113896e-08    1.971974e-09    1.090000e+00    5.820104e-01    4.110250e-01
    3.552527e+00    4.933924e+01    1.337965e+01    3.333171e+08    2.269576e-08    4.045851e-10    2.116446e-08    1.977523e-09    1.100000e+00    5.820104e-01    4.184868e-01
    3.480230e+00    4.627917e+01    1.385847e+01    3.376902e+08    2.273134e-08    4.344197e-10    2.118892e-08    1.983282e-09    1.110000e+00    5.820104e-01    4.259480e-01
    3.410231e+00    4.333422e+01    1.434422e+01    3.419454e+08    2.276796e-08    4.664706e-10    2.121229e-08    1.989266e-09    1.120000e+00    5.820104e-01    4.334088e-01
    3.342375e+00    4.050614e+01    1.483676e+01    3.460752e+08    2.280574e-08    5.008865e-10    2.123457e-08    1.995488e-09    1.130000e+00    5.820104e-01    4.408693e-01
    3.276512e+00    3.779640e+01    1.533597e+01    3.500712e+08    2.284478e-08    5.378210e-10    2.125573e-08    2.001963e-09    1.140000e+00    5.820104e-01    4.483298e-01
    3.212509e+00    3.520625e+01    1.584169e+01    3.539250e+08    2.288520e-08    5.774340e-10    2.127572e-08    2.008705e-09    1.150000e+00    5.820104e-01    4.557905e-01
    3.150229e+00    3.273656e+01    1.635375e+01    3.576269e+08    2.292711e-08    6.198870e-10    2.129452e-08    2.015728e-09    1.160000e+00    5.820104e-01    4.632514e-01
    3.089550e+00    3.038792e+01    1.687199e+01    3.611676e+08    2.297063e-08    6.653450e-10    2.131208e-08    2.023044e-09    1.170000e+00    5.820104e-01    4.707127e-01
    3.030351e+00    2.816048e+01    1.739622e+01    3.645365e+08    2.301584e-08    7.139745e-10    2.132835e-08    2.030668e-09    1.180000e+00    5.820104e-01    4.781747e-01
    2.972517e+00    2.605402e+01    1.792625e+01    3.677227e+08    2.306288e-08    7.659410e-10    2.134328e-08    2.038611e-09    1.190000e+00    5.820104e-01    4.856374e-01
    2.915940e+00    2.406782e+01    1.846187e+01    3.707147e+08    2.311184e-08    8.214070e-10    2.135684e-08    2.046884e-09    1.200000e+00    5.820104e-01    4.931010e-01
    2.860521e+00    2.220077e+01    1.900285e+01    3.735019e+08    2.316281e-08    8.805310e-10    2.136894e-08    2.055496e-09    1.210000e+00    5.820104e-01    5.005656e-01
    2.806158e+00    2.045120e+01    1.954895e+01    3.760719e+08    2.321587e-08    9.434635e-10    2.137954e-08    2.064459e-09    1.220000e+00    5.820104e-01    5.080315e-01
    2.752764e+00    1.881696e+01    2.009991e+01    3.784131e+08    2.327111e-08    1.010347e-09    2.138858e-08    2.073778e-09    1.230000e+00    5.820104e-01    5.154987e-01
    2.700257e+00    1.729545e+01    2.065546e+01    3.805149e+08    2.332859e-08    1.081309e-09    2.139600e-08    2.083461e-09    1.240000e+00    5.820104e-01    5.229674e-01
    2.648559e+00    1.588350e+01    2.121531e+01    3.823659e+08    2.338837e-08    1.156464e-09    2.140175e-08    2.093512e-09    1.250000e+00    5.820104e-01    5.304376e-01
    2.597603e+00    1.457750e+01    2.177915e+01    3.839564e+08    2.345050e-08    1.235906e-09    2.140578e-08    2.103931e-09    1.260000e+00    5.820104e-01    5.379097e-01
    2.547334e+00    1.337340e+01    2.234668e+01    3.852780e+08    2.351499e-08    1.319711e-09    2.140804e-08    2.114721e-09    1.270000e+00    5.820104e-01    5.453836e-01
    2.497708e+00    1.226675e+01    2.291754e+01    3.863239e+08    2.358186e-08    1.407930e-09    2.140847e-08    2.125878e-09    1.280000e+00    5.820104e-01    5.528595e-01
    2.448689e+00    1.125273e+01    2.349139e+01    3.870891e+08    2.365110e-08    1.500586e-09    2.140705e-08    2.137400e-09    1.290000e+00    5.820104e-01    5.603377e-01
    2.400253e+00    1.032622e+01    2.406788e+01    3.875707e+08    2.372270e-08    1.597675e-09    2.140375e-08    2.149279e-09    1.300000e+00    5.820104e-01    5.678181e-01
    2.352391e+00    9.481924e+00    2.464664e+01    3.877688e+08    2.379659e-08    1.699166e-09    2.139854e-08    2.161507e-09    1.310000e+00    5.820104e-01    5.753009e-01
    2.305104e+00    8.714370e+00    2.522733e+01    3.876860e+08    2.387271e-08    1.804992e-09    2.139140e-08    2.174074e-09    1.320000e+00    5.820104e-01    5.827863e-01
    2.258406e+00    8.018060e+00    2.580956e+01    3.873284e+08    2.395098e-08    1.915059e-09    2.138234e-08    2.186967e-09    1.330000e+00    5.820104e-01    5.902745e-01
    2.212318e+00    7.387490e+00    2.639298e+01    3.867041e+08    2.403129e-08    2.029238e-09    2.137138e-08    2.200170e-09    1.340000e+00    5.820104e-01    5.977654e-01
    2.166872e+00    6.817264e+00    2.697723e+01    3.858246e+08    2.411353e-08    2.147372e-09    2.135851e-08    2.213667e-09    1.350000e+00    5.820104e-01    6.052594e-01
    2.122100e+00    6.302132e+00    2.756198e+01    3.847026e+08    2.419755e-08    2.269272e-09    2.134378e-08    2.227441e-09    1.360000e+00    5.820104e-01    6.127564e-01
    2.078045e+00    5.837077e+00    2.814691e+01    3.833540e+08    2.428320e-08    2.394725e-09    2.132722e-08    2.241473e-09    1.370000e+00    5.820104e-01    6.202567e-01
    2.034746e+00    5.417341e+00    2.873170e+01    3.817953e+08    2.437031e-08    2.523491e-09    2.130890e-08    2.255741e-09    1.380000e+00    5.820104e-01    6.277604e-01
    1.992241e+00    5.038460e+00    2.931605e+01    3.800443e+08    2.445869e-08    2.655309e-09    2.128886e-08    2.270227e-09    1.390000e+00    5.820104e-01    6.352676e-01
    1.950571e+00    4.696308e+00    2.989971e+01    3.781199e+08    2.454818e-08    2.789901e-09    2.126720e-08    2.284909e-09    1.400000e+00    5.820104e-01    6.427785e-01
    1.909766e+00    4.387072e+00    3.048240e+01    3.760399e+08    2.463857e-08    2.926972e-09    2.113287e-08    2.176228e-09    1.410000e+00    5.820104e-01    6.502931e-01
