# sky130 nfet_01v8 gm/ID Processed Lookup Table
# Corner: sf
# Temperature: -40C
# W = 2.0 um
# L = 6 um (6000 nm)
# Columns: gm/id [1/V]  gm/gds [V/V]  id/W [A/m]  ft [Hz]  Cgg/W [F/m]  Cgd/W [F/m]  Cgs/W [F/m]  Cdb/W [F/m]  vgs [V]  vth [V]  vdsat [V]
# vdsat = BSIM4 saturation voltage (|VDS|_sat, positive); use for headroom / saturation / cascode-bias calculations
#           gm/id          gm/gds            id/W              ft           Cgg/W           Cgd/W           Cgs/W           Cdb/W             vgs             vth           vdsat
    3.313858e+01    2.517119e+02    3.972095e-05    1.205109e+04    1.738391e-08    2.314201e-12    8.397880e-09    1.001634e-09    3.400000e-01    5.755557e-01    2.988009e-02
    3.309893e+01    2.509357e+02    5.531810e-05    1.624861e+04    1.793433e-08    2.554961e-12    9.146350e-09    1.076617e-09    3.500000e-01    5.755557e-01    2.988973e-02
    3.302113e+01    2.500560e+02    7.699425e-05    2.185580e+04    1.851414e-08    2.819308e-12    9.929455e-09    1.154121e-09    3.600000e-01    5.755557e-01    2.990312e-02
    3.290911e+01    2.490677e+02    1.070621e-04    2.932674e+04    1.912090e-08    3.109126e-12    1.074401e-08    1.233792e-09    3.700000e-01    5.755557e-01    2.992168e-02
    3.276514e+01    2.479700e+02    1.486815e-04    3.925405e+04    1.975171e-08    3.426395e-12    1.158632e-08    1.315241e-09    3.800000e-01    5.755557e-01    2.994734e-02
    3.259052e+01    2.467675e+02    2.061512e-04    5.240792e+04    2.040330e-08    3.773187e-12    1.245222e-08    1.398045e-09    3.900000e-01    5.755557e-01    2.998270e-02
    3.238599e+01    2.454732e+02    2.852931e-04    6.978477e+04    2.107210e-08    4.151669e-12    1.333718e-08    1.481761e-09    4.000000e-01    5.755557e-01    3.003127e-02
    3.215220e+01    2.441114e+02    3.939533e-04    9.266814e+04    2.175430e-08    4.564108e-12    1.423640e-08    1.565930e-09    4.100000e-01    5.755557e-01    3.009773e-02
    3.189008e+01    2.427209e+02    5.426510e-04    1.227041e+05    2.244592e-08    5.012870e-12    1.514489e-08    1.650093e-09    4.200000e-01    5.755557e-01    3.018823e-02
    3.160116e+01    2.413589e+02    7.454175e-04    1.619962e+05    2.314291e-08    5.500430e-12    1.605761e-08    1.733795e-09    4.300000e-01    5.755557e-01    3.031086e-02
    3.128797e+01    2.401050e+02    1.020869e-03    2.132251e+05    2.384125e-08    6.029375e-12    1.696957e-08    1.816598e-09    4.400000e-01    5.755557e-01    3.047601e-02
    3.095397e+01    2.390633e+02    1.393584e-03    2.798001e+05    2.453702e-08    6.602410e-12    1.787593e-08    1.898088e-09    4.500000e-01    5.755557e-01    3.069693e-02
    3.060361e+01    2.383644e+02    1.895871e-03    3.660538e+05    2.522648e-08    7.222360e-12    1.877210e-08    1.977887e-09    4.600000e-01    5.755557e-01    3.099021e-02
    3.024196e+01    2.381637e+02    2.570020e-03    4.774898e+05    2.590613e-08    7.892195e-12    1.965379e-08    2.055648e-09    4.700000e-01    5.755557e-01    3.137621e-02
    2.987389e+01    2.386364e+02    3.471186e-03    6.210878e+05    2.657278e-08    8.615035e-12    2.051713e-08    2.131074e-09    4.800000e-01    5.755557e-01    3.187945e-02
    2.950305e+01    2.399680e+02    4.671044e-03    8.056683e+05    2.722355e-08    9.394145e-12    2.135869e-08    2.203909e-09    4.900000e-01    5.755557e-01    3.252869e-02
    2.913047e+01    2.423392e+02    6.262330e-03    1.042281e+06    2.785599e-08    1.023298e-11    2.217550e-08    2.273944e-09    5.000000e-01    5.755557e-01    3.335679e-02
    2.875333e+01    2.459071e+02    8.364340e-03    1.344570e+06    2.846797e-08    1.113517e-11    2.296508e-08    2.341019e-09    5.100000e-01    5.755557e-01    3.440013e-02
    2.836401e+01    2.507829e+02    1.112927e-02    1.728986e+06    2.905781e-08    1.210457e-11    2.372545e-08    2.405018e-09    5.200000e-01    5.755557e-01    3.569754e-02
    2.795016e+01    2.570095e+02    1.474902e-02    2.214734e+06    2.962416e-08    1.314524e-11    2.445510e-08    2.465870e-09    5.300000e-01    5.755557e-01    3.728882e-02
    2.749597e+01    2.645445e+02    1.946169e-02    2.823260e+06    3.016608e-08    1.426149e-11    2.515300e-08    2.523540e-09    5.400000e-01    5.755557e-01    3.921279e-02
    2.698438e+01    2.732495e+02    2.555682e-02    3.577193e+06    3.068295e-08    1.545793e-11    2.581850e-08    2.578032e-09    5.500000e-01    5.755557e-01    4.150512e-02
    2.640019e+01    2.828920e+02    3.337787e-02    4.498699e+06    3.117445e-08    1.673942e-11    2.645137e-08    2.629381e-09    5.600000e-01    5.755557e-01    4.419612e-02
    2.573287e+01    2.931575e+02    4.332068e-02    5.607371e+06    3.164058e-08    1.811115e-11    2.705170e-08    2.677649e-09    5.700000e-01    5.755557e-01    4.730875e-02
    2.497861e+01    3.036748e+02    5.582710e-02    6.917965e+06    3.208154e-08    1.957868e-11    2.761988e-08    2.722919e-09    5.800000e-01    5.755557e-01    5.085706e-02
    2.414104e+01    3.140472e+02    7.137330e-02    8.438369e+06    3.249776e-08    2.114793e-11    2.815657e-08    2.765295e-09    5.900000e-01    5.755557e-01    5.484534e-02
    2.323060e+01    3.238867e+02    9.045360e-02    1.016821e+07    3.288986e-08    2.282524e-11    2.866261e-08    2.804896e-09    6.000000e-01    5.755557e-01    5.926804e-02
    2.226277e+01    3.328452e+02    1.135615e-01    1.209836e+07    3.325858e-08    2.461737e-11    2.913904e-08    2.841849e-09    6.100000e-01    5.755557e-01    6.411035e-02
    2.125601e+01    3.406388e+02    1.411696e-01    1.421157e+07    3.360479e-08    2.653161e-11    2.958700e-08    2.876290e-09    6.200000e-01    5.755557e-01    6.934946e-02
    2.022960e+01    3.470622e+02    1.737121e-01    1.648393e+07    3.392944e-08    2.857573e-11    3.000774e-08    2.908358e-09    6.300000e-01    5.755557e-01    7.495630e-02
    1.920187e+01    3.519936e+02    2.115688e-01    1.888704e+07    3.423351e-08    3.075811e-11    3.040257e-08    2.938195e-09    6.400000e-01    5.755557e-01    8.089737e-02
    1.818896e+01    3.553901e+02    2.550568e-01    2.139037e+07    3.451807e-08    3.308772e-11    3.077283e-08    2.965946e-09    6.500000e-01    5.755557e-01    8.713672e-02
    1.720416e+01    3.572769e+02    3.044247e-01    2.396359e+07    3.478416e-08    3.557421e-11    3.111991e-08    2.991747e-09    6.600000e-01    5.755557e-01    9.363766e-02
    1.625769e+01    3.577323e+02    3.598537e-01    2.657843e+07    3.503286e-08    3.822796e-11    3.144514e-08    3.015738e-09    6.700000e-01    5.755557e-01    1.003643e-01
    1.535682e+01    3.568730e+02    4.214621e-01    2.921011e+07    3.526523e-08    4.106012e-11    3.174989e-08    3.038049e-09    6.800000e-01    5.755557e-01    1.072825e-01
    1.450612e+01    3.548376e+02    4.893125e-01    3.183802e+07    3.548229e-08    4.408271e-11    3.203545e-08    3.058808e-09    6.900000e-01    5.755557e-01    1.143610e-01
    1.370796e+01    3.517748e+02    5.634210e-01    3.444608e+07    3.568505e-08    4.730868e-11    3.230308e-08    3.078136e-09    7.000000e-01    5.755557e-01    1.215717e-01
    1.296292e+01    3.478327e+02    6.437675e-01    3.702253e+07    3.587450e-08    5.075195e-11    3.255399e-08    3.096148e-09    7.100000e-01    5.755557e-01    1.288897e-01
    1.227020e+01    3.431517e+02    7.303035e-01    3.955953e+07    3.605155e-08    5.442755e-11    3.278938e-08    3.112953e-09    7.200000e-01    5.755557e-01    1.362937e-01
    1.162804e+01    3.378598e+02    8.229620e-01    4.205257e+07    3.621711e-08    5.835165e-11    3.301031e-08    3.128653e-09    7.300000e-01    5.755557e-01    1.437655e-01
    1.103398e+01    3.320694e+02    9.216645e-01    4.449976e+07    3.637202e-08    6.254175e-11    3.321785e-08    3.143345e-09    7.400000e-01    5.755557e-01    1.512901e-01
    1.048516e+01    3.258774e+02    1.026326e+00    4.690126e+07    3.651707e-08    6.701675e-11    3.341296e-08    3.157117e-09    7.500000e-01    5.755557e-01    1.588549e-01
    9.978515e+00    3.193650e+02    1.136859e+00    4.925872e+07    3.665302e-08    7.179690e-11    3.359658e-08    3.170055e-09    7.600000e-01    5.755557e-01    1.664500e-01
    9.510885e+00    3.125986e+02    1.253181e+00    5.157466e+07    3.678059e-08    7.690425e-11    3.376956e-08    3.182234e-09    7.700000e-01    5.755557e-01    1.740672e-01
    9.079167e+00    3.056319e+02    1.375211e+00    5.385229e+07    3.690042e-08    8.236250e-11    3.393270e-08    3.193728e-09    7.800000e-01    5.755557e-01    1.817003e-01
    8.680351e+00    2.985071e+02    1.502873e+00    5.609493e+07    3.701316e-08    8.819735e-11    3.408676e-08    3.204604e-09    7.900000e-01    5.755557e-01    1.893444e-01
    8.311590e+00    2.912571e+02    1.636099e+00    5.830598e+07    3.711937e-08    9.443645e-11    3.423242e-08    3.214924e-09    8.000000e-01    5.755557e-01    1.969959e-01
    7.970225e+00    2.839073e+02    1.774825e+00    6.048873e+07    3.721961e-08    1.011098e-10    3.437033e-08    3.224746e-09    8.100000e-01    5.755557e-01    2.046520e-01
    7.653788e+00    2.764766e+02    1.918996e+00    6.264614e+07    3.731438e-08    1.082499e-10    3.450107e-08    3.234124e-09    8.200000e-01    5.755557e-01    2.123108e-01
    7.360012e+00    2.689793e+02    2.068560e+00    6.478092e+07    3.740415e-08    1.158916e-10    3.462519e-08    3.243108e-09    8.300000e-01    5.755557e-01    2.199710e-01
    7.086829e+00    2.614265e+02    2.223474e+00    6.689536e+07    3.748937e-08    1.240730e-10    3.474320e-08    3.251743e-09    8.400000e-01    5.755557e-01    2.276316e-01
    6.832360e+00    2.538264e+02    2.383695e+00    6.899146e+07    3.757044e-08    1.328351e-10    3.485555e-08    3.260074e-09    8.500000e-01    5.755557e-01    2.352924e-01
    6.594907e+00    2.461859e+02    2.549188e+00    7.107086e+07    3.764775e-08    1.422222e-10    3.496267e-08    3.268141e-09    8.600000e-01    5.755557e-01    2.429530e-01
    6.372930e+00    2.385108e+02    2.719918e+00    7.313483e+07    3.772166e-08    1.522825e-10    3.506495e-08    3.275980e-09    8.700000e-01    5.755557e-01    2.506135e-01
    6.165044e+00    2.308067e+02    2.895855e+00    7.518435e+07    3.779250e-08    1.630678e-10    3.516275e-08    3.283629e-09    8.800000e-01    5.755557e-01    2.582741e-01
    5.970000e+00    2.230790e+02    3.076970e+00    7.722011e+07    3.786058e-08    1.746347e-10    3.525638e-08    3.291119e-09    8.900000e-01    5.755557e-01    2.659350e-01
    5.786681e+00    2.153339e+02    3.263236e+00    7.924262e+07    3.792620e-08    1.870438e-10    3.534614e-08    3.298482e-09    9.000000e-01    5.755557e-01    2.735966e-01
    5.614073e+00    2.075779e+02    3.454628e+00    8.125203e+07    3.798964e-08    2.003611e-10    3.543231e-08    3.305748e-09    9.100000e-01    5.755557e-01    2.812593e-01
    5.451271e+00    1.998184e+02    3.651118e+00    8.324840e+07    3.805116e-08    2.146579e-10    3.551512e-08    3.312946e-09    9.200000e-01    5.755557e-01    2.889235e-01
    5.297457e+00    1.920641e+02    3.852684e+00    8.523157e+07    3.811101e-08    2.300114e-10    3.559481e-08    3.320103e-09    9.300000e-01    5.755557e-01    2.965897e-01
    5.151894e+00    1.843245e+02    4.059299e+00    8.720120e+07    3.816942e-08    2.465048e-10    3.567155e-08    3.327245e-09    9.400000e-01    5.755557e-01    3.042583e-01
    5.013920e+00    1.766098e+02    4.270937e+00    8.915686e+07    3.822662e-08    2.642283e-10    3.574555e-08    3.334398e-09    9.500000e-01    5.755557e-01    3.119296e-01
    4.882937e+00    1.689320e+02    4.487572e+00    9.109795e+07    3.828283e-08    2.832791e-10    3.581695e-08    3.341586e-09    9.600000e-01    5.755557e-01    3.196042e-01
    4.758401e+00    1.613032e+02    4.709178e+00    9.302376e+07    3.833826e-08    3.037623e-10    3.588591e-08    3.348834e-09    9.700000e-01    5.755557e-01    3.272824e-01
    4.639823e+00    1.537369e+02    4.935726e+00    9.493347e+07    3.839311e-08    3.257911e-10    3.595254e-08    3.356165e-09    9.800000e-01    5.755557e-01    3.349645e-01
    4.526760e+00    1.462472e+02    5.167185e+00    9.682616e+07    3.844757e-08    3.494874e-10    3.601697e-08    3.363604e-09    9.900000e-01    5.755557e-01    3.426510e-01
    4.418805e+00    1.388487e+02    5.403525e+00    9.870079e+07    3.850185e-08    3.749826e-10    3.607927e-08    3.371173e-09    1.000000e+00    5.755557e-01    3.503420e-01
    4.315590e+00    1.315566e+02    5.644715e+00    1.005562e+08    3.855613e-08    4.024179e-10    3.613955e-08    3.378897e-09    1.010000e+00    5.755557e-01    3.580380e-01
    4.216778e+00    1.243863e+02    5.890720e+00    1.023912e+08    3.861060e-08    4.319448e-10    3.619786e-08    3.386798e-09    1.020000e+00    5.755557e-01    3.657392e-01
    4.122065e+00    1.173533e+02    6.141500e+00    1.042045e+08    3.866545e-08    4.637254e-10    3.625426e-08    3.394900e-09    1.030000e+00    5.755557e-01    3.734459e-01
    4.031164e+00    1.104730e+02    6.397020e+00    1.059944e+08    3.872088e-08    4.979335e-10    3.630880e-08    3.403227e-09    1.040000e+00    5.755557e-01    3.811582e-01
    3.943818e+00    1.037604e+02    6.657235e+00    1.077596e+08    3.877706e-08    5.347545e-10    3.636151e-08    3.411803e-09    1.050000e+00    5.755557e-01    3.888765e-01
    3.859783e+00    9.723022e+01    6.922105e+00    1.094982e+08    3.883419e-08    5.743850e-10    3.641240e-08    3.420652e-09    1.060000e+00    5.755557e-01    3.966010e-01
    3.778841e+00    9.089637e+01    7.191575e+00    1.112083e+08    3.889246e-08    6.170355e-10    3.646149e-08    3.429799e-09    1.070000e+00    5.755557e-01    4.043317e-01
    3.700780e+00    8.477185e+01    7.465605e+00    1.128880e+08    3.895206e-08    6.629265e-10    3.650878e-08    3.439268e-09    1.080000e+00    5.755557e-01    4.120690e-01
    3.625410e+00    7.886866e+01    7.744130e+00    1.145351e+08    3.901319e-08    7.122925e-10    3.655424e-08    3.449084e-09    1.090000e+00    5.755557e-01    4.198130e-01
    3.552550e+00    7.319757e+01    8.027095e+00    1.161470e+08    3.907605e-08    7.653785e-10    3.659787e-08    3.459272e-09    1.100000e+00    5.755557e-01    4.275639e-01
    3.482026e+00    6.776798e+01    8.314440e+00    1.177213e+08    3.914083e-08    8.224420e-10    3.663962e-08    3.469857e-09    1.110000e+00    5.755557e-01    4.353217e-01
    3.413678e+00    6.258779e+01    8.606095e+00    1.192551e+08    3.920773e-08    8.837500e-10    3.667944e-08    3.480865e-09    1.120000e+00    5.755557e-01    4.430867e-01
    3.347353e+00    5.766330e+01    8.901985e+00    1.207454e+08    3.927696e-08    9.495795e-10    3.671731e-08    3.492319e-09    1.130000e+00    5.755557e-01    4.508590e-01
    3.282906e+00    5.299906e+01    9.202025e+00    1.221888e+08    3.934872e-08    1.020215e-09    3.675314e-08    3.504245e-09    1.140000e+00    5.755557e-01    4.586387e-01
    3.220193e+00    4.859803e+01    9.506140e+00    1.235818e+08    3.942320e-08    1.095946e-09    3.678687e-08    3.516664e-09    1.150000e+00    5.755557e-01    4.664260e-01
    3.159084e+00    4.446122e+01    9.814225e+00    1.249205e+08    3.950061e-08    1.177067e-09    3.681842e-08    3.529603e-09    1.160000e+00    5.755557e-01    4.742210e-01
    3.099447e+00    4.058801e+01    1.012619e+01    1.262008e+08    3.958112e-08    1.263873e-09    3.684770e-08    3.543081e-09    1.170000e+00    5.755557e-01    4.820237e-01
    3.041159e+00    3.697594e+01    1.044190e+01    1.274183e+08    3.966494e-08    1.356657e-09    3.687463e-08    3.557120e-09    1.180000e+00    5.755557e-01    4.898343e-01
    2.984099e+00    3.362087e+01    1.076125e+01    1.285685e+08    3.975224e-08    1.455705e-09    3.689912e-08    3.571737e-09    1.190000e+00    5.755557e-01    4.976530e-01
    2.928153e+00    3.051707e+01    1.108411e+01    1.296464e+08    3.984318e-08    1.561295e-09    3.692105e-08    3.586951e-09    1.200000e+00    5.755557e-01    5.054798e-01
    2.873211e+00    2.765727e+01    1.141032e+01    1.306472e+08    3.993791e-08    1.673689e-09    3.694033e-08    3.602775e-09    1.210000e+00    5.755557e-01    5.133148e-01
    2.819173e+00    2.503288e+01    1.173973e+01    1.315659e+08    4.003656e-08    1.793127e-09    3.695686e-08    3.619221e-09    1.220000e+00    5.755557e-01    5.211582e-01
    2.765939e+00    2.263402e+01    1.207219e+01    1.323974e+08    4.013926e-08    1.919829e-09    3.697054e-08    3.636299e-09    1.230000e+00    5.755557e-01    5.290100e-01
    2.713427e+00    2.044979e+01    1.240750e+01    1.331371e+08    4.024607e-08    2.053984e-09    3.698128e-08    3.654015e-09    1.240000e+00    5.755557e-01    5.368704e-01
    2.661560e+00    1.846845e+01    1.274546e+01    1.337803e+08    4.035708e-08    2.195743e-09    3.698897e-08    3.672370e-09    1.250000e+00    5.755557e-01    5.447395e-01
    2.610273e+00    1.667757e+01    1.308588e+01    1.343232e+08    4.047232e-08    2.345222e-09    3.699354e-08    3.691364e-09    1.260000e+00    5.755557e-01    5.526173e-01
    2.559518e+00    1.506428e+01    1.342854e+01    1.347625e+08    4.059178e-08    2.502489e-09    3.699492e-08    3.710991e-09    1.270000e+00    5.755557e-01    5.605039e-01
    2.509258e+00    1.361546e+01    1.377322e+01    1.350957e+08    4.071544e-08    2.667565e-09    3.699303e-08    3.731243e-09    1.280000e+00    5.755557e-01    5.683996e-01
    2.459475e+00    1.231797e+01    1.411967e+01    1.353215e+08    4.084324e-08    2.840417e-09    3.698784e-08    3.752105e-09    1.290000e+00    5.755557e-01    5.763042e-01
    2.410163e+00    1.115883e+01    1.446768e+01    1.354396e+08    4.097507e-08    3.020959e-09    3.697931e-08    3.773563e-09    1.300000e+00    5.755557e-01    5.842181e-01
    2.361337e+00    1.012537e+01    1.481698e+01    1.354509e+08    4.111080e-08    3.209049e-09    3.696742e-08    3.795595e-09    1.310000e+00    5.755557e-01    5.921412e-01
    2.313022e+00    9.205442e+00    1.516735e+01    1.353577e+08    4.125026e-08    3.404485e-09    3.695218e-08    3.818178e-09    1.320000e+00    5.755557e-01    6.000737e-01
    2.265254e+00    8.387501e+00    1.551855e+01    1.351633e+08    4.139325e-08    3.607016e-09    3.693361e-08    3.841284e-09    1.330000e+00    5.755557e-01    6.080157e-01
    2.218083e+00    7.660723e+00    1.587035e+01    1.348723e+08    4.153951e-08    3.816328e-09    3.691177e-08    3.864884e-09    1.340000e+00    5.755557e-01    6.159672e-01
    2.171560e+00    7.015076e+00    1.622252e+01    1.344903e+08    4.168880e-08    4.032065e-09    3.688669e-08    3.888946e-09    1.350000e+00    5.755557e-01    6.239285e-01
    2.125744e+00    6.441350e+00    1.657484e+01    1.340233e+08    4.184082e-08    4.253818e-09    3.685848e-08    3.913437e-09    1.360000e+00    5.755557e-01    6.318994e-01
    2.080689e+00    5.931175e+00    1.692713e+01    1.334782e+08    4.199527e-08    4.481140e-09    3.682722e-08    3.938322e-09    1.370000e+00    5.755557e-01    6.398803e-01
    2.036451e+00    5.477011e+00    1.727918e+01    1.328621e+08    4.215180e-08    4.713550e-09    3.679305e-08    3.963566e-09    1.380000e+00    5.755557e-01    6.478712e-01
    1.993077e+00    5.072110e+00    1.763084e+01    1.321823e+08    4.231008e-08    4.950535e-09    3.655787e-08    3.770921e-09    1.390000e+00    5.755557e-01    6.558721e-01
    1.950610e+00    4.710487e+00    1.798192e+01    1.314459e+08    4.246976e-08    5.191560e-09    3.650735e-08    3.785012e-09    1.400000e+00    5.755557e-01    6.638832e-01
    1.909086e+00    4.386849e+00    1.833230e+01    1.306599e+08    4.263049e-08    5.436085e-09    3.645391e-08    3.798898e-09    1.410000e+00    5.755557e-01    6.719046e-01
    1.868530e+00    4.096541e+00    1.868184e+01    1.298309e+08    4.279192e-08    5.683550e-09    3.639773e-08    3.812545e-09    1.420000e+00    5.755557e-01    6.799365e-01
