# sky130 nfet_01v8 gm/ID Processed Lookup Table
# Corner: sf
# Temperature: -40C
# W = 2.0 um
# L = 2.5 um (2500 nm)
# Columns: gm/id [1/V]  gm/gds [V/V]  id/W [A/m]  ft [Hz]  Cgg/W [F/m]  Cgd/W [F/m]  Cgs/W [F/m]  Cdb/W [F/m]  vgs [V]  vth [V]  vdsat [V]
# vdsat = BSIM4 saturation voltage (|VDS|_sat, positive); use for headroom / saturation / cascode-bias calculations
#           gm/id          gm/gds            id/W              ft           Cgg/W           Cgd/W           Cgs/W           Cdb/W             vgs             vth           vdsat
    3.358408e+01    1.645859e+02    5.197115e-05    3.993808e+04    6.955505e-09    7.840830e-13    3.082409e-09    3.643758e-10    3.400000e-01    5.898099e-01    2.994716e-02
    3.355822e+01    1.642056e+02    7.270620e-05    5.417926e+04    7.167330e-09    8.660535e-13    3.372114e-09    3.931614e-10    3.500000e-01    5.898099e-01    2.995224e-02
    3.350238e+01    1.637678e+02    1.016721e-04    7.333255e+04    7.392665e-09    9.561920e-13    3.677844e-09    4.231517e-10    3.600000e-01    5.898099e-01    2.995935e-02
    3.341939e+01    1.632667e+02    1.420792e-04    9.903316e+04    7.630770e-09    1.055169e-12    3.998623e-09    4.542306e-10    3.700000e-01    5.898099e-01    2.996925e-02
    3.331062e+01    1.626974e+02    1.983544e-04    1.334382e+05    7.880700e-09    1.163687e-12    4.333225e-09    4.862619e-10    3.800000e-01    5.898099e-01    2.998304e-02
    3.317646e+01    1.620563e+02    2.765833e-04    1.793832e+05    8.141310e-09    1.282481e-12    4.680193e-09    5.190925e-10    3.900000e-01    5.898099e-01    3.000219e-02
    3.301660e+01    1.613421e+02    3.850985e-04    2.405810e+05    8.411295e-09    1.412319e-12    5.037855e-09    5.525545e-10    4.000000e-01    5.898099e-01    3.002871e-02
    3.283045e+01    1.605573e+02    5.352620e-04    3.218727e+05    8.689190e-09    1.553999e-12    5.404370e-09    5.864695e-10    4.100000e-01    5.898099e-01    3.006534e-02
    3.261738e+01    1.597092e+02    7.424965e-04    4.295417e+05    8.973425e-09    1.708356e-12    5.777750e-09    6.206510e-10    4.200000e-01    5.898099e-01    3.011577e-02
    3.237700e+01    1.588124e+02    1.027633e-03    5.717075e+05    9.262340e-09    1.876253e-12    6.155920e-09    6.549100e-10    4.300000e-01    5.898099e-01    3.018490e-02
    3.210949e+01    1.578910e+02    1.418660e-03    7.588151e+05    9.554230e-09    2.058590e-12    6.536760e-09    6.890580e-10    4.400000e-01    5.898099e-01    3.027927e-02
    3.181585e+01    1.569806e+02    1.952987e-03    1.004251e+06    9.847380e-09    2.256303e-12    6.918150e-09    7.229120e-10    4.500000e-01    5.898099e-01    3.040738e-02
    3.149808e+01    1.561306e+02    2.680354e-03    1.325115e+06    1.014011e-08    2.470363e-12    7.298005e-09    7.562970e-10    4.600000e-01    5.898099e-01    3.058026e-02
    3.115938e+01    1.554066e+02    3.666553e-03    1.743210e+06    1.043079e-08    2.701781e-12    7.674340e-09    7.890505e-10    4.700000e-01    5.898099e-01    3.081198e-02
    3.080391e+01    1.548903e+02    4.998213e-03    2.286288e+06    1.071790e-08    2.951613e-12    8.045285e-09    8.210250e-10    4.800000e-01    5.898099e-01    3.112013e-02
    3.043645e+01    1.546786e+02    6.788910e-03    2.989651e+06    1.100003e-08    3.220956e-12    8.409135e-09    8.520895e-10    4.900000e-01    5.898099e-01    3.152639e-02
    3.006160e+01    1.548798e+02    9.186960e-03    3.898100e+06    1.127589e-08    3.510961e-12    8.764360e-09    8.821315e-10    5.000000e-01    5.898099e-01    3.205682e-02
    2.968259e+01    1.556064e+02    1.238528e-02    5.068235e+06    1.154439e-08    3.822829e-12    9.109625e-09    9.110580e-10    5.100000e-01    5.898099e-01    3.274197e-02
    2.929993e+01    1.569648e+02    1.663360e-02    6.570874e+06    1.180456e-08    4.157823e-12    9.443805e-09    9.387955e-10    5.200000e-01    5.898099e-01    3.361670e-02
    2.891004e+01    1.590413e+02    2.225316e-02    8.493182e+06    1.205563e-08    4.517269e-12    9.765985e-09    9.652890e-10    5.300000e-01    5.898099e-01    3.471943e-02
    2.850445e+01    1.618871e+02    2.965332e-02    1.093977e+07    1.229696e-08    4.902562e-12    1.007545e-08    9.905025e-10    5.400000e-01    5.898099e-01    3.609098e-02
    2.806990e+01    1.655038e+02    3.934924e-02    1.403177e+07    1.252809e-08    5.315175e-12    1.037168e-08    1.014417e-09    5.500000e-01    5.898099e-01    3.777277e-02
    2.758977e+01    1.698314e+02    5.197800e-02    1.790282e+07    1.274872e-08    5.756670e-12    1.065436e-08    1.037027e-09    5.600000e-01    5.898099e-01    3.980471e-02
    2.704672e+01    1.747457e+02    6.831040e-02    2.269142e+07    1.295866e-08    6.228685e-12    1.092332e-08    1.058344e-09    5.700000e-01    5.898099e-01    4.222272e-02
    2.642573e+01    1.800602e+02    8.925470e-02    2.852943e+07    1.315786e-08    6.732980e-12    1.117856e-08    1.078389e-09    5.800000e-01    5.898099e-01    4.505629e-02
    2.571720e+01    1.855406e+02    1.158486e-01    3.552801e+07    1.334639e-08    7.271410e-12    1.142020e-08    1.097194e-09    5.900000e-01    5.898099e-01    4.832641e-02
    2.491888e+01    1.909250e+02    1.492374e-01    4.376313e+07    1.352440e-08    7.845950e-12    1.164849e-08    1.114797e-09    6.000000e-01    5.898099e-01    5.204402e-02
    2.403632e+01    1.959483e+02    1.906388e-01    5.326335e+07    1.369213e-08    8.458705e-12    1.186375e-08    1.131249e-09    6.100000e-01    5.898099e-01    5.620926e-02
    2.308197e+01    2.003673e+02    2.412961e-01    6.400265e+07    1.384986e-08    9.111920e-12    1.206640e-08    1.146597e-09    6.200000e-01    5.898099e-01    6.081163e-02
    2.207322e+01    2.039820e+02    3.024265e-01    7.589980e+07    1.399797e-08    9.807990e-12    1.225690e-08    1.160898e-09    6.300000e-01    5.898099e-01    6.583097e-02
    2.103000e+01    2.066483e+02    3.751682e-01    8.882463e+07    1.413683e-08    1.054948e-11    1.243579e-08    1.174208e-09    6.400000e-01    5.898099e-01    7.123905e-02
    1.997258e+01    2.082845e+02    4.605359e-01    1.026099e+08    1.426686e-08    1.133912e-11    1.260360e-08    1.186586e-09    6.500000e-01    5.898099e-01    7.700164e-02
    1.891981e+01    2.088696e+02    5.593870e-01    1.170668e+08    1.438851e-08    1.217984e-11    1.276090e-08    1.198091e-09    6.600000e-01    5.898099e-01    8.308070e-02
    1.788786e+01    2.084349e+02    6.724025e-01    1.319998e+08    1.450222e-08    1.307478e-11    1.290827e-08    1.208779e-09    6.700000e-01    5.898099e-01    8.943645e-02
    1.688976e+01    2.070527e+02    8.000805e-01    1.472222e+08    1.460845e-08    1.402728e-11    1.304629e-08    1.218708e-09    6.800000e-01    5.898099e-01    9.602927e-02
    1.593520e+01    2.048238e+02    9.427465e-01    1.625660e+08    1.470764e-08    1.504097e-11    1.317551e-08    1.227933e-09    6.900000e-01    5.898099e-01    1.028212e-01
    1.503073e+01    2.018645e+02    1.100570e+00    1.778890e+08    1.480024e-08    1.611969e-11    1.329651e-08    1.236506e-09    7.000000e-01    5.898099e-01    1.097768e-01
    1.418024e+01    1.982968e+02    1.273586e+00    1.930787e+08    1.488668e-08    1.726759e-11    1.340983e-08    1.244477e-09    7.100000e-01    5.898099e-01    1.168644e-01
    1.338536e+01    1.942400e+02    1.461727e+00    2.080516e+08    1.496736e-08    1.848911e-11    1.351597e-08    1.251895e-09    7.200000e-01    5.898099e-01    1.240559e-01
    1.264600e+01    1.898049e+02    1.664841e+00    2.227512e+08    1.504270e-08    1.978903e-11    1.361544e-08    1.258804e-09    7.300000e-01    5.898099e-01    1.313269e-01
    1.196076e+01    1.850902e+02    1.882723e+00    2.371441e+08    1.511308e-08    2.117248e-11    1.370873e-08    1.265247e-09    7.400000e-01    5.898099e-01    1.386569e-01
    1.132736e+01    1.801815e+02    2.115133e+00    2.512162e+08    1.517885e-08    2.264496e-11    1.379626e-08    1.271265e-09    7.500000e-01    5.898099e-01    1.460289e-01
    1.074292e+01    1.751501e+02    2.361813e+00    2.649676e+08    1.524036e-08    2.421240e-11    1.387847e-08    1.276893e-09    7.600000e-01    5.898099e-01    1.534290e-01
    1.020423e+01    1.700543e+02    2.622501e+00    2.784090e+08    1.529793e-08    2.588116e-11    1.395575e-08    1.282168e-09    7.700000e-01    5.898099e-01    1.608459e-01
    9.707923e+00    1.649406e+02    2.896941e+00    2.915579e+08    1.535187e-08    2.765810e-11    1.402846e-08    1.287121e-09    7.800000e-01    5.898099e-01    1.682708e-01
    9.250645e+00    1.598450e+02    3.184887e+00    3.044363e+08    1.540245e-08    2.955058e-11    1.409696e-08    1.291782e-09    7.900000e-01    5.898099e-01    1.756970e-01
    8.829111e+00    1.547946e+02    3.486112e+00    3.170671e+08    1.544996e-08    3.156655e-11    1.416157e-08    1.296179e-09    8.000000e-01    5.898099e-01    1.831191e-01
    8.440203e+00    1.498092e+02    3.800406e+00    3.294745e+08    1.549463e-08    3.371453e-11    1.422259e-08    1.300337e-09    8.100000e-01    5.898099e-01    1.905335e-01
    8.080982e+00    1.449029e+02    4.127575e+00    3.416809e+08    1.553670e-08    3.600373e-11    1.428028e-08    1.304281e-09    8.200000e-01    5.898099e-01    1.979373e-01
    7.748731e+00    1.400850e+02    4.467448e+00    3.537072e+08    1.557638e-08    3.844404e-11    1.433491e-08    1.308032e-09    8.300000e-01    5.898099e-01    2.053287e-01
    7.440948e+00    1.353613e+02    4.819867e+00    3.655721e+08    1.561387e-08    4.104614e-11    1.438671e-08    1.311610e-09    8.400000e-01    5.898099e-01    2.127066e-01
    7.155351e+00    1.307351e+02    5.184690e+00    3.772917e+08    1.564936e-08    4.382152e-11    1.443590e-08    1.315034e-09    8.500000e-01    5.898099e-01    2.200703e-01
    6.889865e+00    1.262074e+02    5.561790e+00    3.888801e+08    1.568302e-08    4.678259e-11    1.448266e-08    1.318323e-09    8.600000e-01    5.898099e-01    2.274196e-01
    6.642611e+00    1.217780e+02    5.951055e+00    4.003484e+08    1.571502e-08    4.994270e-11    1.452721e-08    1.321491e-09    8.700000e-01    5.898099e-01    2.347544e-01
    6.411908e+00    1.174459e+02    6.352370e+00    4.117057e+08    1.574549e-08    5.331625e-11    1.456969e-08    1.324554e-09    8.800000e-01    5.898099e-01    2.420751e-01
    6.196229e+00    1.132093e+02    6.765640e+00    4.229590e+08    1.577460e-08    5.691875e-11    1.461026e-08    1.327526e-09    8.900000e-01    5.898099e-01    2.493820e-01
    5.994215e+00    1.090663e+02    7.190765e+00    4.341135e+08    1.580245e-08    6.076700e-11    1.464905e-08    1.330418e-09    9.000000e-01    5.898099e-01    2.566758e-01
    5.804629e+00    1.050147e+02    7.627670e+00    4.451725e+08    1.582917e-08    6.487905e-11    1.468621e-08    1.333245e-09    9.100000e-01    5.898099e-01    2.639569e-01
    5.626381e+00    1.010523e+02    8.076255e+00    4.561383e+08    1.585488e-08    6.927435e-11    1.472184e-08    1.336018e-09    9.200000e-01    5.898099e-01    2.712260e-01
    5.458482e+00    9.717726e+01    8.536440e+00    4.670112e+08    1.587967e-08    7.397390e-11    1.475605e-08    1.338746e-09    9.300000e-01    5.898099e-01    2.784837e-01
    5.300043e+00    9.338766e+01    9.008145e+00    4.777908e+08    1.590366e-08    7.900040e-11    1.478894e-08    1.341441e-09    9.400000e-01    5.898099e-01    2.857307e-01
    5.150271e+00    8.968182e+01    9.491285e+00    4.884761e+08    1.592693e-08    8.437820e-11    1.482059e-08    1.344110e-09    9.500000e-01    5.898099e-01    2.929675e-01
    5.008452e+00    8.605844e+01    9.985770e+00    4.990641e+08    1.594957e-08    9.013370e-11    1.485109e-08    1.346766e-09    9.600000e-01    5.898099e-01    3.001947e-01
    4.873946e+00    8.251643e+01    1.049152e+01    5.095528e+08    1.597166e-08    9.629520e-11    1.488050e-08    1.349416e-09    9.700000e-01    5.898099e-01    3.074129e-01
    4.746170e+00    7.905486e+01    1.100845e+01    5.199382e+08    1.599328e-08    1.028933e-10    1.490890e-08    1.352067e-09    9.800000e-01    5.898099e-01    3.146226e-01
    4.624599e+00    7.567297e+01    1.153645e+01    5.302154e+08    1.601452e-08    1.099609e-10    1.493632e-08    1.354730e-09    9.900000e-01    5.898099e-01    3.218243e-01
    4.508763e+00    7.237035e+01    1.207544e+01    5.403803e+08    1.603545e-08    1.175333e-10    1.496284e-08    1.357412e-09    1.000000e+00    5.898099e-01    3.290186e-01
    4.398233e+00    6.914667e+01    1.262532e+01    5.504277e+08    1.605611e-08    1.256486e-10    1.498849e-08    1.360120e-09    1.010000e+00    5.898099e-01    3.362057e-01
    4.292620e+00    6.600195e+01    1.318599e+01    5.603519e+08    1.607661e-08    1.343478e-10    1.501330e-08    1.362863e-09    1.020000e+00    5.898099e-01    3.433862e-01
    4.191575e+00    6.293618e+01    1.375734e+01    5.701470e+08    1.609700e-08    1.436749e-10    1.503733e-08    1.365649e-09    1.030000e+00    5.898099e-01    3.505605e-01
    4.094768e+00    5.994951e+01    1.433925e+01    5.798061e+08    1.611733e-08    1.536768e-10    1.506058e-08    1.368485e-09    1.040000e+00    5.898099e-01    3.577288e-01
    4.001908e+00    5.704219e+01    1.493162e+01    5.893222e+08    1.613769e-08    1.644042e-10    1.508310e-08    1.371378e-09    1.050000e+00    5.898099e-01    3.648916e-01
    3.912727e+00    5.421464e+01    1.553430e+01    5.986882e+08    1.615812e-08    1.759110e-10    1.510489e-08    1.374337e-09    1.060000e+00    5.898099e-01    3.720491e-01
    3.826973e+00    5.146725e+01    1.614720e+01    6.078958e+08    1.617870e-08    1.882549e-10    1.512597e-08    1.377369e-09    1.070000e+00    5.898099e-01    3.792017e-01
    3.744422e+00    4.880051e+01    1.677016e+01    6.169369e+08    1.619949e-08    2.014977e-10    1.514636e-08    1.380483e-09    1.080000e+00    5.898099e-01    3.863496e-01
    3.664860e+00    4.621493e+01    1.740304e+01    6.258021e+08    1.622055e-08    2.157046e-10    1.516606e-08    1.383685e-09    1.090000e+00    5.898099e-01    3.934931e-01
    3.588093e+00    4.371103e+01    1.804570e+01    6.344823e+08    1.624194e-08    2.309454e-10    1.518507e-08    1.386984e-09    1.100000e+00    5.898099e-01    4.006325e-01
    3.513938e+00    4.128929e+01    1.869798e+01    6.429666e+08    1.626375e-08    2.472939e-10    1.520340e-08    1.390387e-09    1.110000e+00    5.898099e-01    4.077681e-01
    3.442228e+00    3.895022e+01    1.935972e+01    6.512446e+08    1.628600e-08    2.648280e-10    1.522102e-08    1.393903e-09    1.120000e+00    5.898099e-01    4.149000e-01
    3.372807e+00    3.669427e+01    2.003073e+01    6.593052e+08    1.630880e-08    2.836299e-10    1.523796e-08    1.397541e-09    1.130000e+00    5.898099e-01    4.220284e-01
    3.305521e+00    3.452178e+01    2.071085e+01    6.671349e+08    1.633218e-08    3.037857e-10    1.525418e-08    1.401308e-09    1.140000e+00    5.898099e-01    4.291537e-01
    3.240237e+00    3.243310e+01    2.139987e+01    6.747215e+08    1.635624e-08    3.253859e-10    1.526967e-08    1.405211e-09    1.150000e+00    5.898099e-01    4.362760e-01
    3.176822e+00    3.042844e+01    2.209759e+01    6.820509e+08    1.638103e-08    3.485241e-10    1.528441e-08    1.409260e-09    1.160000e+00    5.898099e-01    4.433955e-01
    3.115150e+00    2.850791e+01    2.280380e+01    6.891084e+08    1.640660e-08    3.732980e-10    1.529838e-08    1.413463e-09    1.170000e+00    5.898099e-01    4.505125e-01
    3.055103e+00    2.667147e+01    2.351826e+01    6.958773e+08    1.643306e-08    3.998077e-10    1.531156e-08    1.417827e-09    1.180000e+00    5.898099e-01    4.576270e-01
    2.996572e+00    2.491900e+01    2.424073e+01    7.023426e+08    1.646044e-08    4.281564e-10    1.532392e-08    1.422360e-09    1.190000e+00    5.898099e-01    4.647394e-01
    2.939450e+00    2.325016e+01    2.497095e+01    7.084860e+08    1.648883e-08    4.584486e-10    1.533542e-08    1.427071e-09    1.200000e+00    5.898099e-01    4.718499e-01
    2.883634e+00    2.166448e+01    2.570865e+01    7.142897e+08    1.651830e-08    4.907902e-10    1.534603e-08    1.431966e-09    1.210000e+00    5.898099e-01    4.789585e-01
    2.829030e+00    2.016127e+01    2.645354e+01    7.197349e+08    1.654889e-08    5.252870e-10    1.535572e-08    1.437052e-09    1.220000e+00    5.898099e-01    4.860656e-01
    2.775547e+00    1.873966e+01    2.720530e+01    7.248030e+08    1.658068e-08    5.620435e-10    1.536445e-08    1.442335e-09    1.230000e+00    5.898099e-01    4.931712e-01
    2.723099e+00    1.739854e+01    2.796362e+01    7.294741e+08    1.661373e-08    6.011625e-10    1.537218e-08    1.447823e-09    1.240000e+00    5.898099e-01    5.002756e-01
    2.671607e+00    1.613659e+01    2.872814e+01    7.337296e+08    1.664808e-08    6.427435e-10    1.537886e-08    1.453519e-09    1.250000e+00    5.898099e-01    5.073790e-01
    2.620996e+00    1.495226e+01    2.949850e+01    7.375497e+08    1.668381e-08    6.868800e-10    1.538447e-08    1.459429e-09    1.260000e+00    5.898099e-01    5.144816e-01
    2.571199e+00    1.384373e+01    3.027432e+01    7.409172e+08    1.672094e-08    7.336595e-10    1.538897e-08    1.465556e-09    1.270000e+00    5.898099e-01    5.215834e-01
    2.522153e+00    1.280896e+01    3.105519e+01    7.438142e+08    1.675951e-08    7.831610e-10    1.539230e-08    1.471904e-09    1.280000e+00    5.898099e-01    5.286848e-01
    2.473807e+00    1.184566e+01    3.184070e+01    7.462263e+08    1.679957e-08    8.354540e-10    1.539443e-08    1.478474e-09    1.290000e+00    5.898099e-01    5.357860e-01
    2.426115e+00    1.095131e+01    3.263040e+01    7.481399e+08    1.684113e-08    8.905955e-10    1.539534e-08    1.485266e-09    1.300000e+00    5.898099e-01    5.428870e-01
    2.379041e+00    1.012319e+01    3.342384e+01    7.495457e+08    1.688420e-08    9.486300e-10    1.539497e-08    1.492281e-09    1.310000e+00    5.898099e-01    5.499881e-01
    2.332559e+00    9.358374e+00    3.422057e+01    7.504368e+08    1.692879e-08    1.009586e-09    1.539332e-08    1.499517e-09    1.320000e+00    5.898099e-01    5.570895e-01
    2.286650e+00    8.653752e+00    3.502012e+01    7.508105e+08    1.697490e-08    1.073478e-09    1.539036e-08    1.506971e-09    1.330000e+00    5.898099e-01    5.641913e-01
    2.241309e+00    8.006114e+00    3.582199e+01    7.506688e+08    1.702250e-08    1.140299e-09    1.538606e-08    1.514640e-09    1.340000e+00    5.898099e-01    5.712937e-01
    2.196539e+00    7.412122e+00    3.662571e+01    7.500184e+08    1.707156e-08    1.210028e-09    1.538042e-08    1.522518e-09    1.350000e+00    5.898099e-01    5.783970e-01
    2.152348e+00    6.868381e+00    3.743083e+01    7.488698e+08    1.712205e-08    1.282621e-09    1.537342e-08    1.530600e-09    1.360000e+00    5.898099e-01    5.855013e-01
    2.108754e+00    6.371473e+00    3.823685e+01    7.472382e+08    1.717391e-08    1.358018e-09    1.536507e-08    1.538877e-09    1.370000e+00    5.898099e-01    5.926068e-01
    2.065785e+00    5.918016e+00    3.904332e+01    7.451446e+08    1.722707e-08    1.436137e-09    1.535539e-08    1.547343e-09    1.380000e+00    5.898099e-01    5.997137e-01
    2.023467e+00    5.504661e+00    3.984981e+01    7.426115e+08    1.728147e-08    1.516879e-09    1.534437e-08    1.555987e-09    1.390000e+00    5.898099e-01    6.068222e-01
    1.981834e+00    5.128174e+00    4.065588e+01    7.396675e+08    1.733701e-08    1.600125e-09    1.533205e-08    1.564801e-09    1.400000e+00    5.898099e-01    6.139325e-01
    1.940918e+00    4.785426e+00    4.146113e+01    7.363407e+08    1.739360e-08    1.685742e-09    1.531846e-08    1.573774e-09    1.410000e+00    5.898099e-01    6.210447e-01
    1.900753e+00    4.473454e+00    4.226521e+01    7.326635e+08    1.745116e-08    1.773577e-09    1.530364e-08    1.582895e-09    1.420000e+00    5.898099e-01    6.281590e-01
