# sky130 nfet_01v8 gm/ID Processed Lookup Table
# Corner: sf
# Temperature: -40C
# W = 2.0 um
# L = 2 um (2000 nm)
# Columns: gm/id [1/V]  gm/gds [V/V]  id/W [A/m]  ft [Hz]  Cgg/W [F/m]  Cgd/W [F/m]  Cgs/W [F/m]  Cdb/W [F/m]  vgs [V]  vth [V]  vdsat [V]
# vdsat = BSIM4 saturation voltage (|VDS|_sat, positive); use for headroom / saturation / cascode-bias calculations
#           gm/id          gm/gds            id/W              ft           Cgg/W           Cgd/W           Cgs/W           Cdb/W             vgs             vth           vdsat
    3.419199e+01    1.496381e+02    4.483782e-05    4.483494e+04    5.442175e-09    5.484615e-13    2.285956e-09    2.685138e-10    3.400000e-01    5.967516e-01    2.956977e-02
    3.418743e+01    1.493361e+02    6.311625e-05    6.126623e+04    5.605400e-09    6.066325e-13    2.509949e-09    2.906966e-10    3.500000e-01    5.967516e-01    2.957327e-02
    3.415055e+01    1.489855e+02    8.882720e-05    8.352636e+04    5.780165e-09    6.707230e-13    2.747699e-09    3.139331e-10    3.600000e-01    5.967516e-01    2.957819e-02
    3.408522e+01    1.485803e+02    1.249476e-04    1.136137e+05    5.966000e-09    7.412320e-13    2.998575e-09    3.381423e-10    3.700000e-01    5.967516e-01    2.958510e-02
    3.399352e+01    1.481150e+02    1.756177e-04    1.541861e+05    6.162250e-09    8.186825e-13    3.261724e-09    3.632255e-10    3.800000e-01    5.967516e-01    2.959478e-02
    3.387623e+01    1.475843e+02    2.465783e-04    2.087666e+05    6.368090e-09    9.036210e-13    3.536081e-09    3.890680e-10    3.900000e-01    5.967516e-01    2.960834e-02
    3.373322e+01    1.469844e+02    3.457614e-04    2.820083e+05    6.582525e-09    9.966160e-13    3.820384e-09    4.155407e-10    4.000000e-01    5.967516e-01    2.962727e-02
    3.356376e+01    1.463134e+02    4.840829e-04    3.800310e+05    6.804425e-09    1.098261e-12    4.113198e-09    4.425025e-10    4.100000e-01    5.967516e-01    2.965363e-02
    3.336686e+01    1.455730e+02    6.765000e-04    5.108472e+05    7.032540e-09    1.209169e-12    4.412942e-09    4.698038e-10    4.200000e-01    5.967516e-01    2.969023e-02
    3.314157e+01    1.447694e+02    9.434075e-04    6.848974e+05    7.265525e-09    1.329978e-12    4.717928e-09    4.972897e-10    4.300000e-01    5.967516e-01    2.974087e-02
    3.288721e+01    1.439157e+02    1.312471e-03    9.157183e+05    7.501965e-09    1.461347e-12    5.026395e-09    5.248030e-10    4.400000e-01    5.967516e-01    2.981065e-02
    3.260382e+01    1.430336e+02    1.821009e-03    1.220777e+06    7.740420e-09    1.603960e-12    5.336560e-09    5.521880e-10    4.500000e-01    5.967516e-01    2.990633e-02
    3.229229e+01    1.421562e+02    2.519081e-03    1.622512e+06    7.979455e-09    1.758520e-12    5.646635e-09    5.792950e-10    4.600000e-01    5.967516e-01    3.003681e-02
    3.195465e+01    1.413294e+02    3.473454e-03    2.149648e+06    8.217665e-09    1.925762e-12    5.954905e-09    6.059810e-10    4.700000e-01    5.967516e-01    3.021363e-02
    3.159418e+01    1.406145e+02    4.772694e-03    2.838855e+06    8.453715e-09    2.106441e-12    6.259725e-09    6.321150e-10    4.800000e-01    5.967516e-01    3.045151e-02
    3.121526e+01    1.400876e+02    6.533685e-03    3.736874e+06    8.686340e-09    2.301344e-12    6.559565e-09    6.575790e-10    4.900000e-01    5.967516e-01    3.076892e-02
    3.082285e+01    1.398388e+02    8.909970e-03    4.903169e+06    8.914405e-09    2.511288e-12    6.853045e-09    6.822685e-10    5.000000e-01    5.967516e-01    3.118858e-02
    3.042170e+01    1.399682e+02    1.210235e-02    6.413196e+06    9.136895e-09    2.737125e-12    7.138945e-09    7.060965e-10    5.100000e-01    5.967516e-01    3.173779e-02
    3.001498e+01    1.405781e+02    1.637224e-02    8.362174e+06    9.352915e-09    2.979740e-12    7.416205e-09    7.289915e-10    5.200000e-01    5.967516e-01    3.244847e-02
    2.960288e+01    1.417628e+02    2.205814e-02    1.086893e+07    9.561725e-09    3.240063e-12    7.683955e-09    7.508980e-10    5.300000e-01    5.967516e-01    3.335682e-02
    2.918113e+01    1.435950e+02    2.959522e-02    1.407902e+07    9.762735e-09    3.519066e-12    7.941500e-09    7.717775e-10    5.400000e-01    5.967516e-01    3.450251e-02
    2.874034e+01    1.461115e+02    3.953718e-02    1.816585e+07    9.955475e-09    3.817770e-12    8.188320e-09    7.916050e-10    5.500000e-01    5.967516e-01    3.592724e-02
    2.826634e+01    1.492995e+02    5.257860e-02    2.332797e+07    1.013962e-08    4.137252e-12    8.424055e-09    8.103695e-10    5.600000e-01    5.967516e-01    3.767279e-02
    2.774192e+01    1.530885e+02    6.957465e-02    2.978103e+07    1.031497e-08    4.478644e-12    8.648505e-09    8.280740e-10    5.700000e-01    5.967516e-01    3.977867e-02
    2.714979e+01    1.573471e+02    9.155335e-02    3.774335e+07    1.048143e-08    4.843146e-12    8.861590e-09    8.447300e-10    5.800000e-01    5.967516e-01    4.227950e-02
    2.647589e+01    1.618903e+02    1.197161e-01    4.741569e+07    1.063901e-08    5.232025e-12    9.063375e-09    8.603605e-10    5.900000e-01    5.967516e-01    4.520255e-02
    2.571241e+01    1.664941e+02    1.554214e-01    5.895776e+07    1.078780e-08    5.646630e-12    9.254015e-09    8.749940e-10    6.000000e-01    5.967516e-01    4.856569e-02
    2.485942e+01    1.709170e+02    2.001509e-01    7.246514e+07    1.092797e-08    6.088390e-12    9.433755e-09    8.886675e-10    6.100000e-01    5.967516e-01    5.237604e-02
    2.392499e+01    1.749234e+02    2.554575e-01    8.795185e+07    1.105976e-08    6.558820e-12    9.602915e-09    9.014210e-10    6.200000e-01    5.967516e-01    5.662955e-02
    2.292385e+01    1.783067e+02    3.229019e-01    1.053423e+08    1.118344e-08    7.059540e-12    9.761875e-09    9.132985e-10    6.300000e-01    5.967516e-01    6.131144e-02
    2.187505e+01    1.809059e+02    4.039836e-01    1.244743e+08    1.129934e-08    7.592275e-12    9.911050e-09    9.243465e-10    6.400000e-01    5.967516e-01    6.639758e-02
    2.079957e+01    1.826164e+02    5.000765e-01    1.451139e+08    1.140780e-08    8.158860e-12    1.005090e-08    9.346125e-10    6.500000e-01    5.967516e-01    7.185630e-02
    1.971798e+01    1.833910e+02    6.123755e-01    1.669767e+08    1.150918e-08    8.761270e-12    1.018189e-08    9.441455e-10    6.600000e-01    5.967516e-01    7.765072e-02
    1.864882e+01    1.832365e+02    7.418610e-01    1.897543e+08    1.160385e-08    9.401585e-12    1.030450e-08    9.529930e-10    6.700000e-01    5.967516e-01    8.374099e-02
    1.760758e+01    1.822030e+02    8.892825e-01    2.131391e+08    1.169221e-08    1.008206e-11    1.041922e-08    9.612015e-10    6.800000e-01    5.967516e-01    9.008641e-02
    1.660630e+01    1.803734e+02    1.055160e+00    2.368450e+08    1.177462e-08    1.080509e-11    1.052652e-08    9.688180e-10    6.900000e-01    5.967516e-01    9.664723e-02
    1.565359e+01    1.778501e+02    1.239798e+00    2.606232e+08    1.185146e-08    1.157324e-11    1.062690e-08    9.758855e-10    7.000000e-01    5.967516e-01    1.033860e-01
    1.475496e+01    1.747448e+02    1.443318e+00    2.842700e+08    1.192309e-08    1.238925e-11    1.072078e-08    9.824470e-10    7.100000e-01    5.967516e-01    1.102684e-01
    1.391327e+01    1.711694e+02    1.665687e+00    3.076295e+08    1.198987e-08    1.325607e-11    1.080864e-08    9.885425e-10    7.200000e-01    5.967516e-01    1.172641e-01
    1.312928e+01    1.672299e+02    1.906753e+00    3.305914e+08    1.205214e-08    1.417683e-11    1.089088e-08    9.942100e-10    7.300000e-01    5.967516e-01    1.243464e-01
    1.240217e+01    1.630216e+02    2.166282e+00    3.530865e+08    1.211022e-08    1.515495e-11    1.096790e-08    9.994845e-10    7.400000e-01    5.967516e-01    1.314930e-01
    1.172993e+01    1.586277e+02    2.443982e+00    3.750785e+08    1.216442e-08    1.619401e-11    1.104009e-08    1.004401e-09    7.500000e-01    5.967516e-01    1.386849e-01
    1.110980e+01    1.541183e+02    2.739526e+00    3.965587e+08    1.221502e-08    1.729790e-11    1.110781e-08    1.008988e-09    7.600000e-01    5.967516e-01    1.459066e-01
    1.053854e+01    1.495506e+02    3.052581e+00    4.175371e+08    1.226232e-08    1.847080e-11    1.117139e-08    1.013278e-09    7.700000e-01    5.967516e-01    1.531459e-01
    1.001268e+01    1.449701e+02    3.382811e+00    4.380381e+08    1.230655e-08    1.971716e-11    1.123116e-08    1.017296e-09    7.800000e-01    5.967516e-01    1.603926e-01
    9.528675e+00    1.404122e+02    3.729896e+00    4.580937e+08    1.234795e-08    2.104180e-11    1.128740e-08    1.021067e-09    7.900000e-01    5.967516e-01    1.676394e-01
    9.083046e+00    1.359035e+02    4.093533e+00    4.777401e+08    1.238677e-08    2.244985e-11    1.134037e-08    1.024615e-09    8.000000e-01    5.967516e-01    1.748802e-01
    8.672444e+00    1.314632e+02    4.473441e+00    4.970151e+08    1.242321e-08    2.394685e-11    1.139036e-08    1.027960e-09    8.100000e-01    5.967516e-01    1.821109e-01
    8.293710e+00    1.271048e+02    4.869365e+00    5.159552e+08    1.245746e-08    2.553874e-11    1.143756e-08    1.031123e-09    8.200000e-01    5.967516e-01    1.893282e-01
    7.943908e+00    1.228373e+02    5.281070e+00    5.345944e+08    1.248970e-08    2.723192e-11    1.148223e-08    1.034121e-09    8.300000e-01    5.967516e-01    1.965301e-01
    7.620332e+00    1.186658e+02    5.708345e+00    5.529639e+08    1.252009e-08    2.903322e-11    1.152453e-08    1.036972e-09    8.400000e-01    5.967516e-01    2.037152e-01
    7.320507e+00    1.145931e+02    6.151000e+00    5.710904e+08    1.254880e-08    3.095004e-11    1.156467e-08    1.039691e-09    8.500000e-01    5.967516e-01    2.108827e-01
    7.042190e+00    1.106198e+02    6.608860e+00    5.889968e+08    1.257597e-08    3.299031e-11    1.160280e-08    1.042291e-09    8.600000e-01    5.967516e-01    2.180323e-01
    6.783351e+00    1.067452e+02    7.081765e+00    6.067022e+08    1.260174e-08    3.516255e-11    1.163909e-08    1.044787e-09    8.700000e-01    5.967516e-01    2.251639e-01
    6.542154e+00    1.029678e+02    7.569575e+00    6.242224e+08    1.262621e-08    3.747594e-11    1.167367e-08    1.047190e-09    8.800000e-01    5.967516e-01    2.322777e-01
    6.316960e+00    9.928532e+01    8.072150e+00    6.415691e+08    1.264952e-08    3.994035e-11    1.170668e-08    1.049512e-09    8.900000e-01    5.967516e-01    2.393743e-01
    6.106293e+00    9.569528e+01    8.589360e+00    6.587510e+08    1.267177e-08    4.256639e-11    1.173823e-08    1.051762e-09    9.000000e-01    5.967516e-01    2.464540e-01
    5.908828e+00    9.219486e+01    9.121090e+00    6.757751e+08    1.269305e-08    4.536551e-11    1.176842e-08    1.053950e-09    9.100000e-01    5.967516e-01    2.535174e-01
    5.723383e+00    8.878156e+01    9.667220e+00    6.926451e+08    1.271346e-08    4.834997e-11    1.179737e-08    1.056087e-09    9.200000e-01    5.967516e-01    2.605653e-01
    5.548893e+00    8.545265e+01    1.022763e+01    7.093625e+08    1.273308e-08    5.153305e-11    1.182515e-08    1.058179e-09    9.300000e-01    5.967516e-01    2.675982e-01
    5.384409e+00    8.220585e+01    1.080222e+01    7.259278e+08    1.275199e-08    5.492895e-11    1.185186e-08    1.060234e-09    9.400000e-01    5.967516e-01    2.746168e-01
    5.229078e+00    7.903874e+01    1.139087e+01    7.423387e+08    1.277027e-08    5.855300e-11    1.187755e-08    1.062261e-09    9.500000e-01    5.967516e-01    2.816218e-01
    5.082141e+00    7.594947e+01    1.199346e+01    7.585936e+08    1.278799e-08    6.242170e-11    1.190231e-08    1.064266e-09    9.600000e-01    5.967516e-01    2.886136e-01
    4.942902e+00    7.293605e+01    1.260988e+01    7.746878e+08    1.280520e-08    6.655280e-11    1.192618e-08    1.066256e-09    9.700000e-01    5.967516e-01    2.955930e-01
    4.810748e+00    6.999702e+01    1.324001e+01    7.906169e+08    1.282198e-08    7.096535e-11    1.194924e-08    1.068237e-09    9.800000e-01    5.967516e-01    3.025605e-01
    4.685122e+00    6.713089e+01    1.388373e+01    8.063749e+08    1.283837e-08    7.567985e-11    1.197151e-08    1.070214e-09    9.900000e-01    5.967516e-01    3.095166e-01
    4.565521e+00    6.433649e+01    1.454091e+01    8.219556e+08    1.285445e-08    8.071845e-11    1.199305e-08    1.072195e-09    1.000000e+00    5.967516e-01    3.164618e-01
    4.451488e+00    6.161277e+01    1.521142e+01    8.373517e+08    1.287026e-08    8.610480e-11    1.201390e-08    1.074185e-09    1.010000e+00    5.967516e-01    3.233966e-01
    4.342616e+00    5.895887e+01    1.589513e+01    8.525560e+08    1.288584e-08    9.186430e-11    1.203409e-08    1.076188e-09    1.020000e+00    5.967516e-01    3.303214e-01
    4.238532e+00    5.637407e+01    1.659190e+01    8.675605e+08    1.290126e-08    9.802440e-11    1.205365e-08    1.078212e-09    1.030000e+00    5.967516e-01    3.372367e-01
    4.138895e+00    5.385775e+01    1.730158e+01    8.823565e+08    1.291655e-08    1.046143e-10    1.207260e-08    1.080261e-09    1.040000e+00    5.967516e-01    3.441429e-01
    4.043394e+00    5.140936e+01    1.802404e+01    8.969345e+08    1.293176e-08    1.116656e-10    1.209098e-08    1.082339e-09    1.050000e+00    5.967516e-01    3.510403e-01
    3.951746e+00    4.902852e+01    1.875910e+01    9.112842e+08    1.294695e-08    1.192117e-10    1.210879e-08    1.084453e-09    1.060000e+00    5.967516e-01    3.579293e-01
    3.863694e+00    4.671490e+01    1.950661e+01    9.253964e+08    1.296214e-08    1.272887e-10    1.212606e-08    1.086607e-09    1.070000e+00    5.967516e-01    3.648102e-01
    3.778997e+00    4.446819e+01    2.026639e+01    9.392597e+08    1.297740e-08    1.359352e-10    1.214279e-08    1.088807e-09    1.080000e+00    5.967516e-01    3.716834e-01
    3.697441e+00    4.228821e+01    2.103828e+01    9.528632e+08    1.299275e-08    1.451922e-10    1.215900e-08    1.091058e-09    1.090000e+00    5.967516e-01    3.785491e-01
    3.618818e+00    4.017470e+01    2.182209e+01    9.661934e+08    1.300825e-08    1.551033e-10    1.217470e-08    1.093365e-09    1.100000e+00    5.967516e-01    3.854076e-01
    3.542944e+00    3.812754e+01    2.261762e+01    9.792390e+08    1.302395e-08    1.657150e-10    1.218988e-08    1.095732e-09    1.110000e+00    5.967516e-01    3.922593e-01
    3.469645e+00    3.614656e+01    2.342468e+01    9.919858e+08    1.303987e-08    1.770770e-10    1.220454e-08    1.098167e-09    1.120000e+00    5.967516e-01    3.991044e-01
    3.398758e+00    3.423159e+01    2.424305e+01    1.004419e+09    1.305607e-08    1.892412e-10    1.221869e-08    1.100673e-09    1.130000e+00    5.967516e-01    4.059432e-01
    3.330131e+00    3.238248e+01    2.507252e+01    1.016524e+09    1.307260e-08    2.022632e-10    1.223231e-08    1.103258e-09    1.140000e+00    5.967516e-01    4.127760e-01
    3.263629e+00    3.059910e+01    2.591287e+01    1.028285e+09    1.308950e-08    2.162010e-10    1.224541e-08    1.105924e-09    1.150000e+00    5.967516e-01    4.196029e-01
    3.199112e+00    2.888119e+01    2.676384e+01    1.039684e+09    1.310680e-08    2.311160e-10    1.225797e-08    1.108677e-09    1.160000e+00    5.967516e-01    4.264243e-01
    3.136461e+00    2.722856e+01    2.762520e+01    1.050703e+09    1.312458e-08    2.470722e-10    1.226997e-08    1.111525e-09    1.170000e+00    5.967516e-01    4.332404e-01
    3.075557e+00    2.564095e+01    2.849666e+01    1.061325e+09    1.314285e-08    2.641364e-10    1.228141e-08    1.114472e-09    1.180000e+00    5.967516e-01    4.400514e-01
    3.016286e+00    2.411802e+01    2.937796e+01    1.071526e+09    1.316169e-08    2.823784e-10    1.229227e-08    1.117521e-09    1.190000e+00    5.967516e-01    4.468576e-01
    2.958545e+00    2.265940e+01    3.026881e+01    1.081288e+09    1.318113e-08    3.018696e-10    1.230252e-08    1.120682e-09    1.200000e+00    5.967516e-01    4.536592e-01
    2.902235e+00    2.126465e+01    3.116889e+01    1.090587e+09    1.320122e-08    3.226841e-10    1.231214e-08    1.123956e-09    1.210000e+00    5.967516e-01    4.604564e-01
    2.847261e+00    1.993326e+01    3.207789e+01    1.099401e+09    1.322200e-08    3.448975e-10    1.232111e-08    1.127350e-09    1.220000e+00    5.967516e-01    4.672496e-01
    2.793530e+00    1.866461e+01    3.299546e+01    1.107704e+09    1.324354e-08    3.685864e-10    1.232941e-08    1.130868e-09    1.230000e+00    5.967516e-01    4.740388e-01
    2.740960e+00    1.745803e+01    3.392124e+01    1.115473e+09    1.326586e-08    3.938283e-10    1.233701e-08    1.134515e-09    1.240000e+00    5.967516e-01    4.808245e-01
    2.689467e+00    1.631270e+01    3.485486e+01    1.122681e+09    1.328903e-08    4.207004e-10    1.234387e-08    1.138297e-09    1.250000e+00    5.967516e-01    4.876067e-01
    2.638976e+00    1.522772e+01    3.579593e+01    1.129304e+09    1.331308e-08    4.492793e-10    1.234997e-08    1.142216e-09    1.260000e+00    5.967516e-01    4.943857e-01
    2.589417e+00    1.420208e+01    3.674401e+01    1.135315e+09    1.333805e-08    4.796399e-10    1.235528e-08    1.146277e-09    1.270000e+00    5.967516e-01    5.011618e-01
    2.540721e+00    1.323463e+01    3.769868e+01    1.140689e+09    1.336398e-08    5.118545e-10    1.235977e-08    1.150482e-09    1.280000e+00    5.967516e-01    5.079352e-01
    2.492827e+00    1.232409e+01    3.865949e+01    1.145402e+09    1.339092e-08    5.459915e-10    1.236339e-08    1.154836e-09    1.290000e+00    5.967516e-01    5.147061e-01
    2.445681e+00    1.146906e+01    3.962596e+01    1.149432e+09    1.341889e-08    5.821155e-10    1.236614e-08    1.159339e-09    1.300000e+00    5.967516e-01    5.214747e-01
    2.399232e+00    1.066799e+01    4.059757e+01    1.152757e+09    1.344791e-08    6.202840e-10    1.236797e-08    1.163993e-09    1.310000e+00    5.967516e-01    5.282414e-01
    2.353437e+00    9.919230e+00    4.157384e+01    1.155359e+09    1.347801e-08    6.605485e-10    1.236885e-08    1.168801e-09    1.320000e+00    5.967516e-01    5.350062e-01
    2.308261e+00    9.220966e+00    4.255423e+01    1.157224e+09    1.350922e-08    7.029510e-10    1.236876e-08    1.173761e-09    1.330000e+00    5.967516e-01    5.417695e-01
    2.263675e+00    8.571276e+00    4.353819e+01    1.158342e+09    1.354153e-08    7.475265e-10    1.236767e-08    1.178875e-09    1.340000e+00    5.967516e-01    5.485315e-01
    2.219658e+00    7.968122e+00    4.452517e+01    1.158707e+09    1.357495e-08    7.942970e-10    1.236557e-08    1.184140e-09    1.350000e+00    5.967516e-01    5.552925e-01
    2.176200e+00    7.409375e+00    4.551461e+01    1.158320e+09    1.360948e-08    8.432740e-10    1.236242e-08    1.189555e-09    1.360000e+00    5.967516e-01    5.620525e-01
    2.133293e+00    6.892814e+00    4.650596e+01    1.157184e+09    1.364511e-08    8.944580e-10    1.235823e-08    1.195119e-09    1.370000e+00    5.967516e-01    5.688120e-01
    2.090942e+00    6.416158e+00    4.749864e+01    1.155313e+09    1.368181e-08    9.478340e-10    1.235298e-08    1.200827e-09    1.380000e+00    5.967516e-01    5.755711e-01
    2.049156e+00    5.977088e+00    4.849211e+01    1.152726e+09    1.371957e-08    1.003376e-09    1.234666e-08    1.206675e-09    1.390000e+00    5.967516e-01    5.823301e-01
    2.007950e+00    5.573259e+00    4.948582e+01    1.149444e+09    1.375834e-08    1.061043e-09    1.233928e-08    1.212660e-09    1.400000e+00    5.967516e-01    5.890892e-01
    1.967345e+00    5.202331e+00    5.047925e+01    1.145500e+09    1.379807e-08    1.120779e-09    1.233083e-08    1.218777e-09    1.410000e+00    5.967516e-01    5.958486e-01
    1.927366e+00    4.861989e+00    5.147185e+01    1.140927e+09    1.383874e-08    1.182517e-09    1.232135e-08    1.225019e-09    1.420000e+00    5.967516e-01    6.026086e-01
