# sky130 pfet_01v8 gm/ID Processed Lookup Table
# Corner: ff
# Temperature: 25C
# W = 2.0 um
# L = 3.42 um (3420 nm)
# Columns: gm/id [1/V]  gm/gds [V/V]  id/W [A/m]  ft [Hz]  Cgg/W [F/m]  Cgd/W [F/m]  Cgs/W [F/m]  Vov [V]
#         gm/id          gm/gds            id/W              ft           Cgg/W           Cgd/W           Cgs/W             Vov
    1.968691e+00    4.157671e+00    6.445315e+00    9.061319e+07    2.228694e-08    2.244199e-09    2.022462e-08   -2.797069e+00
    1.989352e+00    4.294373e+00    6.381855e+00    9.084714e+07    2.224167e-08    2.182364e-09    2.022923e-08   -2.792069e+00
    2.010299e+00    4.438550e+00    6.318360e+00    9.107404e+07    2.219681e-08    2.121416e-09    2.023340e-08   -2.787069e+00
    2.031532e+00    4.590720e+00    6.254835e+00    9.129342e+07    2.215236e-08    2.061387e-09    2.023713e-08   -2.782069e+00
    2.053047e+00    4.751431e+00    6.191290e+00    9.150471e+07    2.210837e-08    2.002305e-09    2.024040e-08   -2.777069e+00
    2.074844e+00    4.921278e+00    6.127730e+00    9.170740e+07    2.206485e-08    1.944197e-09    2.024321e-08   -2.772069e+00
    2.096924e+00    5.100893e+00    6.064150e+00    9.190093e+07    2.202180e-08    1.887091e-09    2.024557e-08   -2.767069e+00
    2.119280e+00    5.290960e+00    6.000570e+00    9.208477e+07    2.197926e-08    1.831007e-09    2.024747e-08   -2.762069e+00
    2.141910e+00    5.492199e+00    5.936985e+00    9.225831e+07    2.193724e-08    1.775969e-09    2.024890e-08   -2.757069e+00
    2.164813e+00    5.705393e+00    5.873405e+00    9.242103e+07    2.189575e-08    1.721994e-09    2.024986e-08   -2.752069e+00
    2.187981e+00    5.931369e+00    5.809840e+00    9.257227e+07    2.185481e-08    1.669100e-09    2.025036e-08   -2.747069e+00
    2.211412e+00    6.171010e+00    5.746290e+00    9.271151e+07    2.181442e-08    1.617301e-09    2.025040e-08   -2.742069e+00
    2.235097e+00    6.425256e+00    5.682770e+00    9.283811e+07    2.177461e-08    1.566610e-09    2.024997e-08   -2.737069e+00
    2.259036e+00    6.695111e+00    5.619280e+00    9.295156e+07    2.173538e-08    1.517037e-09    2.024907e-08   -2.732069e+00
    2.283220e+00    6.981635e+00    5.555830e+00    9.305129e+07    2.169674e-08    1.468590e-09    2.024770e-08   -2.727069e+00
    2.307641e+00    7.285946e+00    5.492430e+00    9.313666e+07    2.165869e-08    1.421275e-09    2.024588e-08   -2.722069e+00
    2.332294e+00    7.609236e+00    5.429085e+00    9.320722e+07    2.162124e-08    1.375096e-09    2.024360e-08   -2.717069e+00
    2.357172e+00    7.952751e+00    5.365810e+00    9.326243e+07    2.158440e-08    1.330055e-09    2.024086e-08   -2.712069e+00
    2.382266e+00    8.317811e+00    5.302610e+00    9.330181e+07    2.154816e-08    1.286152e-09    2.023767e-08   -2.707069e+00
    2.407575e+00    8.705797e+00    5.239490e+00    9.332493e+07    2.151252e-08    1.243383e-09    2.023403e-08   -2.702069e+00
    2.433086e+00    9.118146e+00    5.176465e+00    9.333131e+07    2.147749e-08    1.201745e-09    2.022994e-08   -2.697069e+00
    2.458794e+00    9.556367e+00    5.113545e+00    9.332060e+07    2.144306e-08    1.161232e-09    2.022541e-08   -2.692069e+00
    2.484692e+00    1.002203e+01    5.050740e+00    9.329245e+07    2.140924e-08    1.121835e-09    2.022044e-08   -2.687069e+00
    2.510779e+00    1.051676e+01    4.988054e+00    9.324662e+07    2.137601e-08    1.083547e-09    2.021505e-08   -2.682069e+00
    2.537045e+00    1.104225e+01    4.925503e+00    9.318281e+07    2.134337e-08    1.046354e-09    2.020922e-08   -2.677069e+00
    2.563488e+00    1.160022e+01    4.863094e+00    9.310090e+07    2.131131e-08    1.010247e-09    2.020297e-08   -2.672069e+00
    2.590102e+00    1.219245e+01    4.800841e+00    9.300068e+07    2.127983e-08    9.752090e-10    2.019630e-08   -2.667069e+00
    2.616888e+00    1.282078e+01    4.738752e+00    9.288215e+07    2.124892e-08    9.412265e-10    2.018922e-08   -2.662069e+00
    2.643842e+00    1.348707e+01    4.676837e+00    9.274529e+07    2.121856e-08    9.082835e-10    2.018173e-08   -2.657069e+00
    2.670963e+00    1.419321e+01    4.615107e+00    9.259010e+07    2.118875e-08    8.763625e-10    2.017384e-08   -2.652069e+00
    2.698254e+00    1.494114e+01    4.553572e+00    9.241671e+07    2.115947e-08    8.454455e-10    2.016556e-08   -2.647069e+00
    2.725714e+00    1.573279e+01    4.492243e+00    9.222522e+07    2.113071e-08    8.155135e-10    2.015688e-08   -2.642069e+00
    2.753347e+00    1.657013e+01    4.431130e+00    9.201585e+07    2.110246e-08    7.865465e-10    2.014781e-08   -2.637069e+00
    2.781157e+00    1.745512e+01    4.370242e+00    9.178881e+07    2.107470e-08    7.585250e-10    2.013836e-08   -2.632069e+00
    2.809150e+00    1.838975e+01    4.309590e+00    9.154448e+07    2.104742e-08    7.314280e-10    2.012853e-08   -2.627069e+00
    2.837332e+00    1.937599e+01    4.249183e+00    9.128308e+07    2.102061e-08    7.052335e-10    2.011833e-08   -2.622069e+00
    2.865708e+00    2.041577e+01    4.189030e+00    9.100497e+07    2.099425e-08    6.799210e-10    2.010776e-08   -2.617069e+00
    2.894290e+00    2.151106e+01    4.129140e+00    9.071063e+07    2.096832e-08    6.554680e-10    2.009682e-08   -2.612069e+00
    2.923086e+00    2.266379e+01    4.069523e+00    9.040038e+07    2.094281e-08    6.318525e-10    2.008551e-08   -2.607069e+00
    2.952107e+00    2.387587e+01    4.010187e+00    9.007471e+07    2.091770e-08    6.090530e-10    2.007385e-08   -2.602069e+00
    2.981363e+00    2.514916e+01    3.951141e+00    8.973404e+07    2.089298e-08    5.870460e-10    2.006183e-08   -2.597069e+00
    3.010867e+00    2.648550e+01    3.892392e+00    8.937881e+07    2.086862e-08    5.658105e-10    2.004946e-08   -2.592069e+00
    3.040634e+00    2.788674e+01    3.833948e+00    8.900959e+07    2.084461e-08    5.453235e-10    2.003674e-08   -2.587069e+00
    3.070675e+00    2.935463e+01    3.775818e+00    8.862675e+07    2.082094e-08    5.255635e-10    2.002366e-08   -2.582069e+00
    3.101006e+00    3.089092e+01    3.718008e+00    8.823083e+07    2.079758e-08    5.065090e-10    2.001024e-08   -2.577069e+00
    3.131642e+00    3.249734e+01    3.660525e+00    8.782231e+07    2.077451e-08    4.881375e-10    1.999646e-08   -2.572069e+00
    3.162599e+00    3.417553e+01    3.603376e+00    8.740163e+07    2.075173e-08    4.704283e-10    1.998234e-08   -2.567069e+00
    3.193890e+00    3.592714e+01    3.546567e+00    8.696923e+07    2.072921e-08    4.533603e-10    1.996788e-08   -2.562069e+00
    3.225536e+00    3.775377e+01    3.490104e+00    8.652562e+07    2.070693e-08    4.369126e-10    1.995307e-08   -2.557069e+00
    3.257551e+00    3.965699e+01    3.433994e+00    8.607124e+07    2.068487e-08    4.210650e-10    1.993791e-08   -2.552069e+00
    3.289954e+00    4.163834e+01    3.378242e+00    8.560651e+07    2.066302e-08    4.057976e-10    1.992240e-08   -2.547069e+00
    3.322764e+00    4.369936e+01    3.322853e+00    8.513189e+07    2.064137e-08    3.910908e-10    1.990654e-08   -2.542069e+00
    3.355995e+00    4.584147e+01    3.267833e+00    8.464769e+07    2.061988e-08    3.769254e-10    1.989033e-08   -2.537069e+00
    3.389669e+00    4.806622e+01    3.213187e+00    8.415439e+07    2.059855e-08    3.632828e-10    1.987377e-08   -2.532069e+00
    3.423805e+00    5.037500e+01    3.158918e+00    8.365234e+07    2.057735e-08    3.501448e-10    1.985685e-08   -2.527069e+00
    3.458421e+00    5.276929e+01    3.105033e+00    8.314186e+07    2.055628e-08    3.374936e-10    1.983957e-08   -2.522069e+00
    3.493537e+00    5.525050e+01    3.051535e+00    8.262336e+07    2.053530e-08    3.253120e-10    1.982193e-08   -2.517069e+00
    3.529175e+00    5.782007e+01    2.998428e+00    8.209714e+07    2.051440e-08    3.135830e-10    1.980392e-08   -2.512069e+00
    3.565352e+00    6.047942e+01    2.945716e+00    8.156349e+07    2.049357e-08    3.022903e-10    1.978553e-08   -2.507069e+00
    3.602092e+00    6.323004e+01    2.893404e+00    8.102275e+07    2.047279e-08    2.914181e-10    1.976677e-08   -2.502069e+00
    3.639415e+00    6.607331e+01    2.841494e+00    8.047521e+07    2.045203e-08    2.809510e-10    1.974762e-08   -2.497069e+00
    3.677342e+00    6.901076e+01    2.789991e+00    7.992106e+07    2.043129e-08    2.708740e-10    1.972810e-08   -2.492069e+00
    3.715897e+00    7.204384e+01    2.738898e+00    7.936066e+07    2.041053e-08    2.611727e-10    1.970817e-08   -2.487069e+00
    3.755102e+00    7.517411e+01    2.688217e+00    7.879420e+07    2.038976e-08    2.518331e-10    1.968784e-08   -2.482069e+00
    3.794980e+00    7.840311e+01    2.637954e+00    7.822189e+07    2.036894e-08    2.428417e-10    1.966710e-08   -2.477069e+00
    3.835554e+00    8.173237e+01    2.588109e+00    7.764397e+07    2.034806e-08    2.341854e-10    1.964594e-08   -2.472069e+00
    3.876850e+00    8.516363e+01    2.538686e+00    7.706064e+07    2.032711e-08    2.258514e-10    1.962435e-08   -2.467069e+00
    3.918892e+00    8.869848e+01    2.489688e+00    7.647207e+07    2.030606e-08    2.178277e-10    1.960233e-08   -2.462069e+00
    3.961706e+00    9.233873e+01    2.441119e+00    7.587848e+07    2.028489e-08    2.101025e-10    1.957986e-08   -2.457069e+00
    4.005318e+00    9.608614e+01    2.392980e+00    7.528001e+07    2.026360e-08    2.026643e-10    1.955693e-08   -2.452069e+00
    4.049757e+00    9.994255e+01    2.345273e+00    7.467682e+07    2.024215e-08    1.955023e-10    1.953354e-08   -2.447069e+00
    4.095048e+00    1.039099e+02    2.298002e+00    7.406908e+07    2.022054e-08    1.886057e-10    1.950967e-08   -2.442069e+00
    4.141223e+00    1.079903e+02    2.251170e+00    7.345693e+07    2.019873e-08    1.819647e-10    1.948531e-08   -2.437069e+00
    4.188307e+00    1.121856e+02    2.204778e+00    7.284043e+07    2.017674e-08    1.755692e-10    1.946044e-08   -2.432069e+00
    4.236337e+00    1.164982e+02    2.158828e+00    7.221982e+07    2.015451e-08    1.694098e-10    1.943506e-08   -2.427069e+00
    4.285336e+00    1.209302e+02    2.113323e+00    7.159509e+07    2.013204e-08    1.634775e-10    1.940915e-08   -2.422069e+00
    4.335345e+00    1.254840e+02    2.068265e+00    7.096644e+07    2.010931e-08    1.577634e-10    1.938270e-08   -2.417069e+00
    4.386393e+00    1.301620e+02    2.023657e+00    7.033391e+07    2.008630e-08    1.522593e-10    1.935569e-08   -2.412069e+00
    4.438514e+00    1.349667e+02    1.979501e+00    6.969757e+07    2.006299e-08    1.469570e-10    1.932810e-08   -2.407069e+00
    4.491746e+00    1.399008e+02    1.935798e+00    6.905758e+07    2.003936e-08    1.418488e-10    1.929992e-08   -2.402069e+00
    4.546126e+00    1.449672e+02    1.892550e+00    6.841398e+07    2.001539e-08    1.369271e-10    1.927114e-08   -2.397069e+00
    4.601690e+00    1.501687e+02    1.849760e+00    6.776682e+07    1.999107e-08    1.321847e-10    1.924173e-08   -2.392069e+00
    4.658478e+00    1.555081e+02    1.807430e+00    6.711613e+07    1.996636e-08    1.276149e-10    1.921168e-08   -2.387069e+00
    4.716531e+00    1.609885e+02    1.765563e+00    6.646200e+07    1.994126e-08    1.232109e-10    1.918097e-08   -2.382069e+00
    4.775894e+00    1.666134e+02    1.724158e+00    6.580450e+07    1.991573e-08    1.189663e-10    1.914958e-08   -2.377069e+00
    4.836608e+00    1.723861e+02    1.683219e+00    6.514365e+07    1.988976e-08    1.148751e-10    1.911749e-08   -2.372069e+00
    4.898715e+00    1.783099e+02    1.642748e+00    6.447945e+07    1.986333e-08    1.109312e-10    1.908468e-08   -2.367069e+00
    4.962271e+00    1.843886e+02    1.602746e+00    6.381200e+07    1.983641e-08    1.071293e-10    1.905113e-08   -2.362069e+00
    5.027315e+00    1.906260e+02    1.563216e+00    6.314125e+07    1.980898e-08    1.034636e-10    1.901681e-08   -2.357069e+00
    5.093904e+00    1.970260e+02    1.524159e+00    6.246727e+07    1.978102e-08    9.992910e-11    1.898169e-08   -2.352069e+00
    5.162083e+00    2.035926e+02    1.485577e+00    6.179000e+07    1.975251e-08    9.652075e-11    1.894578e-08   -2.347069e+00
    5.231915e+00    2.103301e+02    1.447473e+00    6.110956e+07    1.972342e-08    9.323380e-11    1.890903e-08   -2.342069e+00
    5.303446e+00    2.172427e+02    1.409848e+00    6.042582e+07    1.969373e-08    9.006350e-11    1.887141e-08   -2.337069e+00
    5.376738e+00    2.243351e+02    1.372703e+00    5.973886e+07    1.966341e-08    8.700555e-11    1.883291e-08   -2.332069e+00
    5.451852e+00    2.316119e+02    1.336042e+00    5.904865e+07    1.963244e-08    8.405565e-11    1.879350e-08   -2.327069e+00
    5.528846e+00    2.390779e+02    1.299864e+00    5.835514e+07    1.960079e-08    8.120970e-11    1.875315e-08   -2.322069e+00
    5.607782e+00    2.467380e+02    1.264174e+00    5.765833e+07    1.956844e-08    7.846380e-11    1.871182e-08   -2.317069e+00
    5.688730e+00    2.545975e+02    1.228973e+00    5.695821e+07    1.953536e-08    7.581415e-11    1.866950e-08   -2.312069e+00
    5.771757e+00    2.626615e+02    1.194262e+00    5.625474e+07    1.950153e-08    7.325720e-11    1.862616e-08   -2.307069e+00
    5.856924e+00    2.709354e+02    1.160044e+00    5.554783e+07    1.946692e-08    7.078945e-11    1.858175e-08   -2.302069e+00
    5.944314e+00    2.794247e+02    1.126320e+00    5.483749e+07    1.943149e-08    6.840760e-11    1.853626e-08   -2.297069e+00
    6.033995e+00    2.881352e+02    1.093093e+00    5.412366e+07    1.939523e-08    6.610840e-11    1.848965e-08   -2.292069e+00
    6.126045e+00    2.970727e+02    1.060364e+00    5.340629e+07    1.935810e-08    6.388880e-11    1.844188e-08   -2.287069e+00
    6.220535e+00    3.062427e+02    1.028135e+00    5.268527e+07    1.932008e-08    6.174585e-11    1.839292e-08   -2.282069e+00
    6.317560e+00    3.156518e+02    9.964085e-01    5.196066e+07    1.928112e-08    5.967675e-11    1.834274e-08   -2.277069e+00
    6.417181e+00    3.253054e+02    9.651870e-01    5.123225e+07    1.924122e-08    5.767875e-11    1.829131e-08   -2.272069e+00
    6.519498e+00    3.352099e+02    9.344715e-01    5.050004e+07    1.920033e-08    5.574920e-11    1.823859e-08   -2.267069e+00
    6.624594e+00    3.453717e+02    9.042645e-01    4.976399e+07    1.915842e-08    5.388570e-11    1.818454e-08   -2.262069e+00
    6.732549e+00    3.557966e+02    8.745685e-01    4.902400e+07    1.911546e-08    5.208575e-11    1.812912e-08   -2.257069e+00
    6.843454e+00    3.664907e+02    8.453845e-01    4.827993e+07    1.907143e-08    5.034705e-11    1.807231e-08   -2.252069e+00
    6.957404e+00    3.774605e+02    8.167155e-01    4.753180e+07    1.902628e-08    4.866741e-11    1.801404e-08   -2.247069e+00
    7.074482e+00    3.887114e+02    7.885630e-01    4.677946e+07    1.897999e-08    4.704468e-11    1.795430e-08   -2.242069e+00
    7.194780e+00    4.002494e+02    7.609295e-01    4.602286e+07    1.893252e-08    4.547680e-11    1.789304e-08   -2.237069e+00
    7.318396e+00    4.120806e+02    7.338165e-01    4.526193e+07    1.888384e-08    4.396181e-11    1.783022e-08   -2.232069e+00
    7.445415e+00    4.242099e+02    7.072265e-01    4.449659e+07    1.883393e-08    4.249781e-11    1.776579e-08   -2.227069e+00
    7.575940e+00    4.366428e+02    6.811610e-01    4.372681e+07    1.878273e-08    4.108298e-11    1.769972e-08   -2.222069e+00
    7.710033e+00    4.493833e+02    6.556230e-01    4.295244e+07    1.873021e-08    3.971558e-11    1.763198e-08   -2.217069e+00
    7.847818e+00    4.624366e+02    6.306130e-01    4.217351e+07    1.867636e-08    3.839391e-11    1.756251e-08   -2.212069e+00
    7.989355e+00    4.758055e+02    6.061340e-01    4.138991e+07    1.862113e-08    3.711636e-11    1.749126e-08   -2.207069e+00
    8.134734e+00    4.894933e+02    5.821875e-01    4.060163e+07    1.856448e-08    3.588139e-11    1.741821e-08   -2.202069e+00
    8.284038e+00    5.035023e+02    5.587750e-01    3.980864e+07    1.850640e-08    3.468748e-11    1.734331e-08   -2.197069e+00
    8.437328e+00    5.178337e+02    5.358990e-01    3.901095e+07    1.844682e-08    3.353322e-11    1.726652e-08   -2.192069e+00
    8.594688e+00    5.324879e+02    5.135600e-01    3.820855e+07    1.838573e-08    3.241721e-11    1.718778e-08   -2.187069e+00
    8.756162e+00    5.474642e+02    4.917605e-01    3.740147e+07    1.832309e-08    3.133812e-11    1.710707e-08   -2.182069e+00
    8.921809e+00    5.627600e+02    4.705013e-01    3.658977e+07    1.825888e-08    3.029468e-11    1.702434e-08   -2.177069e+00
    9.091670e+00    5.783721e+02    4.497837e-01    3.577355e+07    1.819305e-08    2.928565e-11    1.693955e-08   -2.172069e+00
    9.265770e+00    5.942945e+02    4.296088e-01    3.495289e+07    1.812557e-08    2.830986e-11    1.685265e-08   -2.167069e+00
    9.444127e+00    6.105209e+02    4.099774e-01    3.412796e+07    1.805641e-08    2.736617e-11    1.676361e-08   -2.162069e+00
    9.626738e+00    6.270418e+02    3.908901e-01    3.329895e+07    1.798554e-08    2.645346e-11    1.667238e-08   -2.157069e+00
    9.813588e+00    6.438455e+02    3.723475e-01    3.246606e+07    1.791294e-08    2.557070e-11    1.657894e-08   -2.152069e+00
    1.000464e+01    6.609181e+02    3.543495e-01    3.162959e+07    1.783856e-08    2.471686e-11    1.648323e-08   -2.147069e+00
    1.019983e+01    6.782428e+02    3.368959e-01    3.078985e+07    1.776238e-08    2.389097e-11    1.638521e-08   -2.142069e+00
    1.039907e+01    6.958013e+02    3.199864e-01    2.994721e+07    1.768438e-08    2.309208e-11    1.628487e-08   -2.137069e+00
    1.060226e+01    7.135701e+02    3.036200e-01    2.910211e+07    1.760453e-08    2.231928e-11    1.618216e-08   -2.132069e+00
    1.080925e+01    7.315239e+02    2.877954e-01    2.825504e+07    1.752280e-08    2.157171e-11    1.607705e-08   -2.127069e+00
    1.101987e+01    7.496332e+02    2.725109e-01    2.740656e+07    1.743918e-08    2.084852e-11    1.596952e-08   -2.122069e+00
    1.123392e+01    7.678655e+02    2.577642e-01    2.655731e+07    1.735363e-08    2.014890e-11    1.585952e-08   -2.117069e+00
    1.145116e+01    7.861842e+02    2.435528e-01    2.570795e+07    1.726614e-08    1.947207e-11    1.574703e-08   -2.112069e+00
    1.167129e+01    8.045494e+02    2.298735e-01    2.485926e+07    1.717670e-08    1.881727e-11    1.563203e-08   -2.107069e+00
    1.189401e+01    8.229166e+02    2.167223e-01    2.401208e+07    1.708528e-08    1.818378e-11    1.551449e-08   -2.102069e+00
    1.211893e+01    8.412377e+02    2.040949e-01    2.316729e+07    1.699188e-08    1.757089e-11    1.539441e-08   -2.097069e+00
    1.234567e+01    8.594616e+02    1.919864e-01    2.232588e+07    1.689649e-08    1.697794e-11    1.527175e-08   -2.092069e+00
    1.257375e+01    8.775326e+02    1.803909e-01    2.148889e+07    1.679909e-08    1.640427e-11    1.514652e-08   -2.087069e+00
    1.280269e+01    8.953921e+02    1.693022e-01    2.065742e+07    1.669967e-08    1.584925e-11    1.501869e-08   -2.082069e+00
    1.303195e+01    9.129788e+02    1.587132e-01    1.983262e+07    1.659825e-08    1.531228e-11    1.488827e-08   -2.077069e+00
    1.326093e+01    9.302277e+02    1.486161e-01    1.901569e+07    1.649483e-08    1.479277e-11    1.475524e-08   -2.072069e+00
    1.348901e+01    9.470731e+02    1.390023e-01    1.820789e+07    1.638939e-08    1.429017e-11    1.461962e-08   -2.067069e+00
    1.371553e+01    9.634465e+02    1.298629e-01    1.741049e+07    1.628196e-08    1.380391e-11    1.448141e-08   -2.062069e+00
    1.393980e+01    9.792797e+02    1.211876e-01    1.662480e+07    1.617254e-08    1.333348e-11    1.434061e-08   -2.057069e+00
    1.416108e+01    9.945044e+02    1.129659e-01    1.585211e+07    1.606115e-08    1.287838e-11    1.419726e-08   -2.052069e+00
    1.437863e+01    1.009051e+03    1.051865e-01    1.509373e+07    1.594781e-08    1.243810e-11    1.405135e-08   -2.047069e+00
    1.459169e+01    1.022857e+03    9.783740e-02    1.435094e+07    1.583253e-08    1.201218e-11    1.390291e-08   -2.042069e+00
