# sky130 pfet_01v8 gm/ID Processed Lookup Table
# Corner: ff
# Temperature: 25C
# W = 2.0 um
# L = 3.24 um (3240 nm)
# Columns: gm/id [1/V]  gm/gds [V/V]  id/W [A/m]  ft [Hz]  Cgg/W [F/m]  Cgd/W [F/m]  Cgs/W [F/m]  Vov [V]
#         gm/id          gm/gds            id/W              ft           Cgg/W           Cgd/W           Cgs/W             Vov
    1.962226e+00    4.097146e+00    6.815055e+00    1.007890e+08    2.111665e-08    2.124693e-09    1.914317e-08   -2.796459e+00
    1.982824e+00    4.230445e+00    6.748175e+00    1.010522e+08    2.107389e-08    2.066197e-09    1.914757e-08   -2.791459e+00
    2.003709e+00    4.370975e+00    6.681255e+00    1.013077e+08    2.103151e-08    2.008540e-09    1.915156e-08   -2.786459e+00
    2.024882e+00    4.519228e+00    6.614300e+00    1.015549e+08    2.098953e-08    1.951753e-09    1.915513e-08   -2.781459e+00
    2.046339e+00    4.675737e+00    6.547325e+00    1.017934e+08    2.094797e-08    1.895861e-09    1.915826e-08   -2.776459e+00
    2.068080e+00    4.841066e+00    6.480325e+00    1.020224e+08    2.090685e-08    1.840891e-09    1.916097e-08   -2.771459e+00
    2.090106e+00    5.015828e+00    6.413305e+00    1.022415e+08    2.086619e-08    1.786866e-09    1.916324e-08   -2.766459e+00
    2.112409e+00    5.200673e+00    6.346280e+00    1.024499e+08    2.082601e-08    1.733809e-09    1.916508e-08   -2.761459e+00
    2.134991e+00    5.396301e+00    6.279250e+00    1.026471e+08    2.078631e-08    1.681740e-09    1.916648e-08   -2.756459e+00
    2.157846e+00    5.603452e+00    6.212220e+00    1.028323e+08    2.074712e-08    1.630676e-09    1.916744e-08   -2.751459e+00
    2.180971e+00    5.822927e+00    6.145200e+00    1.030051e+08    2.070845e-08    1.580634e-09    1.916796e-08   -2.746459e+00
    2.204361e+00    6.055571e+00    6.078200e+00    1.031647e+08    2.067030e-08    1.531626e-09    1.916803e-08   -2.741459e+00
    2.228011e+00    6.302287e+00    6.011220e+00    1.033104e+08    2.063270e-08    1.483667e-09    1.916766e-08   -2.736459e+00
    2.251917e+00    6.564028e+00    5.944270e+00    1.034417e+08    2.059564e-08    1.436764e-09    1.916686e-08   -2.731459e+00
    2.276070e+00    6.841817e+00    5.877360e+00    1.035579e+08    2.055914e-08    1.390925e-09    1.916562e-08   -2.726459e+00
    2.300466e+00    7.136726e+00    5.810500e+00    1.036584e+08    2.052320e-08    1.346157e-09    1.916394e-08   -2.721459e+00
    2.325098e+00    7.449890e+00    5.743695e+00    1.037426e+08    2.048782e-08    1.302463e-09    1.916182e-08   -2.716459e+00
    2.349960e+00    7.782510e+00    5.676955e+00    1.038099e+08    2.045302e-08    1.259843e-09    1.915927e-08   -2.711459e+00
    2.375041e+00    8.135840e+00    5.610295e+00    1.038597e+08    2.041879e-08    1.218299e-09    1.915630e-08   -2.706459e+00
    2.400340e+00    8.511207e+00    5.543715e+00    1.038916e+08    2.038513e-08    1.177828e-09    1.915290e-08   -2.701459e+00
    2.425847e+00    8.909987e+00    5.477230e+00    1.039050e+08    2.035204e-08    1.138426e-09    1.914908e-08   -2.696459e+00
    2.451556e+00    9.333626e+00    5.410850e+00    1.038996e+08    2.031952e-08    1.100086e-09    1.914484e-08   -2.691459e+00
    2.477462e+00    9.783617e+00    5.344580e+00    1.038749e+08    2.028757e-08    1.062803e-09    1.914019e-08   -2.686459e+00
    2.503557e+00    1.026152e+01    5.278440e+00    1.038307e+08    2.025618e-08    1.026566e-09    1.913513e-08   -2.681459e+00
    2.529836e+00    1.076894e+01    5.212435e+00    1.037665e+08    2.022535e-08    9.913660e-10    1.912966e-08   -2.676459e+00
    2.556294e+00    1.130754e+01    5.146580e+00    1.036822e+08    2.019507e-08    9.571910e-10    1.912380e-08   -2.671459e+00
    2.582929e+00    1.187900e+01    5.080880e+00    1.035776e+08    2.016534e-08    9.240275e-10    1.911754e-08   -2.666459e+00
    2.609740e+00    1.248510e+01    5.015345e+00    1.034527e+08    2.013614e-08    8.918620e-10    1.911088e-08   -2.661459e+00
    2.636719e+00    1.312760e+01    4.949995e+00    1.033074e+08    2.010746e-08    8.606790e-10    1.910385e-08   -2.656459e+00
    2.663869e+00    1.380830e+01    4.884834e+00    1.031417e+08    2.007930e-08    8.304620e-10    1.909643e-08   -2.651459e+00
    2.691190e+00    1.452905e+01    4.819873e+00    1.029556e+08    2.005165e-08    8.011945e-10    1.908864e-08   -2.646459e+00
    2.718684e+00    1.529171e+01    4.755125e+00    1.027494e+08    2.002449e-08    7.728585e-10    1.908047e-08   -2.641459e+00
    2.746351e+00    1.609813e+01    4.690600e+00    1.025232e+08    1.999781e-08    7.454350e-10    1.907195e-08   -2.636459e+00
    2.774197e+00    1.695020e+01    4.626309e+00    1.022773e+08    1.997159e-08    7.189055e-10    1.906306e-08   -2.631459e+00
    2.802226e+00    1.784979e+01    4.562260e+00    1.020120e+08    1.994583e-08    6.932495e-10    1.905381e-08   -2.626459e+00
    2.830443e+00    1.879876e+01    4.498467e+00    1.017276e+08    1.992051e-08    6.684480e-10    1.904421e-08   -2.621459e+00
    2.858858e+00    1.979900e+01    4.434937e+00    1.014245e+08    1.989562e-08    6.444800e-10    1.903425e-08   -2.616459e+00
    2.887475e+00    2.085234e+01    4.371682e+00    1.011030e+08    1.987113e-08    6.213250e-10    1.902395e-08   -2.611459e+00
    2.916306e+00    2.196062e+01    4.308709e+00    1.007638e+08    1.984705e-08    5.989620e-10    1.901331e-08   -2.606459e+00
    2.945361e+00    2.312564e+01    4.246030e+00    1.004072e+08    1.982334e-08    5.773705e-10    1.900233e-08   -2.601459e+00
    2.974651e+00    2.434918e+01    4.183651e+00    1.000338e+08    1.979999e-08    5.565295e-10    1.899101e-08   -2.596459e+00
    3.004188e+00    2.563296e+01    4.121583e+00    9.964396e+07    1.977700e-08    5.364175e-10    1.897936e-08   -2.591459e+00
    3.033984e+00    2.697874e+01    4.059834e+00    9.923831e+07    1.975433e-08    5.170140e-10    1.896737e-08   -2.586459e+00
    3.064052e+00    2.838817e+01    3.998411e+00    9.881732e+07    1.973198e-08    4.982982e-10    1.895506e-08   -2.581459e+00
    3.094408e+00    2.986291e+01    3.937323e+00    9.838159e+07    1.970993e-08    4.802495e-10    1.894241e-08   -2.576459e+00
    3.125068e+00    3.140457e+01    3.876577e+00    9.793162e+07    1.968816e-08    4.628474e-10    1.892943e-08   -2.571459e+00
    3.156044e+00    3.301472e+01    3.816180e+00    9.746789e+07    1.966665e-08    4.460718e-10    1.891614e-08   -2.566459e+00
    3.187353e+00    3.469490e+01    3.756139e+00    9.699096e+07    1.964539e-08    4.299028e-10    1.890251e-08   -2.561459e+00
    3.219013e+00    3.644662e+01    3.696461e+00    9.650134e+07    1.962437e-08    4.143208e-10    1.888855e-08   -2.556459e+00
    3.251040e+00    3.827136e+01    3.637151e+00    9.599953e+07    1.960355e-08    3.993068e-10    1.887427e-08   -2.551459e+00
    3.283452e+00    4.017056e+01    3.578217e+00    9.548601e+07    1.958293e-08    3.848418e-10    1.885966e-08   -2.546459e+00
    3.316265e+00    4.214565e+01    3.519664e+00    9.496122e+07    1.956250e-08    3.709073e-10    1.884472e-08   -2.541459e+00
    3.349500e+00    4.419802e+01    3.461498e+00    9.442567e+07    1.954223e-08    3.574852e-10    1.882944e-08   -2.536459e+00
    3.383173e+00    4.632906e+01    3.403723e+00    9.387978e+07    1.952210e-08    3.445580e-10    1.881384e-08   -2.531459e+00
    3.417304e+00    4.854013e+01    3.346345e+00    9.332393e+07    1.950210e-08    3.321085e-10    1.879789e-08   -2.526459e+00
    3.451912e+00    5.083258e+01    3.289370e+00    9.275856e+07    1.948223e-08    3.201196e-10    1.878161e-08   -2.521459e+00
    3.487018e+00    5.320778e+01    3.232801e+00    9.218412e+07    1.946244e-08    3.085753e-10    1.876498e-08   -2.516459e+00
    3.522640e+00    5.566705e+01    3.176643e+00    9.160086e+07    1.944273e-08    2.974595e-10    1.874801e-08   -2.511459e+00
    3.558800e+00    5.821175e+01    3.120901e+00    9.100924e+07    1.942308e-08    2.867569e-10    1.873069e-08   -2.506459e+00
    3.595518e+00    6.084326e+01    3.065578e+00    9.040955e+07    1.940348e-08    2.764523e-10    1.871301e-08   -2.501459e+00
    3.632814e+00    6.356287e+01    3.010679e+00    8.980206e+07    1.938391e-08    2.665312e-10    1.869497e-08   -2.496459e+00
    3.670713e+00    6.637209e+01    2.956206e+00    8.918717e+07    1.936435e-08    2.569796e-10    1.867656e-08   -2.491459e+00
    3.709235e+00    6.927226e+01    2.902166e+00    8.856511e+07    1.934479e-08    2.477837e-10    1.865779e-08   -2.486459e+00
    3.748403e+00    7.226480e+01    2.848560e+00    8.793619e+07    1.932521e-08    2.389303e-10    1.863863e-08   -2.481459e+00
    3.788240e+00    7.535124e+01    2.795392e+00    8.730064e+07    1.930558e-08    2.304067e-10    1.861909e-08   -2.476459e+00
    3.828771e+00    7.853305e+01    2.742665e+00    8.665871e+07    1.928591e-08    2.222003e-10    1.859914e-08   -2.471459e+00
    3.870021e+00    8.181186e+01    2.690382e+00    8.601068e+07    1.926616e-08    2.142993e-10    1.857881e-08   -2.466459e+00
    3.912011e+00    8.518912e+01    2.638547e+00    8.535664e+07    1.924632e-08    2.066923e-10    1.855805e-08   -2.461459e+00
    3.954771e+00    8.866661e+01    2.587162e+00    8.469695e+07    1.922638e-08    1.993678e-10    1.853688e-08   -2.456459e+00
    3.998324e+00    9.224603e+01    2.536231e+00    8.403168e+07    1.920631e-08    1.923153e-10    1.851528e-08   -2.451459e+00
    4.042698e+00    9.592912e+01    2.485757e+00    8.336107e+07    1.918611e-08    1.855244e-10    1.849324e-08   -2.446459e+00
    4.087924e+00    9.971774e+01    2.435741e+00    8.268532e+07    1.916575e-08    1.789850e-10    1.847075e-08   -2.441459e+00
    4.134027e+00    1.036138e+02    2.386186e+00    8.200451e+07    1.914521e-08    1.726875e-10    1.844779e-08   -2.436459e+00
    4.181037e+00    1.076193e+02    2.337096e+00    8.131880e+07    1.912448e-08    1.666228e-10    1.842437e-08   -2.431459e+00
    4.228985e+00    1.117362e+02    2.288473e+00    8.062837e+07    1.910355e-08    1.607817e-10    1.840045e-08   -2.426459e+00
    4.277904e+00    1.159669e+02    2.240318e+00    7.993336e+07    1.908239e-08    1.551558e-10    1.837604e-08   -2.421459e+00
    4.327823e+00    1.203135e+02    2.192635e+00    7.923384e+07    1.906098e-08    1.497367e-10    1.835112e-08   -2.416459e+00
    4.378777e+00    1.247782e+02    2.145425e+00    7.852991e+07    1.903932e-08    1.445166e-10    1.832567e-08   -2.411459e+00
    4.430803e+00    1.293637e+02    2.098692e+00    7.782173e+07    1.901736e-08    1.394877e-10    1.829968e-08   -2.406459e+00
    4.483933e+00    1.340725e+02    2.052437e+00    7.710935e+07    1.899512e-08    1.346426e-10    1.827314e-08   -2.401459e+00
    4.538203e+00    1.389070e+02    2.006663e+00    7.639285e+07    1.897256e-08    1.299744e-10    1.824602e-08   -2.396459e+00
    4.593658e+00    1.438703e+02    1.961372e+00    7.567239e+07    1.894965e-08    1.254761e-10    1.821832e-08   -2.391459e+00
    4.650330e+00    1.489650e+02    1.916565e+00    7.494792e+07    1.892640e-08    1.211413e-10    1.819000e-08   -2.386459e+00
    4.708263e+00    1.541944e+02    1.872246e+00    7.421957e+07    1.890276e-08    1.169637e-10    1.816108e-08   -2.381459e+00
    4.767497e+00    1.595612e+02    1.828416e+00    7.348736e+07    1.887873e-08    1.129372e-10    1.813151e-08   -2.376459e+00
    4.828079e+00    1.650691e+02    1.785076e+00    7.275138e+07    1.885429e-08    1.090560e-10    1.810128e-08   -2.371459e+00
    4.890052e+00    1.707212e+02    1.742231e+00    7.201165e+07    1.882940e-08    1.053146e-10    1.807036e-08   -2.366459e+00
    4.953464e+00    1.765211e+02    1.699881e+00    7.126821e+07    1.880407e-08    1.017076e-10    1.803876e-08   -2.361459e+00
    5.018359e+00    1.824723e+02    1.658029e+00    7.052105e+07    1.877825e-08    9.822985e-11    1.800643e-08   -2.356459e+00
    5.084791e+00    1.885787e+02    1.616676e+00    6.977021e+07    1.875194e-08    9.487650e-11    1.797336e-08   -2.351459e+00
    5.152812e+00    1.948444e+02    1.575825e+00    6.901572e+07    1.872511e-08    9.164265e-11    1.793953e-08   -2.346459e+00
    5.222476e+00    2.012733e+02    1.535478e+00    6.825763e+07    1.869773e-08    8.852390e-11    1.790490e-08   -2.341459e+00
    5.293833e+00    2.078694e+02    1.495636e+00    6.749581e+07    1.866978e-08    8.551580e-11    1.786947e-08   -2.336459e+00
    5.366948e+00    2.146376e+02    1.456302e+00    6.673040e+07    1.864126e-08    8.261420e-11    1.783321e-08   -2.331459e+00
    5.441871e+00    2.215818e+02    1.417478e+00    6.596126e+07    1.861211e-08    7.981505e-11    1.779608e-08   -2.326459e+00
    5.518673e+00    2.287072e+02    1.379165e+00    6.518847e+07    1.858233e-08    7.711445e-11    1.775807e-08   -2.321459e+00
    5.597411e+00    2.360184e+02    1.341367e+00    6.441198e+07    1.855189e-08    7.450870e-11    1.771914e-08   -2.316459e+00
    5.678150e+00    2.435203e+02    1.304084e+00    6.363174e+07    1.852076e-08    7.199430e-11    1.767928e-08   -2.311459e+00
    5.760958e+00    2.512180e+02    1.267319e+00    6.284769e+07    1.848893e-08    6.956775e-11    1.763845e-08   -2.306459e+00
    5.845911e+00    2.591171e+02    1.231075e+00    6.205989e+07    1.845635e-08    6.722580e-11    1.759662e-08   -2.301459e+00
    5.933070e+00    2.672223e+02    1.195353e+00    6.126817e+07    1.842302e-08    6.496525e-11    1.755377e-08   -2.296459e+00
    6.022513e+00    2.755397e+02    1.160155e+00    6.047253e+07    1.838889e-08    6.278315e-11    1.750986e-08   -2.291459e+00
    6.114320e+00    2.840747e+02    1.125482e+00    5.967293e+07    1.835396e-08    6.067655e-11    1.746487e-08   -2.286459e+00
    6.208558e+00    2.928330e+02    1.091339e+00    5.886928e+07    1.831817e-08    5.864260e-11    1.741875e-08   -2.281459e+00
    6.305318e+00    3.018206e+02    1.057727e+00    5.806154e+07    1.828152e-08    5.667870e-11    1.737148e-08   -2.276459e+00
    6.404679e+00    3.110435e+02    1.024647e+00    5.724963e+07    1.824396e-08    5.478225e-11    1.732304e-08   -2.271459e+00
    6.506717e+00    3.205073e+02    9.921025e-01    5.643343e+07    1.820548e-08    5.295075e-11    1.727337e-08   -2.266459e+00
    6.611526e+00    3.302184e+02    9.600945e-01    5.561290e+07    1.816604e-08    5.118185e-11    1.722245e-08   -2.261459e+00
    6.719191e+00    3.401827e+02    9.286260e-01    5.478797e+07    1.812562e-08    4.947326e-11    1.717025e-08   -2.256459e+00
    6.829795e+00    3.504060e+02    8.976990e-01    5.395850e+07    1.808418e-08    4.782278e-11    1.711671e-08   -2.251459e+00
    6.943432e+00    3.608949e+02    8.673160e-01    5.312447e+07    1.804169e-08    4.622831e-11    1.706183e-08   -2.246459e+00
    7.060193e+00    3.716549e+02    8.374785e-01    5.228575e+07    1.799812e-08    4.468782e-11    1.700555e-08   -2.241459e+00
    7.180177e+00    3.826923e+02    8.081890e-01    5.144232e+07    1.795344e-08    4.319938e-11    1.694783e-08   -2.236459e+00
    7.303458e+00    3.940120e+02    7.794500e-01    5.059400e+07    1.790762e-08    4.176110e-11    1.688864e-08   -2.231459e+00
    7.430141e+00    4.056200e+02    7.512630e-01    4.974076e+07    1.786063e-08    4.037120e-11    1.682794e-08   -2.226459e+00
    7.560316e+00    4.175214e+02    7.236305e-01    4.888251e+07    1.781244e-08    3.902795e-11    1.676569e-08   -2.221459e+00
    7.694066e+00    4.297208e+02    6.965550e-01    4.801920e+07    1.776301e-08    3.772969e-11    1.670186e-08   -2.216459e+00
    7.831489e+00    4.422229e+02    6.700380e-01    4.715075e+07    1.771232e-08    3.647483e-11    1.663639e-08   -2.211459e+00
    7.972671e+00    4.550316e+02    6.440815e-01    4.627711e+07    1.766032e-08    3.526183e-11    1.656926e-08   -2.206459e+00
    8.117686e+00    4.681497e+02    6.186880e-01    4.539823e+07    1.760699e-08    3.408922e-11    1.650043e-08   -2.201459e+00
    8.266621e+00    4.815800e+02    5.938590e-01    4.451410e+07    1.755229e-08    3.295558e-11    1.642984e-08   -2.196459e+00
    8.419547e+00    4.953245e+02    5.695965e-01    4.362469e+07    1.749620e-08    3.185956e-11    1.635747e-08   -2.191459e+00
    8.576536e+00    5.093838e+02    5.459020e-01    4.273001e+07    1.743869e-08    3.079984e-11    1.628326e-08   -2.186459e+00
    8.737643e+00    5.237574e+02    5.227775e-01    4.183010e+07    1.737971e-08    2.977515e-11    1.620719e-08   -2.181459e+00
    8.902926e+00    5.384441e+02    5.002240e-01    4.092502e+07    1.731923e-08    2.878429e-11    1.612921e-08   -2.176459e+00
    9.072421e+00    5.534407e+02    4.782434e-01    4.001485e+07    1.725723e-08    2.782609e-11    1.604929e-08   -2.171459e+00
    9.246167e+00    5.687432e+02    4.568363e-01    3.909972e+07    1.719368e-08    2.689942e-11    1.596738e-08   -2.166459e+00
    9.424177e+00    5.843450e+02    4.360038e-01    3.817979e+07    1.712854e-08    2.600321e-11    1.588344e-08   -2.161459e+00
    9.606453e+00    6.002384e+02    4.157467e-01    3.725524e+07    1.706179e-08    2.513641e-11    1.579744e-08   -2.156459e+00
    9.792979e+00    6.164122e+02    3.960654e-01    3.632634e+07    1.699339e-08    2.429804e-11    1.570933e-08   -2.151459e+00
    9.983721e+00    6.328549e+02    3.769601e-01    3.539340e+07    1.692332e-08    2.348711e-11    1.561909e-08   -2.146459e+00
    1.017862e+01    6.495510e+02    3.584307e-01    3.445674e+07    1.685156e-08    2.270271e-11    1.552668e-08   -2.141459e+00
    1.037760e+01    6.664831e+02    3.404766e-01    3.351678e+07    1.677807e-08    2.194393e-11    1.543206e-08   -2.136459e+00
    1.058055e+01    6.836303e+02    3.230970e-01    3.257403e+07    1.670283e-08    2.120992e-11    1.533520e-08   -2.131459e+00
    1.078734e+01    7.009681e+02    3.062906e-01    3.162898e+07    1.662582e-08    2.049986e-11    1.523607e-08   -2.126459e+00
    1.099779e+01    7.184702e+02    2.900558e-01    3.068228e+07    1.654701e-08    1.981294e-11    1.513465e-08   -2.121459e+00
    1.121171e+01    7.361058e+02    2.743901e-01    2.973460e+07    1.646638e-08    1.914838e-11    1.503089e-08   -2.116459e+00
    1.142885e+01    7.538408e+02    2.592910e-01    2.878672e+07    1.638392e-08    1.850547e-11    1.492478e-08   -2.111459e+00
    1.164894e+01    7.716374e+02    2.447549e-01    2.783946e+07    1.629961e-08    1.788346e-11    1.481630e-08   -2.106459e+00
    1.187167e+01    7.894539e+02    2.307782e-01    2.689377e+07    1.621343e-08    1.728168e-11    1.470541e-08   -2.101459e+00
    1.209666e+01    8.072450e+02    2.173561e-01    2.595062e+07    1.612538e-08    1.669946e-11    1.459211e-08   -2.096459e+00
    1.232353e+01    8.249621e+02    2.044835e-01    2.501110e+07    1.603543e-08    1.613617e-11    1.447638e-08   -2.091459e+00
    1.255181e+01    8.425522e+02    1.921544e-01    2.407637e+07    1.594359e-08    1.559118e-11    1.435820e-08   -2.086459e+00
    1.278102e+01    8.599597e+02    1.803623e-01    2.314763e+07    1.584984e-08    1.506390e-11    1.423757e-08   -2.081459e+00
    1.301062e+01    8.771256e+02    1.690997e-01    2.222619e+07    1.575419e-08    1.455375e-11    1.411447e-08   -2.076459e+00
    1.324003e+01    8.939882e+02    1.583585e-01    2.131337e+07    1.565664e-08    1.406019e-11    1.398891e-08   -2.071459e+00
    1.346862e+01    9.104839e+02    1.481299e-01    2.041057e+07    1.555718e-08    1.358266e-11    1.386089e-08   -2.066459e+00
    1.369574e+01    9.265468e+02    1.384041e-01    1.951921e+07    1.545583e-08    1.312067e-11    1.373041e-08   -2.061459e+00
    1.392069e+01    9.421110e+02    1.291708e-01    1.864075e+07    1.535260e-08    1.267370e-11    1.359748e-08   -2.056459e+00
    1.414274e+01    9.571095e+02    1.204188e-01    1.777663e+07    1.524750e-08    1.224127e-11    1.346212e-08   -2.051459e+00
    1.436115e+01    9.714762e+02    1.121362e-01    1.692833e+07    1.514054e-08    1.182293e-11    1.332434e-08   -2.046459e+00
    1.457516e+01    9.851471e+02    1.043105e-01    1.609726e+07    1.503175e-08    1.141823e-11    1.318416e-08   -2.041459e+00
