# sky130 pfet_01v8 gm/ID Processed Lookup Table
# Corner: ff
# Temperature: 25C
# W = 2.0 um
# L = 1.44 um (1440 nm)
# Columns: gm/id [1/V]  gm/gds [V/V]  id/W [A/m]  ft [Hz]  Cgg/W [F/m]  Cgd/W [F/m]  Cgs/W [F/m]  Vov [V]
#         gm/id          gm/gds            id/W              ft           Cgg/W           Cgd/W           Cgs/W             Vov
    1.845908e+00    3.258052e+00    1.573646e+01    4.934725e+08    9.368590e-09    8.533170e-10    8.501240e-09   -2.780400e+00
    1.865410e+00    3.348746e+00    1.559112e+01    4.949728e+08    9.351700e-09    8.296860e-10    8.503300e-09   -2.775400e+00
    1.885203e+00    3.443754e+00    1.544562e+01    4.964437e+08    9.334985e-09    8.064350e-10    8.505175e-09   -2.770400e+00
    1.905291e+00    3.543341e+00    1.529994e+01    4.978830e+08    9.318455e-09    7.835730e-10    8.506870e-09   -2.765400e+00
    1.925673e+00    3.647798e+00    1.515412e+01    4.992886e+08    9.302115e-09    7.611090e-10    8.508375e-09   -2.760400e+00
    1.946355e+00    3.757431e+00    1.500813e+01    5.006584e+08    9.285970e-09    7.390500e-10    8.509700e-09   -2.755400e+00
    1.967337e+00    3.872568e+00    1.486200e+01    5.019902e+08    9.270025e-09    7.174035e-10    8.510835e-09   -2.750400e+00
    1.988619e+00    3.993558e+00    1.471575e+01    5.032817e+08    9.254285e-09    6.961750e-10    8.511785e-09   -2.745400e+00
    2.010203e+00    4.120779e+00    1.456937e+01    5.045303e+08    9.238755e-09    6.753710e-10    8.512545e-09   -2.740400e+00
    2.032089e+00    4.254627e+00    1.442288e+01    5.057336e+08    9.223440e-09    6.549950e-10    8.513120e-09   -2.735400e+00
    2.054277e+00    4.395528e+00    1.427628e+01    5.068889e+08    9.208345e-09    6.350515e-10    8.513505e-09   -2.730400e+00
    2.076766e+00    4.543930e+00    1.412960e+01    5.079936e+08    9.193470e-09    6.155435e-10    8.513710e-09   -2.725400e+00
    2.099555e+00    4.700322e+00    1.398285e+01    5.090454e+08    9.178815e-09    5.964725e-10    8.513725e-09   -2.720400e+00
    2.122642e+00    4.865208e+00    1.383604e+01    5.100412e+08    9.164385e-09    5.778410e-10    8.513555e-09   -2.715400e+00
    2.146026e+00    5.039131e+00    1.368917e+01    5.109783e+08    9.150180e-09    5.596490e-10    8.513200e-09   -2.710400e+00
    2.169702e+00    5.222660e+00    1.354227e+01    5.118536e+08    9.136205e-09    5.418970e-10    8.512665e-09   -2.705400e+00
    2.193668e+00    5.416405e+00    1.339535e+01    5.126643e+08    9.122460e-09    5.245840e-10    8.511950e-09   -2.700400e+00
    2.217921e+00    5.620994e+00    1.324842e+01    5.134077e+08    9.108940e-09    5.077085e-10    8.511055e-09   -2.695400e+00
    2.242454e+00    5.837108e+00    1.310151e+01    5.140810e+08    9.095645e-09    4.912687e-10    8.509980e-09   -2.690400e+00
    2.267264e+00    6.065435e+00    1.295463e+01    5.146811e+08    9.082575e-09    4.752619e-10    8.508730e-09   -2.685400e+00
    2.292345e+00    6.306719e+00    1.280780e+01    5.152050e+08    9.069735e-09    4.596847e-10    8.507305e-09   -2.680400e+00
    2.317691e+00    6.561723e+00    1.266104e+01    5.156501e+08    9.057115e-09    4.445334e-10    8.505710e-09   -2.675400e+00
    2.343296e+00    6.831243e+00    1.251436e+01    5.160137e+08    9.044715e-09    4.298034e-10    8.503945e-09   -2.670400e+00
    2.369155e+00    7.116101e+00    1.236780e+01    5.162930e+08    9.032535e-09    4.154900e-10    8.502010e-09   -2.665400e+00
    2.395260e+00    7.417151e+00    1.222136e+01    5.164857e+08    9.020570e-09    4.015878e-10    8.499910e-09   -2.660400e+00
    2.421605e+00    7.735265e+00    1.207507e+01    5.165893e+08    9.008815e-09    3.880910e-10    8.497645e-09   -2.655400e+00
    2.448184e+00    8.071340e+00    1.192896e+01    5.166017e+08    8.997270e-09    3.749936e-10    8.495215e-09   -2.650400e+00
    2.474990e+00    8.426287e+00    1.178303e+01    5.165206e+08    8.985930e-09    3.622888e-10    8.492630e-09   -2.645400e+00
    2.502017e+00    8.801033e+00    1.163734e+01    5.163446e+08    8.974790e-09    3.499700e-10    8.489885e-09   -2.640400e+00
    2.529261e+00    9.196514e+00    1.149188e+01    5.160720e+08    8.963845e-09    3.380302e-10    8.486985e-09   -2.635400e+00
    2.556715e+00    9.613667e+00    1.134669e+01    5.157015e+08    8.953090e-09    3.264617e-10    8.483935e-09   -2.630400e+00
    2.584377e+00    1.005343e+01    1.120178e+01    5.152320e+08    8.942525e-09    3.152572e-10    8.480730e-09   -2.625400e+00
    2.612241e+00    1.051674e+01    1.105720e+01    5.146629e+08    8.932140e-09    3.044087e-10    8.477375e-09   -2.620400e+00
    2.640306e+00    1.100452e+01    1.091295e+01    5.139936e+08    8.921930e-09    2.939086e-10    8.473875e-09   -2.615400e+00
    2.668570e+00    1.151767e+01    1.076907e+01    5.132241e+08    8.911890e-09    2.837485e-10    8.470230e-09   -2.610400e+00
    2.697032e+00    1.205706e+01    1.062558e+01    5.123544e+08    8.902015e-09    2.739207e-10    8.466440e-09   -2.605400e+00
    2.725694e+00    1.262357e+01    1.048250e+01    5.113847e+08    8.892305e-09    2.644166e-10    8.462505e-09   -2.600400e+00
    2.754555e+00    1.321801e+01    1.033986e+01    5.103163e+08    8.882740e-09    2.552282e-10    8.458435e-09   -2.595400e+00
    2.783618e+00    1.384116e+01    1.019770e+01    5.091493e+08    8.873330e-09    2.463472e-10    8.454220e-09   -2.590400e+00
    2.812890e+00    1.449379e+01    1.005601e+01    5.078856e+08    8.864060e-09    2.377652e-10    8.449870e-09   -2.585400e+00
    2.842375e+00    1.517661e+01    9.914835e+00    5.065266e+08    8.854920e-09    2.294742e-10    8.445385e-09   -2.580400e+00
    2.872076e+00    1.589026e+01    9.774200e+00    5.050735e+08    8.845915e-09    2.214660e-10    8.440765e-09   -2.575400e+00
    2.902006e+00    1.663537e+01    9.634120e+00    5.035283e+08    8.837035e-09    2.137322e-10    8.436005e-09   -2.570400e+00
    2.932168e+00    1.741251e+01    9.494625e+00    5.018934e+08    8.828265e-09    2.062651e-10    8.431115e-09   -2.565400e+00
    2.962577e+00    1.822220e+01    9.355730e+00    5.001705e+08    8.819610e-09    1.990566e-10    8.426095e-09   -2.560400e+00
    2.993240e+00    1.906492e+01    9.217460e+00    4.983618e+08    8.811060e-09    1.920987e-10    8.420940e-09   -2.555400e+00
    3.024171e+00    1.994111e+01    9.079835e+00    4.964699e+08    8.802610e-09    1.853838e-10    8.415650e-09   -2.550400e+00
    3.055380e+00    2.085115e+01    8.942875e+00    4.944971e+08    8.794250e-09    1.789043e-10    8.410230e-09   -2.545400e+00
    3.086882e+00    2.179540e+01    8.806605e+00    4.924461e+08    8.785975e-09    1.726527e-10    8.404680e-09   -2.540400e+00
    3.118692e+00    2.277418e+01    8.671035e+00    4.903191e+08    8.777780e-09    1.666217e-10    8.398995e-09   -2.535400e+00
    3.150824e+00    2.378775e+01    8.536185e+00    4.881189e+08    8.769655e-09    1.608039e-10    8.393185e-09   -2.530400e+00
    3.183293e+00    2.483638e+01    8.402080e+00    4.858477e+08    8.761600e-09    1.551926e-10    8.387235e-09   -2.525400e+00
    3.216117e+00    2.592030e+01    8.268730e+00    4.835082e+08    8.753605e-09    1.497807e-10    8.381155e-09   -2.520400e+00
    3.249311e+00    2.703972e+01    8.136155e+00    4.811029e+08    8.745660e-09    1.445615e-10    8.374945e-09   -2.515400e+00
    3.282895e+00    2.819484e+01    8.004365e+00    4.786338e+08    8.737770e-09    1.395285e-10    8.368595e-09   -2.510400e+00
    3.316883e+00    2.938584e+01    7.873385e+00    4.761039e+08    8.729915e-09    1.346754e-10    8.362110e-09   -2.505400e+00
    3.351298e+00    3.061292e+01    7.743220e+00    4.735149e+08    8.722100e-09    1.299958e-10    8.355495e-09   -2.500400e+00
    3.386155e+00    3.187625e+01    7.613890e+00    4.708695e+08    8.714310e-09    1.254838e-10    8.348735e-09   -2.495400e+00
    3.421476e+00    3.317598e+01    7.485405e+00    4.681694e+08    8.706545e-09    1.211334e-10    8.341835e-09   -2.490400e+00
    3.457279e+00    3.451239e+01    7.357780e+00    4.654170e+08    8.698795e-09    1.169391e-10    8.334800e-09   -2.485400e+00
    3.493583e+00    3.588562e+01    7.231030e+00    4.626141e+08    8.691055e-09    1.128952e-10    8.327615e-09   -2.480400e+00
    3.530411e+00    3.729592e+01    7.105165e+00    4.597628e+08    8.683320e-09    1.089964e-10    8.320290e-09   -2.475400e+00
    3.567784e+00    3.874355e+01    6.980195e+00    4.568646e+08    8.675585e-09    1.052374e-10    8.312815e-09   -2.470400e+00
    3.605724e+00    4.022879e+01    6.856130e+00    4.539216e+08    8.667840e-09    1.016134e-10    8.305190e-09   -2.465400e+00
    3.644251e+00    4.175189e+01    6.732985e+00    4.509355e+08    8.660075e-09    9.811925e-11    8.297410e-09   -2.460400e+00
    3.683391e+00    4.331324e+01    6.610765e+00    4.479075e+08    8.652295e-09    9.475045e-11    8.289475e-09   -2.455400e+00
    3.723162e+00    4.491318e+01    6.489485e+00    4.448393e+08    8.644485e-09    9.150230e-11    8.281380e-09   -2.450400e+00
    3.763590e+00    4.655211e+01    6.369155e+00    4.417326e+08    8.636640e-09    8.837045e-11    8.273125e-09   -2.445400e+00
    3.804701e+00    4.823047e+01    6.249780e+00    4.385885e+08    8.628755e-09    8.535070e-11    8.264705e-09   -2.440400e+00
    3.846516e+00    4.994877e+01    6.131375e+00    4.354085e+08    8.620820e-09    8.243880e-11    8.256115e-09   -2.435400e+00
    3.889064e+00    5.170751e+01    6.013940e+00    4.321935e+08    8.612835e-09    7.963090e-11    8.247355e-09   -2.430400e+00
    3.932369e+00    5.350727e+01    5.897490e+00    4.289447e+08    8.604790e-09    7.692310e-11    8.238410e-09   -2.425400e+00
    3.976459e+00    5.534869e+01    5.782030e+00    4.256636e+08    8.596675e-09    7.431170e-11    8.229290e-09   -2.420400e+00
    4.021360e+00    5.723240e+01    5.667570e+00    4.223507e+08    8.588490e-09    7.179320e-11    8.219980e-09   -2.415400e+00
    4.067099e+00    5.915916e+01    5.554120e+00    4.190072e+08    8.580225e-09    6.936415e-11    8.210485e-09   -2.410400e+00
    4.113707e+00    6.112973e+01    5.441685e+00    4.156342e+08    8.571870e-09    6.702115e-11    8.200790e-09   -2.405400e+00
    4.161213e+00    6.314491e+01    5.330270e+00    4.122321e+08    8.563425e-09    6.476110e-11    8.190890e-09   -2.400400e+00
    4.209653e+00    6.520561e+01    5.219880e+00    4.088023e+08    8.554875e-09    6.258090e-11    8.180790e-09   -2.395400e+00
    4.259051e+00    6.731275e+01    5.110530e+00    4.053451e+08    8.546220e-09    6.047760e-11    8.170475e-09   -2.390400e+00
    4.309441e+00    6.946735e+01    5.002225e+00    4.018613e+08    8.537450e-09    5.844835e-11    8.159940e-09   -2.385400e+00
    4.360863e+00    7.167044e+01    4.894965e+00    3.983515e+08    8.528560e-09    5.649035e-11    8.149185e-09   -2.380400e+00
    4.413344e+00    7.392313e+01    4.788763e+00    3.948166e+08    8.519535e-09    5.460105e-11    8.138195e-09   -2.375400e+00
    4.466926e+00    7.622662e+01    4.683623e+00    3.912570e+08    8.510375e-09    5.277780e-11    8.126970e-09   -2.370400e+00
    4.521642e+00    7.858213e+01    4.579551e+00    3.876730e+08    8.501070e-09    5.101825e-11    8.115500e-09   -2.365400e+00
    4.577533e+00    8.099099e+01    4.476554e+00    3.840654e+08    8.491615e-09    4.932001e-11    8.103780e-09   -2.360400e+00
    4.634639e+00    8.345455e+01    4.374637e+00    3.804347e+08    8.481995e-09    4.768080e-11    8.091795e-09   -2.355400e+00
    4.693001e+00    8.597427e+01    4.273807e+00    3.767810e+08    8.472210e-09    4.609844e-11    8.079550e-09   -2.350400e+00
    4.752659e+00    8.855161e+01    4.174070e+00    3.731048e+08    8.462245e-09    4.457085e-11    8.067025e-09   -2.345400e+00
    4.813660e+00    9.118821e+01    4.075430e+00    3.694064e+08    8.452100e-09    4.309600e-11    8.054220e-09   -2.340400e+00
    4.876050e+00    9.388570e+01    3.977894e+00    3.656863e+08    8.441755e-09    4.167197e-11    8.041120e-09   -2.335400e+00
    4.939875e+00    9.664579e+01    3.881468e+00    3.619446e+08    8.431210e-09    4.029686e-11    8.027720e-09   -2.330400e+00
    5.005185e+00    9.947033e+01    3.786156e+00    3.581815e+08    8.420455e-09    3.896892e-11    8.014010e-09   -2.325400e+00
    5.072029e+00    1.023612e+02    3.691965e+00    3.543974e+08    8.409475e-09    3.768639e-11    7.999980e-09   -2.320400e+00
    5.140460e+00    1.053202e+02    3.598901e+00    3.505921e+08    8.398270e-09    3.644762e-11    7.985620e-09   -2.315400e+00
    5.210534e+00    1.083496e+02    3.506967e+00    3.467662e+08    8.386820e-09    3.525103e-11    7.970920e-09   -2.310400e+00
    5.282307e+00    1.114513e+02    3.416171e+00    3.429193e+08    8.375125e-09    3.409507e-11    7.955865e-09   -2.305400e+00
    5.355835e+00    1.146277e+02    3.326516e+00    3.390518e+08    8.363170e-09    3.297826e-11    7.940455e-09   -2.300400e+00
    5.431179e+00    1.178809e+02    3.238009e+00    3.351635e+08    8.350945e-09    3.189921e-11    7.924670e-09   -2.295400e+00
    5.508404e+00    1.212135e+02    3.150656e+00    3.312545e+08    8.338445e-09    3.085652e-11    7.908500e-09   -2.290400e+00
    5.587571e+00    1.246277e+02    3.064461e+00    3.273249e+08    8.325650e-09    2.984891e-11    7.891935e-09   -2.285400e+00
    5.668750e+00    1.281262e+02    2.979429e+00    3.233744e+08    8.312560e-09    2.887510e-11    7.874960e-09   -2.280400e+00
    5.752005e+00    1.317115e+02    2.895566e+00    3.194030e+08    8.299155e-09    2.793389e-11    7.857565e-09   -2.275400e+00
    5.837412e+00    1.353864e+02    2.812877e+00    3.154108e+08    8.285425e-09    2.702410e-11    7.839740e-09   -2.270400e+00
    5.925043e+00    1.391538e+02    2.731368e+00    3.113972e+08    8.271365e-09    2.614462e-11    7.821465e-09   -2.265400e+00
    6.014973e+00    1.430164e+02    2.651045e+00    3.073625e+08    8.256955e-09    2.529437e-11    7.802730e-09   -2.260400e+00
    6.107279e+00    1.469771e+02    2.571910e+00    3.033061e+08    8.242190e-09    2.447231e-11    7.783520e-09   -2.255400e+00
    6.202041e+00    1.510391e+02    2.493972e+00    2.992279e+08    8.227055e-09    2.367744e-11    7.763820e-09   -2.250400e+00
    6.299344e+00    1.552055e+02    2.417235e+00    2.951275e+08    8.211540e-09    2.290880e-11    7.743615e-09   -2.245400e+00
    6.399270e+00    1.594794e+02    2.341705e+00    2.910051e+08    8.195625e-09    2.216548e-11    7.722895e-09   -2.240400e+00
    6.501909e+00    1.638641e+02    2.267385e+00    2.868599e+08    8.179305e-09    2.144658e-11    7.701640e-09   -2.235400e+00
    6.607343e+00    1.683628e+02    2.194283e+00    2.826916e+08    8.162565e-09    2.075124e-11    7.679835e-09   -2.230400e+00
    6.715671e+00    1.729791e+02    2.122403e+00    2.785002e+08    8.145390e-09    2.007865e-11    7.657465e-09   -2.225400e+00
    6.826981e+00    1.777162e+02    2.051751e+00    2.742850e+08    8.127770e-09    1.942803e-11    7.634515e-09   -2.220400e+00
    6.941365e+00    1.825776e+02    1.982332e+00    2.700456e+08    8.109690e-09    1.879859e-11    7.610965e-09   -2.215400e+00
    7.058922e+00    1.875666e+02    1.914152e+00    2.657821e+08    8.091130e-09    1.818963e-11    7.586800e-09   -2.210400e+00
    7.179747e+00    1.926869e+02    1.847216e+00    2.614936e+08    8.072085e-09    1.760042e-11    7.562005e-09   -2.205400e+00
    7.303941e+00    1.979417e+02    1.781528e+00    2.571801e+08    8.052535e-09    1.703029e-11    7.536555e-09   -2.200400e+00
    7.431593e+00    2.033347e+02    1.717096e+00    2.528409e+08    8.032470e-09    1.647858e-11    7.510445e-09   -2.195400e+00
    7.562809e+00    2.088687e+02    1.653923e+00    2.484760e+08    8.011870e-09    1.594468e-11    7.483645e-09   -2.190400e+00
    7.697680e+00    2.145473e+02    1.592014e+00    2.440848e+08    7.990725e-09    1.542797e-11    7.456140e-09   -2.185400e+00
    7.836305e+00    2.203737e+02    1.531376e+00    2.396671e+08    7.969020e-09    1.492787e-11    7.427915e-09   -2.180400e+00
    7.978781e+00    2.263505e+02    1.472013e+00    2.352227e+08    7.946740e-09    1.444382e-11    7.398950e-09   -2.175400e+00
    8.125192e+00    2.324809e+02    1.413929e+00    2.307512e+08    7.923870e-09    1.397529e-11    7.369225e-09   -2.170400e+00
    8.275633e+00    2.387670e+02    1.357130e+00    2.262529e+08    7.900390e-09    1.352175e-11    7.338725e-09   -2.165400e+00
    8.430186e+00    2.452113e+02    1.301619e+00    2.217274e+08    7.876290e-09    1.308269e-11    7.307425e-09   -2.160400e+00
    8.588923e+00    2.518155e+02    1.247402e+00    2.171749e+08    7.851555e-09    1.265764e-11    7.275310e-09   -2.155400e+00
    8.751923e+00    2.585812e+02    1.194482e+00    2.125955e+08    7.826170e-09    1.224613e-11    7.242360e-09   -2.150400e+00
    8.919245e+00    2.655093e+02    1.142863e+00    2.079894e+08    7.800120e-09    1.184772e-11    7.208560e-09   -2.145400e+00
    9.090942e+00    2.726004e+02    1.092549e+00    2.033572e+08    7.773385e-09    1.146197e-11    7.173885e-09   -2.140400e+00
    9.267058e+00    2.798541e+02    1.043541e+00    1.986993e+08    7.745960e-09    1.108846e-11    7.138320e-09   -2.135400e+00
    9.447624e+00    2.872699e+02    9.958435e-01    1.940166e+08    7.717825e-09    1.072680e-11    7.101845e-09   -2.130400e+00
    9.632648e+00    2.948457e+02    9.494580e-01    1.893101e+08    7.688965e-09    1.037659e-11    7.064445e-09   -2.125400e+00
    9.822133e+00    3.025793e+02    9.043860e-01    1.845809e+08    7.659370e-09    1.003747e-11    7.026100e-09   -2.120400e+00
    1.001605e+01    3.104668e+02    8.606285e-01    1.798305e+08    7.629020e-09    9.709075e-12    6.986790e-09   -2.115400e+00
    1.021436e+01    3.185038e+02    8.181850e-01    1.750607e+08    7.597910e-09    9.391060e-12    6.946500e-09   -2.110400e+00
    1.041700e+01    3.266846e+02    7.770555e-01    1.702736e+08    7.566020e-09    9.083085e-12    6.905210e-09   -2.105400e+00
    1.062385e+01    3.350013e+02    7.372385e-01    1.654711e+08    7.533345e-09    8.784835e-12    6.862910e-09   -2.100400e+00
    1.083481e+01    3.434459e+02    6.987315e-01    1.606564e+08    7.499865e-09    8.495995e-12    6.819580e-09   -2.095400e+00
    1.104971e+01    3.520080e+02    6.615310e-01    1.558325e+08    7.465575e-09    8.216265e-12    6.775210e-09   -2.090400e+00
    1.126836e+01    3.606758e+02    6.256325e-01    1.510025e+08    7.430465e-09    7.945350e-12    6.729780e-09   -2.085400e+00
    1.149052e+01    3.694356e+02    5.910305e-01    1.461704e+08    7.394520e-09    7.682980e-12    6.683280e-09   -2.080400e+00
    1.171592e+01    3.782722e+02    5.577175e-01    1.413405e+08    7.357735e-09    7.428880e-12    6.635695e-09   -2.075400e+00
    1.194426e+01    3.871682e+02    5.256855e-01    1.365174e+08    7.320105e-09    7.182790e-12    6.587020e-09   -2.070400e+00
    1.217515e+01    3.961041e+02    4.949249e-01    1.317061e+08    7.281615e-09    6.944460e-12    6.537240e-09   -2.065400e+00
    1.240822e+01    4.050593e+02    4.654238e-01    1.269123e+08    7.242265e-09    6.713645e-12    6.486345e-09   -2.060400e+00
    1.264298e+01    4.140097e+02    4.371695e-01    1.221416e+08    7.202045e-09    6.490110e-12    6.434330e-09   -2.055400e+00
    1.287894e+01    4.229309e+02    4.101474e-01    1.174003e+08    7.160960e-09    6.273625e-12    6.381190e-09   -2.050400e+00
    1.311556e+01    4.317959e+02    3.843411e-01    1.126951e+08    7.118995e-09    6.063980e-12    6.326915e-09   -2.045400e+00
    1.335223e+01    4.405758e+02    3.597325e-01    1.080329e+08    7.076160e-09    5.860955e-12    6.271510e-09   -2.040400e+00
    1.358830e+01    4.492401e+02    3.363019e-01    1.034208e+08    7.032450e-09    5.664345e-12    6.214965e-09   -2.035400e+00
    1.382308e+01    4.577574e+02    3.140273e-01    9.886612e+07    6.987870e-09    5.473960e-12    6.157290e-09   -2.030400e+00
    1.405584e+01    4.660951e+02    2.928855e-01    9.437659e+07    6.942415e-09    5.289600e-12    6.098480e-09   -2.025400e+00
