# sky130 pfet_01v8 gm/ID Processed Lookup Table
# Corner: ff
# Temperature: 25C
# W = 2.0 um
# L = 4.32 um (4320 nm)
# Columns: gm/id [1/V]  gm/gds [V/V]  id/W [A/m]  ft [Hz]  Cgg/W [F/m]  Cgd/W [F/m]  Cgs/W [F/m]  Vov [V]
#         gm/id          gm/gds            id/W              ft           Cgg/W           Cgd/W           Cgs/W             Vov
    1.990483e+00    4.374961e+00    5.067165e+00    5.703703e+07    2.814406e-08    2.889468e-09    2.558499e-08   -2.799581e+00
    2.011393e+00    4.524584e+00    5.016725e+00    5.718133e+07    2.808556e-08    2.809988e-09    2.559075e-08   -2.794582e+00
    2.032588e+00    4.682677e+00    4.966260e+00    5.732099e+07    2.802756e-08    2.731620e-09    2.559595e-08   -2.789582e+00
    2.054063e+00    4.849840e+00    4.915781e+00    5.745565e+07    2.797008e-08    2.654406e-09    2.560059e-08   -2.784581e+00
    2.075818e+00    5.026718e+00    4.865289e+00    5.758495e+07    2.791316e-08    2.578384e-09    2.560466e-08   -2.779581e+00
    2.097852e+00    5.214011e+00    4.814788e+00    5.770856e+07    2.785683e-08    2.503592e-09    2.560814e-08   -2.774582e+00
    2.120160e+00    5.412462e+00    4.764283e+00    5.782611e+07    2.780112e-08    2.430062e-09    2.561106e-08   -2.769582e+00
    2.142738e+00    5.622875e+00    4.713779e+00    5.793722e+07    2.774603e-08    2.357829e-09    2.561337e-08   -2.764581e+00
    2.165586e+00    5.846114e+00    4.663280e+00    5.804156e+07    2.769160e-08    2.286919e-09    2.561512e-08   -2.759581e+00
    2.188695e+00    6.083095e+00    4.612794e+00    5.813870e+07    2.763784e-08    2.217360e-09    2.561626e-08   -2.754582e+00
    2.212064e+00    6.334812e+00    4.562323e+00    5.822830e+07    2.758479e-08    2.149176e-09    2.561681e-08   -2.749582e+00
    2.235685e+00    6.602318e+00    4.511874e+00    5.830999e+07    2.753245e-08    2.082386e-09    2.561677e-08   -2.744582e+00
    2.259552e+00    6.886737e+00    4.461454e+00    5.838333e+07    2.748084e-08    2.017008e-09    2.561614e-08   -2.739581e+00
    2.283659e+00    7.189278e+00    4.411067e+00    5.844804e+07    2.742996e-08    1.953060e-09    2.561492e-08   -2.734581e+00
    2.308001e+00    7.511217e+00    4.360722e+00    5.850372e+07    2.737985e-08    1.890550e-09    2.561310e-08   -2.729582e+00
    2.332569e+00    7.853910e+00    4.310424e+00    5.855004e+07    2.733048e-08    1.829490e-09    2.561070e-08   -2.724582e+00
    2.357356e+00    8.218796e+00    4.260181e+00    5.858664e+07    2.728190e-08    1.769885e-09    2.560771e-08   -2.719581e+00
    2.382355e+00    8.607405e+00    4.209999e+00    5.861323e+07    2.723409e-08    1.711739e-09    2.560415e-08   -2.714581e+00
    2.407558e+00    9.021334e+00    4.159886e+00    5.862947e+07    2.718706e-08    1.655053e-09    2.560000e-08   -2.709582e+00
    2.432959e+00    9.462290e+00    4.109850e+00    5.863514e+07    2.714082e-08    1.599826e-09    2.559528e-08   -2.704582e+00
    2.458551e+00    9.932048e+00    4.059897e+00    5.862998e+07    2.709535e-08    1.546053e-09    2.558999e-08   -2.699581e+00
    2.484328e+00    1.043247e+01    4.010038e+00    5.861378e+07    2.705066e-08    1.493727e-09    2.558414e-08   -2.694581e+00
    2.510282e+00    1.096551e+01    3.960278e+00    5.858629e+07    2.700675e-08    1.442840e-09    2.557773e-08   -2.689582e+00
    2.536410e+00    1.153319e+01    3.910626e+00    5.854742e+07    2.696361e-08    1.393381e-09    2.557077e-08   -2.684582e+00
    2.562706e+00    1.213763e+01    3.861091e+00    5.849705e+07    2.692123e-08    1.345336e-09    2.556326e-08   -2.679581e+00
    2.589166e+00    1.278103e+01    3.811681e+00    5.843507e+07    2.687962e-08    1.298690e-09    2.555520e-08   -2.674581e+00
    2.615788e+00    1.346562e+01    3.762403e+00    5.836142e+07    2.683875e-08    1.253426e-09    2.554662e-08   -2.669582e+00
    2.642571e+00    1.419376e+01    3.713267e+00    5.827613e+07    2.679861e-08    1.209526e-09    2.553751e-08   -2.664582e+00
    2.669512e+00    1.496782e+01    3.664280e+00    5.817919e+07    2.675920e-08    1.166969e-09    2.552788e-08   -2.659581e+00
    2.696612e+00    1.579026e+01    3.615451e+00    5.807065e+07    2.672049e-08    1.125733e-09    2.551773e-08   -2.654581e+00
    2.723874e+00    1.666357e+01    3.566788e+00    5.795064e+07    2.668248e-08    1.085796e-09    2.550708e-08   -2.649582e+00
    2.751300e+00    1.759033e+01    3.518299e+00    5.781928e+07    2.664515e-08    1.047135e-09    2.549592e-08   -2.644582e+00
    2.778893e+00    1.857308e+01    3.469991e+00    5.767670e+07    2.660848e-08    1.009722e-09    2.548427e-08   -2.639581e+00
    2.806659e+00    1.961445e+01    3.421874e+00    5.752310e+07    2.657245e-08    9.735340e-10    2.547212e-08   -2.634581e+00
    2.834604e+00    2.071707e+01    3.373954e+00    5.735867e+07    2.653705e-08    9.385430e-10    2.545949e-08   -2.629582e+00
    2.862737e+00    2.188361e+01    3.326239e+00    5.718367e+07    2.650226e-08    9.047215e-10    2.544638e-08   -2.624582e+00
    2.891065e+00    2.311672e+01    3.278735e+00    5.699835e+07    2.646805e-08    8.720430e-10    2.543281e-08   -2.619582e+00
    2.919598e+00    2.441906e+01    3.231450e+00    5.680297e+07    2.643441e-08    8.404785e-10    2.541875e-08   -2.614581e+00
    2.948347e+00    2.579331e+01    3.184392e+00    5.659780e+07    2.640132e-08    8.099995e-10    2.540423e-08   -2.609581e+00
    2.977323e+00    2.724210e+01    3.137566e+00    5.638316e+07    2.636875e-08    7.805775e-10    2.538926e-08   -2.604582e+00
    3.006539e+00    2.876808e+01    3.090978e+00    5.615933e+07    2.633668e-08    7.521840e-10    2.537382e-08   -2.599582e+00
    3.036007e+00    3.037386e+01    3.044636e+00    5.592661e+07    2.630509e-08    7.247900e-10    2.535793e-08   -2.594581e+00
    3.065742e+00    3.206203e+01    2.998545e+00    5.568535e+07    2.627395e-08    6.983675e-10    2.534159e-08   -2.589581e+00
    3.095759e+00    3.383516e+01    2.952710e+00    5.543583e+07    2.624325e-08    6.728870e-10    2.532480e-08   -2.584582e+00
    3.126073e+00    3.569578e+01    2.907138e+00    5.517835e+07    2.621296e-08    6.483210e-10    2.530756e-08   -2.579582e+00
    3.156698e+00    3.764637e+01    2.861833e+00    5.491321e+07    2.618307e-08    6.246410e-10    2.528988e-08   -2.574581e+00
    3.187653e+00    3.968943e+01    2.816800e+00    5.464077e+07    2.615353e-08    6.018195e-10    2.527175e-08   -2.569581e+00
    3.218951e+00    4.182734e+01    2.772045e+00    5.436125e+07    2.612434e-08    5.798290e-10    2.525318e-08   -2.564582e+00
    3.250613e+00    4.406253e+01    2.727571e+00    5.407497e+07    2.609547e-08    5.586430e-10    2.523416e-08   -2.559582e+00
    3.282655e+00    4.639735e+01    2.683383e+00    5.378224e+07    2.606689e-08    5.382350e-10    2.521468e-08   -2.554581e+00
    3.315094e+00    4.883411e+01    2.639486e+00    5.348330e+07    2.603857e-08    5.185785e-10    2.519477e-08   -2.549581e+00
    3.347949e+00    5.137510e+01    2.595883e+00    5.317839e+07    2.601052e-08    4.996487e-10    2.517441e-08   -2.544582e+00
    3.381240e+00    5.402260e+01    2.552579e+00    5.286780e+07    2.598268e-08    4.814204e-10    2.515359e-08   -2.539582e+00
    3.414982e+00    5.677878e+01    2.509576e+00    5.255173e+07    2.595505e-08    4.638694e-10    2.513233e-08   -2.534581e+00
    3.449200e+00    5.964596e+01    2.466878e+00    5.223048e+07    2.592759e-08    4.469719e-10    2.511060e-08   -2.529581e+00
    3.483907e+00    6.262617e+01    2.424489e+00    5.190418e+07    2.590029e-08    4.307048e-10    2.508840e-08   -2.524582e+00
    3.519129e+00    6.572172e+01    2.382412e+00    5.157312e+07    2.587312e-08    4.150457e-10    2.506574e-08   -2.519582e+00
    3.554882e+00    6.893470e+01    2.340650e+00    5.123746e+07    2.584605e-08    3.999725e-10    2.504261e-08   -2.514581e+00
    3.591191e+00    7.226729e+01    2.299206e+00    5.089741e+07    2.581908e-08    3.854641e-10    2.501900e-08   -2.509581e+00
    3.628072e+00    7.572162e+01    2.258082e+00    5.055313e+07    2.579216e-08    3.714998e-10    2.499489e-08   -2.504582e+00
    3.665552e+00    7.929988e+01    2.217282e+00    5.020482e+07    2.576528e-08    3.580594e-10    2.497030e-08   -2.499582e+00
    3.703649e+00    8.300418e+01    2.176807e+00    4.985263e+07    2.573842e-08    3.451237e-10    2.494520e-08   -2.494582e+00
    3.742386e+00    8.683670e+01    2.136661e+00    4.949669e+07    2.571155e-08    3.326738e-10    2.491960e-08   -2.489581e+00
    3.781787e+00    9.079971e+01    2.096846e+00    4.913717e+07    2.568465e-08    3.206914e-10    2.489348e-08   -2.484581e+00
    3.821877e+00    9.489546e+01    2.057364e+00    4.877422e+07    2.565769e-08    3.091590e-10    2.486683e-08   -2.479582e+00
    3.862675e+00    9.912600e+01    2.018217e+00    4.840792e+07    2.563065e-08    2.980595e-10    2.483963e-08   -2.474582e+00
    3.904212e+00    1.034939e+02    1.979407e+00    4.803845e+07    2.560352e-08    2.873765e-10    2.481189e-08   -2.469581e+00
    3.946509e+00    1.080013e+02    1.940937e+00    4.766588e+07    2.557626e-08    2.770942e-10    2.478358e-08   -2.464581e+00
    3.989592e+00    1.126507e+02    1.902809e+00    4.729032e+07    2.554886e-08    2.671972e-10    2.475470e-08   -2.459582e+00
    4.033488e+00    1.174444e+02    1.865024e+00    4.691187e+07    2.552128e-08    2.576707e-10    2.472523e-08   -2.454582e+00
    4.078227e+00    1.223852e+02    1.827584e+00    4.653065e+07    2.549351e-08    2.485005e-10    2.469515e-08   -2.449581e+00
    4.123835e+00    1.274754e+02    1.790491e+00    4.614674e+07    2.546552e-08    2.396728e-10    2.466446e-08   -2.444581e+00
    4.170344e+00    1.327180e+02    1.753748e+00    4.576023e+07    2.543729e-08    2.311744e-10    2.463313e-08   -2.439582e+00
    4.217778e+00    1.381154e+02    1.717355e+00    4.537114e+07    2.540880e-08    2.229927e-10    2.460116e-08   -2.434582e+00
    4.266173e+00    1.436706e+02    1.681314e+00    4.497960e+07    2.538001e-08    2.151153e-10    2.456852e-08   -2.429581e+00
    4.315559e+00    1.493864e+02    1.645627e+00    4.458565e+07    2.535090e-08    2.075305e-10    2.453519e-08   -2.424581e+00
    4.365971e+00    1.552661e+02    1.610296e+00    4.418936e+07    2.532147e-08    2.002268e-10    2.450116e-08   -2.419582e+00
    4.417438e+00    1.613125e+02    1.575323e+00    4.379078e+07    2.529167e-08    1.931935e-10    2.446641e-08   -2.414582e+00
    4.470000e+00    1.675291e+02    1.540708e+00    4.338997e+07    2.526148e-08    1.864199e-10    2.443092e-08   -2.409581e+00
    4.523691e+00    1.739192e+02    1.506454e+00    4.298694e+07    2.523087e-08    1.798962e-10    2.439467e-08   -2.404581e+00
    4.578547e+00    1.804861e+02    1.472561e+00    4.258176e+07    2.519983e-08    1.736123e-10    2.435763e-08   -2.399582e+00
    4.634612e+00    1.872336e+02    1.439032e+00    4.217449e+07    2.516831e-08    1.675593e-10    2.431979e-08   -2.394582e+00
    4.691920e+00    1.941655e+02    1.405868e+00    4.176512e+07    2.513631e-08    1.617279e-10    2.428112e-08   -2.389581e+00
    4.750517e+00    2.012855e+02    1.373071e+00    4.135372e+07    2.510379e-08    1.561097e-10    2.424159e-08   -2.384581e+00
    4.810443e+00    2.085977e+02    1.340641e+00    4.094027e+07    2.507072e-08    1.506965e-10    2.420118e-08   -2.379582e+00
    4.871743e+00    2.161062e+02    1.308580e+00    4.052482e+07    2.503708e-08    1.454801e-10    2.415987e-08   -2.374582e+00
    4.934460e+00    2.238153e+02    1.276891e+00    4.010737e+07    2.500284e-08    1.404532e-10    2.411764e-08   -2.369582e+00
    4.998647e+00    2.317297e+02    1.245573e+00    3.968796e+07    2.496796e-08    1.356082e-10    2.407444e-08   -2.364581e+00
    5.064353e+00    2.398538e+02    1.214629e+00    3.926659e+07    2.493243e-08    1.309384e-10    2.403024e-08   -2.359581e+00
    5.131621e+00    2.481923e+02    1.184061e+00    3.884323e+07    2.489621e-08    1.264368e-10    2.398505e-08   -2.354582e+00
    5.200513e+00    2.567503e+02    1.153868e+00    3.841794e+07    2.485927e-08    1.220970e-10    2.393879e-08   -2.349582e+00
    5.271079e+00    2.655329e+02    1.124054e+00    3.799069e+07    2.482158e-08    1.179129e-10    2.389147e-08   -2.344581e+00
    5.343373e+00    2.745451e+02    1.094619e+00    3.756146e+07    2.478312e-08    1.138783e-10    2.384303e-08   -2.339581e+00
    5.417457e+00    2.837928e+02    1.065565e+00    3.713029e+07    2.474384e-08    1.099878e-10    2.379344e-08   -2.334582e+00
    5.493390e+00    2.932811e+02    1.036893e+00    3.669712e+07    2.470372e-08    1.062356e-10    2.374268e-08   -2.329582e+00
    5.571232e+00    3.030159e+02    1.008605e+00    3.626196e+07    2.466272e-08    1.026167e-10    2.369070e-08   -2.324581e+00
    5.651052e+00    3.130033e+02    9.807015e-01    3.582481e+07    2.462081e-08    9.912585e-11    2.363748e-08   -2.319581e+00
    5.732911e+00    3.232489e+02    9.531850e-01    3.538561e+07    2.457797e-08    9.575825e-11    2.358296e-08   -2.314582e+00
    5.816881e+00    3.337592e+02    9.260565e-01    3.494435e+07    2.453414e-08    9.250925e-11    2.352713e-08   -2.309582e+00
    5.903029e+00    3.445406e+02    8.993180e-01    3.450101e+07    2.448931e-08    8.937440e-11    2.346993e-08   -2.304581e+00
    5.991426e+00    3.555988e+02    8.729700e-01    3.405552e+07    2.444343e-08    8.634940e-11    2.341133e-08   -2.299581e+00
    6.082153e+00    3.669412e+02    8.470150e-01    3.360794e+07    2.439646e-08    8.343010e-11    2.335128e-08   -2.294582e+00
    6.175276e+00    3.785735e+02    8.214540e-01    3.315812e+07    2.434837e-08    8.061255e-11    2.328975e-08   -2.289582e+00
    6.270885e+00    3.905033e+02    7.962885e-01    3.270609e+07    2.429913e-08    7.789300e-11    2.322669e-08   -2.284581e+00
    6.369055e+00    4.027367e+02    7.715200e-01    3.225180e+07    2.424869e-08    7.526775e-11    2.316206e-08   -2.279581e+00
    6.469865e+00    4.152807e+02    7.471505e-01    3.179519e+07    2.419702e-08    7.273335e-11    2.309581e-08   -2.274582e+00
    6.573405e+00    4.281418e+02    7.231810e-01    3.133623e+07    2.414409e-08    7.028640e-11    2.302789e-08   -2.269582e+00
    6.679755e+00    4.413270e+02    6.996135e-01    3.087487e+07    2.408983e-08    6.792370e-11    2.295827e-08   -2.264581e+00
    6.789009e+00    4.548426e+02    6.764490e-01    3.041105e+07    2.403423e-08    6.564215e-11    2.288689e-08   -2.259581e+00
    6.901246e+00    4.686952e+02    6.536900e-01    2.994473e+07    2.397723e-08    6.343880e-11    2.281370e-08   -2.254582e+00
    7.016566e+00    4.828910e+02    6.313370e-01    2.947586e+07    2.391881e-08    6.131075e-11    2.273866e-08   -2.249582e+00
    7.135054e+00    4.974359e+02    6.093920e-01    2.900439e+07    2.385890e-08    5.925525e-11    2.266172e-08   -2.244582e+00
    7.256797e+00    5.123358e+02    5.878570e-01    2.853026e+07    2.379749e-08    5.726970e-11    2.258283e-08   -2.239581e+00
    7.381893e+00    5.275961e+02    5.667330e-01    2.805344e+07    2.373451e-08    5.535160e-11    2.250193e-08   -2.234581e+00
    7.510425e+00    5.432211e+02    5.460220e-01    2.757387e+07    2.366994e-08    5.349845e-11    2.241897e-08   -2.229582e+00
    7.642491e+00    5.592159e+02    5.257250e-01    2.709152e+07    2.360371e-08    5.170795e-11    2.233391e-08   -2.224582e+00
    7.778171e+00    5.755833e+02    5.058440e-01    2.660634e+07    2.353581e-08    4.997783e-11    2.224669e-08   -2.219581e+00
    7.917559e+00    5.923265e+02    4.863801e-01    2.611829e+07    2.346618e-08    4.830597e-11    2.215725e-08   -2.214581e+00
    8.060731e+00    6.094473e+02    4.673349e-01    2.562736e+07    2.339478e-08    4.669027e-11    2.206555e-08   -2.209582e+00
    8.207769e+00    6.269472e+02    4.487099e-01    2.513352e+07    2.332155e-08    4.512877e-11    2.197153e-08   -2.204582e+00
    8.358749e+00    6.448244e+02    4.305063e-01    2.463677e+07    2.324648e-08    4.361952e-11    2.187514e-08   -2.199581e+00
    8.513739e+00    6.630786e+02    4.127253e-01    2.413709e+07    2.316951e-08    4.216070e-11    2.177632e-08   -2.194581e+00
    8.672802e+00    6.817061e+02    3.953683e-01    2.363450e+07    2.309059e-08    4.075053e-11    2.167502e-08   -2.189582e+00
    8.835991e+00    7.007017e+02    3.784362e-01    2.312903e+07    2.300969e-08    3.938731e-11    2.157120e-08   -2.184582e+00
    9.003354e+00    7.200589e+02    3.619300e-01    2.262072e+07    2.292676e-08    3.806940e-11    2.146479e-08   -2.179581e+00
    9.174921e+00    7.397683e+02    3.458506e-01    2.210963e+07    2.284176e-08    3.679523e-11    2.135574e-08   -2.174581e+00
    9.350715e+00    7.598190e+02    3.301987e-01    2.159584e+07    2.275465e-08    3.556328e-11    2.124399e-08   -2.169582e+00
    9.530740e+00    7.801966e+02    3.149748e-01    2.107945e+07    2.266539e-08    3.437211e-11    2.112952e-08   -2.164582e+00
    9.714990e+00    8.008847e+02    3.001794e-01    2.056059e+07    2.257395e-08    3.322029e-11    2.101226e-08   -2.159581e+00
    9.903433e+00    8.218634e+02    2.858124e-01    2.003942e+07    2.248029e-08    3.210649e-11    2.089216e-08   -2.154581e+00
    1.009602e+01    8.431094e+02    2.718740e-01    1.951611e+07    2.238437e-08    3.102941e-11    2.076918e-08   -2.149582e+00
    1.029268e+01    8.645961e+02    2.583639e-01    1.899089e+07    2.228614e-08    2.998779e-11    2.064327e-08   -2.144582e+00
    1.049331e+01    8.862931e+02    2.452813e-01    1.846400e+07    2.218560e-08    2.898044e-11    2.051438e-08   -2.139581e+00
    1.069779e+01    9.081662e+02    2.326254e-01    1.793574e+07    2.208269e-08    2.800619e-11    2.038249e-08   -2.134581e+00
    1.090596e+01    9.301764e+02    2.203950e-01    1.740642e+07    2.197739e-08    2.706393e-11    2.024754e-08   -2.129582e+00
    1.111763e+01    9.522812e+02    2.085886e-01    1.687643e+07    2.186968e-08    2.615258e-11    2.010949e-08   -2.124582e+00
    1.133258e+01    9.744330e+02    1.972042e-01    1.634616e+07    2.175951e-08    2.527111e-11    1.996833e-08   -2.119582e+00
    1.155054e+01    9.965803e+02    1.862395e-01    1.581607e+07    2.164689e-08    2.441852e-11    1.982400e-08   -2.114581e+00
    1.177121e+01    1.018666e+03    1.756916e-01    1.528665e+07    2.153179e-08    2.359384e-11    1.967649e-08   -2.109581e+00
    1.199426e+01    1.040631e+03    1.655573e-01    1.475845e+07    2.141417e-08    2.279617e-11    1.952577e-08   -2.104582e+00
    1.221930e+01    1.062408e+03    1.558328e-01    1.423205e+07    2.129404e-08    2.202458e-11    1.937182e-08   -2.099582e+00
    1.244589e+01    1.083929e+03    1.465141e-01    1.370806e+07    2.117139e-08    2.127825e-11    1.921462e-08   -2.094581e+00
    1.267356e+01    1.105120e+03    1.375962e-01    1.318717e+07    2.104619e-08    2.055631e-11    1.905415e-08   -2.089581e+00
    1.290180e+01    1.125906e+03    1.290738e-01    1.267007e+07    2.091846e-08    1.985799e-11    1.889041e-08   -2.084582e+00
    1.313004e+01    1.146207e+03    1.209413e-01    1.215750e+07    2.078818e-08    1.918250e-11    1.872339e-08   -2.079582e+00
    1.335769e+01    1.165942e+03    1.131920e-01    1.165022e+07    2.065536e-08    1.852911e-11    1.855310e-08   -2.074581e+00
    1.358409e+01    1.185027e+03    1.058190e-01    1.114902e+07    2.052002e-08    1.789709e-11    1.837954e-08   -2.069581e+00
    1.380858e+01    1.203382e+03    9.881485e-02    1.065470e+07    2.038217e-08    1.728575e-11    1.820271e-08   -2.064582e+00
    1.403045e+01    1.220923e+03    9.217130e-02    1.016806e+07    2.024182e-08    1.669442e-11    1.802264e-08   -2.059582e+00
    1.424897e+01    1.237569e+03    8.587980e-02    9.689928e+06    2.009898e-08    1.612246e-11    1.783934e-08   -2.054581e+00
    1.446338e+01    1.253242e+03    7.993120e-02    9.221099e+06    1.995370e-08    1.556923e-11    1.765285e-08   -2.049581e+00
    1.467293e+01    1.267869e+03    7.431575e-02    8.762357e+06    1.980600e-08    1.503415e-11    1.746321e-08   -2.044582e+00
