# sky130 pfet_01v8 gm/ID Processed Lookup Table
# Corner: ff
# Temperature: 25C
# W = 2.0 um
# L = 1.26 um (1260 nm)
# Columns: gm/id [1/V]  gm/gds [V/V]  id/W [A/m]  ft [Hz]  Cgg/W [F/m]  Cgd/W [F/m]  Cgs/W [F/m]  Vov [V]
#         gm/id          gm/gds            id/W              ft           Cgg/W           Cgd/W           Cgs/W             Vov
    1.823853e+00    3.146202e+00    1.804709e+01    6.399942e+08    8.185420e-09    7.081900e-10    7.478030e-09   -2.775871e+00
    1.843192e+00    3.232195e+00    1.788239e+01    6.419827e+08    8.171335e-09    6.884390e-10    7.479765e-09   -2.770871e+00
    1.862820e+00    3.322209e+00    1.771748e+01    6.439333e+08    8.157410e-09    6.690245e-10    7.481340e-09   -2.765871e+00
    1.882742e+00    3.416491e+00    1.755235e+01    6.458434e+08    8.143650e-09    6.499525e-10    7.482755e-09   -2.760871e+00
    1.902959e+00    3.515303e+00    1.738702e+01    6.477109e+08    8.130055e-09    6.312290e-10    7.484010e-09   -2.755871e+00
    1.923473e+00    3.618931e+00    1.722149e+01    6.495330e+08    8.116630e-09    6.128595e-10    7.485105e-09   -2.750871e+00
    1.944287e+00    3.727677e+00    1.705578e+01    6.513070e+08    8.103380e-09    5.948485e-10    7.486035e-09   -2.745871e+00
    1.965402e+00    3.841866e+00    1.688988e+01    6.530298e+08    8.090310e-09    5.771995e-10    7.486805e-09   -2.740871e+00
    1.986819e+00    3.961840e+00    1.672383e+01    6.546987e+08    8.077420e-09    5.599170e-10    7.487415e-09   -2.735871e+00
    2.008540e+00    4.087972e+00    1.655761e+01    6.563105e+08    8.064715e-09    5.430030e-10    7.487865e-09   -2.730871e+00
    2.030564e+00    4.220649e+00    1.639126e+01    6.578623e+08    8.052195e-09    5.264600e-10    7.488150e-09   -2.725871e+00
    2.052892e+00    4.360291e+00    1.622478e+01    6.593503e+08    8.039865e-09    5.102890e-10    7.488280e-09   -2.720871e+00
    2.075521e+00    4.507345e+00    1.605819e+01    6.607716e+08    8.027725e-09    4.944914e-10    7.488245e-09   -2.715871e+00
    2.098452e+00    4.662277e+00    1.589150e+01    6.621231e+08    8.015770e-09    4.790669e-10    7.488055e-09   -2.710871e+00
    2.121683e+00    4.825589e+00    1.572472e+01    6.634006e+08    8.004010e-09    4.640152e-10    7.487710e-09   -2.705871e+00
    2.145211e+00    4.997812e+00    1.555787e+01    6.646009e+08    7.992440e-09    4.493356e-10    7.487210e-09   -2.700871e+00
    2.169033e+00    5.179503e+00    1.539098e+01    6.657203e+08    7.981060e-09    4.350263e-10    7.486550e-09   -2.695871e+00
    2.193145e+00    5.371258e+00    1.522405e+01    6.667552e+08    7.969870e-09    4.210856e-10    7.485740e-09   -2.690871e+00
    2.217546e+00    5.573689e+00    1.505710e+01    6.677022e+08    7.958865e-09    4.075107e-10    7.484780e-09   -2.685871e+00
    2.242228e+00    5.787452e+00    1.489015e+01    6.685570e+08    7.948050e-09    3.942987e-10    7.483670e-09   -2.680871e+00
    2.267188e+00    6.013227e+00    1.472323e+01    6.693158e+08    7.937425e-09    3.814462e-10    7.482410e-09   -2.675871e+00
    2.292419e+00    6.251730e+00    1.455636e+01    6.699756e+08    7.926980e-09    3.689491e-10    7.481005e-09   -2.670871e+00
    2.317916e+00    6.503698e+00    1.438955e+01    6.705326e+08    7.916715e-09    3.568033e-10    7.479455e-09   -2.665871e+00
    2.343673e+00    6.769896e+00    1.422283e+01    6.709831e+08    7.906630e-09    3.450043e-10    7.477765e-09   -2.660871e+00
    2.369683e+00    7.051117e+00    1.405622e+01    6.713235e+08    7.896725e-09    3.335467e-10    7.475930e-09   -2.655871e+00
    2.395940e+00    7.348173e+00    1.388975e+01    6.715510e+08    7.886990e-09    3.224256e-10    7.473955e-09   -2.650871e+00
    2.422436e+00    7.661899e+00    1.372344e+01    6.716624e+08    7.877425e-09    3.116352e-10    7.471850e-09   -2.645871e+00
    2.449166e+00    7.993143e+00    1.355732e+01    6.716546e+08    7.868030e-09    3.011696e-10    7.469605e-09   -2.640871e+00
    2.476122e+00    8.342762e+00    1.339141e+01    6.715253e+08    7.858795e-09    2.910231e-10    7.467225e-09   -2.635871e+00
    2.503300e+00    8.711627e+00    1.322574e+01    6.712722e+08    7.849720e-09    2.811892e-10    7.464715e-09   -2.630871e+00
    2.530692e+00    9.100602e+00    1.306034e+01    6.708932e+08    7.840800e-09    2.716616e-10    7.462080e-09   -2.625871e+00
    2.558295e+00    9.510552e+00    1.289522e+01    6.703870e+08    7.832025e-09    2.624337e-10    7.459310e-09   -2.620871e+00
    2.586102e+00    9.942336e+00    1.273045e+01    6.697513e+08    7.823405e-09    2.534988e-10    7.456420e-09   -2.615871e+00
    2.614111e+00    1.039679e+01    1.256602e+01    6.689863e+08    7.814920e-09    2.448504e-10    7.453400e-09   -2.610871e+00
    2.642320e+00    1.087474e+01    1.240197e+01    6.680907e+08    7.806575e-09    2.364814e-10    7.450260e-09   -2.605871e+00
    2.670725e+00    1.137697e+01    1.223832e+01    6.670647e+08    7.798360e-09    2.283850e-10    7.446995e-09   -2.600871e+00
    2.699327e+00    1.190424e+01    1.207512e+01    6.659080e+08    7.790275e-09    2.205543e-10    7.443610e-09   -2.595871e+00
    2.728125e+00    1.245729e+01    1.191239e+01    6.646215e+08    7.782315e-09    2.129825e-10    7.440110e-09   -2.590871e+00
    2.757122e+00    1.303679e+01    1.175014e+01    6.632062e+08    7.774470e-09    2.056626e-10    7.436490e-09   -2.585871e+00
    2.786320e+00    1.364337e+01    1.158843e+01    6.616635e+08    7.766735e-09    1.985877e-10    7.432750e-09   -2.580871e+00
    2.815722e+00    1.427763e+01    1.142727e+01    6.599945e+08    7.759110e-09    1.917511e-10    7.428900e-09   -2.575871e+00
    2.845336e+00    1.494010e+01    1.126668e+01    6.582014e+08    7.751590e-09    1.851458e-10    7.424930e-09   -2.570871e+00
    2.875165e+00    1.563124e+01    1.110670e+01    6.562864e+08    7.744165e-09    1.787653e-10    7.420850e-09   -2.565871e+00
    2.905221e+00    1.635150e+01    1.094735e+01    6.542519e+08    7.736835e-09    1.726029e-10    7.416655e-09   -2.560871e+00
    2.935508e+00    1.710125e+01    1.078866e+01    6.521006e+08    7.729590e-09    1.666520e-10    7.412350e-09   -2.555871e+00
    2.966039e+00    1.788080e+01    1.063066e+01    6.498356e+08    7.722425e-09    1.609061e-10    7.407930e-09   -2.550871e+00
    2.996825e+00    1.869041e+01    1.047336e+01    6.474594e+08    7.715340e-09    1.553589e-10    7.403395e-09   -2.545871e+00
    3.027875e+00    1.953031e+01    1.031680e+01    6.449753e+08    7.708325e-09    1.500043e-10    7.398750e-09   -2.540871e+00
    3.059205e+00    2.040066e+01    1.016099e+01    6.423862e+08    7.701380e-09    1.448359e-10    7.393995e-09   -2.535871e+00
    3.090828e+00    2.130159e+01    1.000596e+01    6.396964e+08    7.694490e-09    1.398479e-10    7.389125e-09   -2.530871e+00
    3.122758e+00    2.223320e+01    9.851730e+00    6.369081e+08    7.687660e-09    1.350344e-10    7.384145e-09   -2.525871e+00
    3.155010e+00    2.319554e+01    9.698320e+00    6.340250e+08    7.680880e-09    1.303895e-10    7.379055e-09   -2.520871e+00
    3.187599e+00    2.418865e+01    9.545755e+00    6.310500e+08    7.674150e-09    1.259079e-10    7.373850e-09   -2.515871e+00
    3.220545e+00    2.521254e+01    9.394045e+00    6.279873e+08    7.667455e-09    1.215840e-10    7.368530e-09   -2.510871e+00
    3.253860e+00    2.626721e+01    9.243220e+00    6.248395e+08    7.660795e-09    1.174123e-10    7.363095e-09   -2.505871e+00
    3.287566e+00    2.735265e+01    9.093290e+00    6.216093e+08    7.654170e-09    1.133877e-10    7.357545e-09   -2.500871e+00
    3.321678e+00    2.846884e+01    8.944280e+00    6.183008e+08    7.647565e-09    1.095054e-10    7.351880e-09   -2.495871e+00
    3.356219e+00    2.961578e+01    8.796195e+00    6.149161e+08    7.640985e-09    1.057602e-10    7.346100e-09   -2.490871e+00
    3.391202e+00    3.079343e+01    8.649065e+00    6.114588e+08    7.634415e-09    1.021473e-10    7.340195e-09   -2.485871e+00
    3.426652e+00    3.200181e+01    8.502895e+00    6.079313e+08    7.627855e-09    9.866230e-11    7.334175e-09   -2.480871e+00
    3.462586e+00    3.324095e+01    8.357705e+00    6.043359e+08    7.621305e-09    9.530055e-11    7.328030e-09   -2.475871e+00
    3.499026e+00    3.451088e+01    8.213505e+00    6.006758e+08    7.614750e-09    9.205775e-11    7.321760e-09   -2.470871e+00
    3.535991e+00    3.581166e+01    8.070315e+00    5.969538e+08    7.608185e-09    8.892970e-11    7.315365e-09   -2.465871e+00
    3.573503e+00    3.714339e+01    7.928145e+00    5.931711e+08    7.601615e-09    8.591225e-11    7.308840e-09   -2.460871e+00
    3.611583e+00    3.850618e+01    7.787010e+00    5.893310e+08    7.595025e-09    8.300145e-11    7.302190e-09   -2.455871e+00
    3.650256e+00    3.990020e+01    7.646915e+00    5.854350e+08    7.588415e-09    8.019355e-11    7.295405e-09   -2.450871e+00
    3.689543e+00    4.132565e+01    7.507880e+00    5.814854e+08    7.581780e-09    7.748475e-11    7.288480e-09   -2.445871e+00
    3.729468e+00    4.278278e+01    7.369910e+00    5.774843e+08    7.575110e-09    7.487155e-11    7.281420e-09   -2.440871e+00
    3.770050e+00    4.427181e+01    7.233025e+00    5.734332e+08    7.568405e-09    7.235040e-11    7.274220e-09   -2.435871e+00
    3.811320e+00    4.579309e+01    7.097225e+00    5.693342e+08    7.561655e-09    6.991805e-11    7.266875e-09   -2.430871e+00
    3.853297e+00    4.734698e+01    6.962530e+00    5.651884e+08    7.554860e-09    6.757125e-11    7.259385e-09   -2.425871e+00
    3.896010e+00    4.893391e+01    6.828945e+00    5.609983e+08    7.548005e-09    6.530685e-11    7.251740e-09   -2.420871e+00
    3.939487e+00    5.055430e+01    6.696475e+00    5.567646e+08    7.541095e-09    6.312190e-11    7.243940e-09   -2.415871e+00
    3.983748e+00    5.220864e+01    6.565140e+00    5.524888e+08    7.534120e-09    6.101345e-11    7.235985e-09   -2.410871e+00
    4.028828e+00    5.389754e+01    6.434940e+00    5.481723e+08    7.527075e-09    5.897875e-11    7.227865e-09   -2.405871e+00
    4.074750e+00    5.562157e+01    6.305890e+00    5.438163e+08    7.519955e-09    5.701510e-11    7.219575e-09   -2.400871e+00
    4.121546e+00    5.738137e+01    6.177995e+00    5.394223e+08    7.512750e-09    5.511990e-11    7.211120e-09   -2.395871e+00
    4.169244e+00    5.917766e+01    6.051265e+00    5.349911e+08    7.505455e-09    5.329065e-11    7.202485e-09   -2.390871e+00
    4.217879e+00    6.101120e+01    5.925705e+00    5.305237e+08    7.498070e-09    5.152490e-11    7.193670e-09   -2.385871e+00
    4.267476e+00    6.288279e+01    5.801330e+00    5.260209e+08    7.490585e-09    4.982036e-11    7.184665e-09   -2.380871e+00
    4.318073e+00    6.479328e+01    5.678140e+00    5.214838e+08    7.482995e-09    4.817480e-11    7.175475e-09   -2.375871e+00
    4.369705e+00    6.674362e+01    5.556145e+00    5.169134e+08    7.475290e-09    4.658605e-11    7.166085e-09   -2.370871e+00
    4.422404e+00    6.873477e+01    5.435355e+00    5.123102e+08    7.467470e-09    4.505205e-11    7.156490e-09   -2.365871e+00
    4.476207e+00    7.076775e+01    5.315775e+00    5.076749e+08    7.459525e-09    4.357078e-11    7.146690e-09   -2.360871e+00
    4.531154e+00    7.284365e+01    5.197410e+00    5.030086e+08    7.451445e-09    4.214034e-11    7.136675e-09   -2.355871e+00
    4.587276e+00    7.496362e+01    5.080275e+00    4.983114e+08    7.443230e-09    4.075887e-11    7.126435e-09   -2.350871e+00
    4.644624e+00    7.712885e+01    4.964367e+00    4.935844e+08    7.434865e-09    3.942459e-11    7.115975e-09   -2.345871e+00
    4.703232e+00    7.934061e+01    4.849699e+00    4.888277e+08    7.426350e-09    3.813578e-11    7.105275e-09   -2.340871e+00
    4.763144e+00    8.160024e+01    4.736276e+00    4.840417e+08    7.417680e-09    3.689080e-11    7.094330e-09   -2.335871e+00
    4.824405e+00    8.390912e+01    4.624106e+00    4.792272e+08    7.408840e-09    3.568805e-11    7.083140e-09   -2.330871e+00
    4.887063e+00    8.626865e+01    4.513192e+00    4.743845e+08    7.399825e-09    3.452602e-11    7.071695e-09   -2.325871e+00
    4.951162e+00    8.868041e+01    4.403545e+00    4.695137e+08    7.390630e-09    3.340321e-11    7.059980e-09   -2.320871e+00
    5.016754e+00    9.114595e+01    4.295168e+00    4.646149e+08    7.381250e-09    3.231824e-11    7.047995e-09   -2.315871e+00
    5.083888e+00    9.366690e+01    4.188069e+00    4.596893e+08    7.371665e-09    3.126974e-11    7.035730e-09   -2.310871e+00
    5.152620e+00    9.624499e+01    4.082254e+00    4.547361e+08    7.361880e-09    3.025638e-11    7.023170e-09   -2.305871e+00
    5.223002e+00    9.888199e+01    3.977728e+00    4.497560e+08    7.351880e-09    2.927692e-11    7.010315e-09   -2.300871e+00
    5.295090e+00    1.015797e+02    3.874499e+00    4.447488e+08    7.341660e-09    2.833015e-11    6.997150e-09   -2.295871e+00
    5.368946e+00    1.043402e+02    3.772572e+00    4.397151e+08    7.331205e-09    2.741490e-11    6.983665e-09   -2.290871e+00
    5.444628e+00    1.071653e+02    3.671954e+00    4.346542e+08    7.320515e-09    2.653004e-11    6.969855e-09   -2.285871e+00
    5.522200e+00    1.100571e+02    3.572650e+00    4.295666e+08    7.309575e-09    2.567450e-11    6.955705e-09   -2.280871e+00
    5.601728e+00    1.130178e+02    3.474667e+00    4.244525e+08    7.298375e-09    2.484723e-11    6.941205e-09   -2.275871e+00
    5.683276e+00    1.160496e+02    3.378011e+00    4.193112e+08    7.286910e-09    2.404725e-11    6.926345e-09   -2.270871e+00
    5.766916e+00    1.191547e+02    3.282687e+00    4.141428e+08    7.275170e-09    2.327358e-11    6.911115e-09   -2.265871e+00
    5.852719e+00    1.223355e+02    3.188702e+00    4.089474e+08    7.263140e-09    2.252531e-11    6.895500e-09   -2.260871e+00
    5.940758e+00    1.255945e+02    3.096064e+00    4.037244e+08    7.250815e-09    2.180155e-11    6.879495e-09   -2.255871e+00
    6.031114e+00    1.289342e+02    3.004775e+00    3.984742e+08    7.238180e-09    2.110143e-11    6.863080e-09   -2.250871e+00
    6.123859e+00    1.323569e+02    2.914844e+00    3.931956e+08    7.225235e-09    2.042414e-11    6.846245e-09   -2.245871e+00
    6.219078e+00    1.358655e+02    2.826276e+00    3.878892e+08    7.211955e-09    1.976887e-11    6.828985e-09   -2.240871e+00
    6.316853e+00    1.394627e+02    2.739078e+00    3.825541e+08    7.198340e-09    1.913487e-11    6.811275e-09   -2.235871e+00
    6.417270e+00    1.431510e+02    2.653255e+00    3.771904e+08    7.184370e-09    1.852140e-11    6.793110e-09   -2.230871e+00
    6.520414e+00    1.469335e+02    2.568813e+00    3.717970e+08    7.170045e-09    1.792776e-11    6.774475e-09   -2.225871e+00
    6.626379e+00    1.508129e+02    2.485760e+00    3.663743e+08    7.155345e-09    1.735326e-11    6.755355e-09   -2.220871e+00
    6.735254e+00    1.547922e+02    2.404100e+00    3.609213e+08    7.140260e-09    1.679725e-11    6.735730e-09   -2.215871e+00
    6.847133e+00    1.588741e+02    2.323839e+00    3.554379e+08    7.124775e-09    1.625909e-11    6.715600e-09   -2.210871e+00
    6.962111e+00    1.630619e+02    2.244985e+00    3.499234e+08    7.108885e-09    1.573819e-11    6.694935e-09   -2.205871e+00
    7.080284e+00    1.673584e+02    2.167543e+00    3.443774e+08    7.092575e-09    1.523395e-11    6.673730e-09   -2.200871e+00
    7.201749e+00    1.717665e+02    2.091519e+00    3.387993e+08    7.075830e-09    1.474580e-11    6.651965e-09   -2.195871e+00
    7.326608e+00    1.762893e+02    2.016919e+00    3.331889e+08    7.058640e-09    1.427322e-11    6.629625e-09   -2.190871e+00
    7.454957e+00    1.809296e+02    1.943749e+00    3.275453e+08    7.040995e-09    1.381567e-11    6.606695e-09   -2.185871e+00
    7.586895e+00    1.856905e+02    1.872016e+00    3.218687e+08    7.022875e-09    1.337266e-11    6.583160e-09   -2.180871e+00
    7.722522e+00    1.905744e+02    1.801723e+00    3.161582e+08    7.004270e-09    1.294369e-11    6.559005e-09   -2.175871e+00
    7.861930e+00    1.955841e+02    1.732878e+00    3.104134e+08    6.985170e-09    1.252830e-11    6.534210e-09   -2.170871e+00
    8.005221e+00    2.007224e+02    1.665488e+00    3.046345e+08    6.965555e-09    1.212603e-11    6.508760e-09   -2.165871e+00
    8.152482e+00    2.059914e+02    1.599554e+00    2.988206e+08    6.945420e-09    1.173647e-11    6.482635e-09   -2.160871e+00
    8.303811e+00    2.113935e+02    1.535086e+00    2.929722e+08    6.924745e-09    1.135918e-11    6.455825e-09   -2.155871e+00
    8.459281e+00    2.169303e+02    1.472085e+00    2.870887e+08    6.903520e-09    1.099376e-11    6.428310e-09   -2.150871e+00
    8.618977e+00    2.226035e+02    1.410559e+00    2.811702e+08    6.881735e-09    1.063984e-11    6.400075e-09   -2.145871e+00
    8.782976e+00    2.284145e+02    1.350512e+00    2.752174e+08    6.859370e-09    1.029702e-11    6.371100e-09   -2.140871e+00
    8.951337e+00    2.343643e+02    1.291945e+00    2.692302e+08    6.836415e-09    9.964955e-12    6.341370e-09   -2.135871e+00
    9.124111e+00    2.404528e+02    1.234866e+00    2.632092e+08    6.812860e-09    9.643290e-12    6.310870e-09   -2.130871e+00
    9.301351e+00    2.466802e+02    1.179276e+00    2.571556e+08    6.788685e-09    9.331690e-12    6.279575e-09   -2.125871e+00
    9.483073e+00    2.530455e+02    1.125179e+00    2.510700e+08    6.763880e-09    9.029835e-12    6.247480e-09   -2.120871e+00
    9.669305e+00    2.595474e+02    1.072575e+00    2.449537e+08    6.738435e-09    8.737405e-12    6.214560e-09   -2.115871e+00
    9.860035e+00    2.661835e+02    1.021468e+00    2.388085e+08    6.712335e-09    8.454110e-12    6.180805e-09   -2.110871e+00
    1.005524e+01    2.729509e+02    9.718580e-01    2.326361e+08    6.685570e-09    8.179650e-12    6.146195e-09   -2.105871e+00
    1.025488e+01    2.798454e+02    9.237455e-01    2.264390e+08    6.658125e-09    7.913750e-12    6.110720e-09   -2.100871e+00
    1.045888e+01    2.868619e+02    8.771290e-01    2.202196e+08    6.629990e-09    7.656130e-12    6.074355e-09   -2.095871e+00
    1.066715e+01    2.939940e+02    8.320065e-01    2.139811e+08    6.601155e-09    7.406540e-12    6.037100e-09   -2.090871e+00
    1.087955e+01    3.012344e+02    7.883760e-01    2.077270e+08    6.571610e-09    7.164725e-12    5.998925e-09   -2.085871e+00
    1.109593e+01    3.085743e+02    7.462335e-01    2.014613e+08    6.541345e-09    6.930435e-12    5.959830e-09   -2.080871e+00
    1.131609e+01    3.160031e+02    7.055725e-01    1.951883e+08    6.510350e-09    6.703440e-12    5.919795e-09   -2.075871e+00
    1.153979e+01    3.235094e+02    6.663875e-01    1.889133e+08    6.478615e-09    6.483515e-12    5.878810e-09   -2.070871e+00
    1.176675e+01    3.310795e+02    6.286700e-01    1.826417e+08    6.446135e-09    6.270435e-12    5.836865e-09   -2.065871e+00
    1.199665e+01    3.386985e+02    5.924100e-01    1.763795e+08    6.412900e-09    6.063990e-12    5.793950e-09   -2.060871e+00
    1.222913e+01    3.463499e+02    5.575965e-01    1.701334e+08    6.378905e-09    5.863980e-12    5.750060e-09   -2.055871e+00
    1.246377e+01    3.540153e+02    5.242165e-01    1.639108e+08    6.344140e-09    5.670200e-12    5.705175e-09   -2.050871e+00
    1.270012e+01    3.616742e+02    4.922542e-01    1.577188e+08    6.308610e-09    5.482460e-12    5.659300e-09   -2.045871e+00
    1.293764e+01    3.693052e+02    4.616935e-01    1.515660e+08    6.272305e-09    5.300580e-12    5.612425e-09   -2.040871e+00
    1.317579e+01    3.768848e+02    4.325153e-01    1.454608e+08    6.235225e-09    5.124375e-12    5.564545e-09   -2.035871e+00
    1.341395e+01    3.843881e+02    4.046988e-01    1.394125e+08    6.197365e-09    4.953677e-12    5.515655e-09   -2.030871e+00
    1.365145e+01    3.917889e+02    3.782213e-01    1.334301e+08    6.158730e-09    4.788317e-12    5.465765e-09   -2.025871e+00
    1.388762e+01    3.990599e+02    3.530575e-01    1.275235e+08    6.119320e-09    4.628132e-12    5.414860e-09   -2.020871e+00
