# sky130 pfet_01v8 gm/ID Processed Lookup Table
# Corner: ff
# Temperature: 25C
# W = 2.0 um
# L = 0.36 um (360 nm)
# Columns: gm/id [1/V]  gm/gds [V/V]  id/W [A/m]  ft [Hz]  Cgg/W [F/m]  Cgd/W [F/m]  Cgs/W [F/m]  Vov [V]
#         gm/id          gm/gds            id/W              ft           Cgg/W           Cgd/W           Cgs/W             Vov
    1.512614e+00    2.057521e+00    6.525540e+01    6.834986e+09    2.298408e-09    1.330809e-10    2.091687e-09   -2.713548e+00
    1.528006e+00    2.099082e+00    6.476125e+01    6.860046e+09    2.295797e-09    1.292251e-10    2.092129e-09   -2.708548e+00
    1.543622e+00    2.142055e+00    6.426585e+01    6.884865e+09    2.293222e-09    1.254486e-10    2.092531e-09   -2.703548e+00
    1.559465e+00    2.186506e+00    6.376925e+01    6.909431e+09    2.290682e-09    1.217514e-10    2.092893e-09   -2.698548e+00
    1.575539e+00    2.232505e+00    6.327140e+01    6.933731e+09    2.288178e-09    1.181333e-10    2.093215e-09   -2.693548e+00
    1.591848e+00    2.280125e+00    6.277235e+01    6.957756e+09    2.285709e-09    1.145942e-10    2.093498e-09   -2.688548e+00
    1.608396e+00    2.329444e+00    6.227215e+01    6.981494e+09    2.283277e-09    1.111338e-10    2.093742e-09   -2.683548e+00
    1.625185e+00    2.380543e+00    6.177080e+01    7.004928e+09    2.280880e-09    1.077516e-10    2.093947e-09   -2.678548e+00
    1.642222e+00    2.433509e+00    6.126825e+01    7.028050e+09    2.278519e-09    1.044474e-10    2.094114e-09   -2.673548e+00
    1.659505e+00    2.488429e+00    6.076465e+01    7.050840e+09    2.276192e-09    1.012204e-10    2.094242e-09   -2.668548e+00
    1.677043e+00    2.545401e+00    6.025990e+01    7.073284e+09    2.273901e-09    9.807015e-11    2.094334e-09   -2.663548e+00
    1.694838e+00    2.604526e+00    5.975405e+01    7.095374e+09    2.271645e-09    9.499595e-11    2.094387e-09   -2.658548e+00
    1.712893e+00    2.665906e+00    5.924715e+01    7.117085e+09    2.269424e-09    9.199700e-11    2.094404e-09   -2.653548e+00
    1.731210e+00    2.729655e+00    5.873920e+01    7.138406e+09    2.267236e-09    8.907250e-11    2.094384e-09   -2.648548e+00
    1.749793e+00    2.795887e+00    5.823025e+01    7.159317e+09    2.265082e-09    8.622160e-11    2.094329e-09   -2.643548e+00
    1.768646e+00    2.864724e+00    5.772030e+01    7.179800e+09    2.262962e-09    8.344335e-11    2.094237e-09   -2.638548e+00
    1.787769e+00    2.936294e+00    5.720940e+01    7.199838e+09    2.260874e-09    8.073680e-11    2.094110e-09   -2.633548e+00
    1.807167e+00    3.010731e+00    5.669755e+01    7.219407e+09    2.258818e-09    7.810090e-11    2.093949e-09   -2.628548e+00
    1.826841e+00    3.088173e+00    5.618480e+01    7.238487e+09    2.256794e-09    7.553460e-11    2.093753e-09   -2.623548e+00
    1.846795e+00    3.168768e+00    5.567115e+01    7.257061e+09    2.254801e-09    7.303680e-11    2.093523e-09   -2.618548e+00
    1.867028e+00    3.252666e+00    5.515670e+01    7.275103e+09    2.252839e-09    7.060635e-11    2.093261e-09   -2.613548e+00
    1.887544e+00    3.340024e+00    5.464140e+01    7.292588e+09    2.250906e-09    6.824210e-11    2.092964e-09   -2.608548e+00
    1.908343e+00    3.431004e+00    5.412530e+01    7.309489e+09    2.249002e-09    6.594280e-11    2.092637e-09   -2.603548e+00
    1.929426e+00    3.525780e+00    5.360850e+01    7.325787e+09    2.247127e-09    6.370725e-11    2.092276e-09   -2.598548e+00
    1.950794e+00    3.624520e+00    5.309100e+01    7.341450e+09    2.245281e-09    6.153425e-11    2.091885e-09   -2.593548e+00
    1.972448e+00    3.727406e+00    5.257280e+01    7.356450e+09    2.243461e-09    5.942255e-11    2.091462e-09   -2.588548e+00
    1.994384e+00    3.834620e+00    5.205405e+01    7.370762e+09    2.241666e-09    5.737085e-11    2.091008e-09   -2.583548e+00
    2.016606e+00    3.946350e+00    5.153470e+01    7.384357e+09    2.239899e-09    5.537785e-11    2.090525e-09   -2.578548e+00
    2.039112e+00    4.062782e+00    5.101480e+01    7.397199e+09    2.238155e-09    5.344230e-11    2.090011e-09   -2.573548e+00
    2.061899e+00    4.184109e+00    5.049445e+01    7.409259e+09    2.236436e-09    5.156290e-11    2.089468e-09   -2.568548e+00
    2.084968e+00    4.310525e+00    4.997367e+01    7.420513e+09    2.234739e-09    4.973838e-11    2.088896e-09   -2.563548e+00
    2.108314e+00    4.442217e+00    4.945253e+01    7.430919e+09    2.233065e-09    4.796745e-11    2.088296e-09   -2.558548e+00
    2.131937e+00    4.579378e+00    4.893108e+01    7.440452e+09    2.231413e-09    4.624881e-11    2.087667e-09   -2.553548e+00
    2.155832e+00    4.722189e+00    4.840937e+01    7.449072e+09    2.229781e-09    4.458121e-11    2.087010e-09   -2.548548e+00
    2.179998e+00    4.870836e+00    4.788747e+01    7.456756e+09    2.228170e-09    4.296337e-11    2.086326e-09   -2.543548e+00
    2.204432e+00    5.025489e+00    4.736545e+01    7.463471e+09    2.226577e-09    4.139403e-11    2.085614e-09   -2.538548e+00
    2.229129e+00    5.186313e+00    4.684336e+01    7.469181e+09    2.225002e-09    3.987195e-11    2.084876e-09   -2.533548e+00
    2.254087e+00    5.353459e+00    4.632127e+01    7.473857e+09    2.223445e-09    3.839588e-11    2.084110e-09   -2.528548e+00
    2.279301e+00    5.527072e+00    4.579926e+01    7.477474e+09    2.221905e-09    3.696462e-11    2.083318e-09   -2.523548e+00
    2.304770e+00    5.707273e+00    4.527739e+01    7.480002e+09    2.220380e-09    3.557696e-11    2.082500e-09   -2.518548e+00
    2.330488e+00    5.894170e+00    4.475574e+01    7.481416e+09    2.218870e-09    3.423172e-11    2.081656e-09   -2.513548e+00
    2.356452e+00    6.087848e+00    4.423439e+01    7.481691e+09    2.217374e-09    3.292772e-11    2.080786e-09   -2.508548e+00
    2.382659e+00    6.288378e+00    4.371341e+01    7.480805e+09    2.215891e-09    3.166383e-11    2.079891e-09   -2.503548e+00
    2.409108e+00    6.495803e+00    4.319288e+01    7.478740e+09    2.214421e-09    3.043891e-11    2.078970e-09   -2.498548e+00
    2.435796e+00    6.710143e+00    4.267287e+01    7.475479e+09    2.212962e-09    2.925186e-11    2.078023e-09   -2.493548e+00
    2.462720e+00    6.931388e+00    4.215348e+01    7.471005e+09    2.211513e-09    2.810159e-11    2.077051e-09   -2.488548e+00
    2.489880e+00    7.159516e+00    4.163478e+01    7.465312e+09    2.210074e-09    2.698704e-11    2.076054e-09   -2.483548e+00
    2.517276e+00    7.394463e+00    4.111685e+01    7.458388e+09    2.208645e-09    2.590716e-11    2.075032e-09   -2.478548e+00
    2.544907e+00    7.636150e+00    4.059978e+01    7.450228e+09    2.207223e-09    2.486094e-11    2.073985e-09   -2.473548e+00
    2.572775e+00    7.884468e+00    4.008365e+01    7.440833e+09    2.205807e-09    2.384738e-11    2.072912e-09   -2.468548e+00
    2.600882e+00    8.139287e+00    3.956855e+01    7.430201e+09    2.204399e-09    2.286550e-11    2.071815e-09   -2.463548e+00
    2.629230e+00    8.400456e+00    3.905455e+01    7.418339e+09    2.202996e-09    2.191436e-11    2.070692e-09   -2.458548e+00
    2.657824e+00    8.667793e+00    3.854174e+01    7.405249e+09    2.201598e-09    2.099301e-11    2.069544e-09   -2.453548e+00
    2.686669e+00    8.941119e+00    3.803020e+01    7.390947e+09    2.200203e-09    2.010058e-11    2.068371e-09   -2.448548e+00
    2.715769e+00    9.220216e+00    3.752002e+01    7.375443e+09    2.198811e-09    1.923616e-11    2.067172e-09   -2.443548e+00
    2.745130e+00    9.504867e+00    3.701127e+01    7.358745e+09    2.197421e-09    1.839891e-11    2.065947e-09   -2.438548e+00
    2.774763e+00    9.794854e+00    3.650404e+01    7.340880e+09    2.196032e-09    1.758798e-11    2.064697e-09   -2.433548e+00
    2.804674e+00    1.008993e+01    3.599840e+01    7.321862e+09    2.194644e-09    1.680256e-11    2.063421e-09   -2.428548e+00
    2.834872e+00    1.038986e+01    3.549442e+01    7.301710e+09    2.193255e-09    1.604186e-11    2.062118e-09   -2.423548e+00
    2.865369e+00    1.069442e+01    3.499220e+01    7.280451e+09    2.191864e-09    1.530511e-11    2.060789e-09   -2.418548e+00
    2.896173e+00    1.100336e+01    3.449180e+01    7.258099e+09    2.190471e-09    1.459156e-11    2.059433e-09   -2.413548e+00
    2.927299e+00    1.131647e+01    3.399329e+01    7.234686e+09    2.189075e-09    1.390048e-11    2.058050e-09   -2.408548e+00
    2.958759e+00    1.163353e+01    3.349674e+01    7.210235e+09    2.187674e-09    1.323118e-11    2.056639e-09   -2.403548e+00
    2.990564e+00    1.195431e+01    3.300222e+01    7.184767e+09    2.186269e-09    1.258296e-11    2.055201e-09   -2.398548e+00
    3.022730e+00    1.227864e+01    3.250981e+01    7.158311e+09    2.184858e-09    1.195517e-11    2.053734e-09   -2.393548e+00
    3.055270e+00    1.260633e+01    3.201955e+01    7.130891e+09    2.183440e-09    1.134714e-11    2.052239e-09   -2.388548e+00
    3.088202e+00    1.293723e+01    3.153154e+01    7.102536e+09    2.182014e-09    1.075828e-11    2.050715e-09   -2.383548e+00
    3.121538e+00    1.327118e+01    3.104582e+01    7.073267e+09    2.180579e-09    1.018796e-11    2.049161e-09   -2.378548e+00
    3.155296e+00    1.360804e+01    3.056246e+01    7.043108e+09    2.179135e-09    9.635590e-12    2.047576e-09   -2.373548e+00
    3.189493e+00    1.394772e+01    3.008150e+01    7.012087e+09    2.177680e-09    9.100615e-12    2.045961e-09   -2.368548e+00
    3.224145e+00    1.429011e+01    2.960303e+01    6.980223e+09    2.176214e-09    8.582480e-12    2.044315e-09   -2.363548e+00
    3.259269e+00    1.463515e+01    2.912708e+01    6.947541e+09    2.174735e-09    8.080650e-12    2.042637e-09   -2.358548e+00
    3.294887e+00    1.498277e+01    2.865372e+01    6.914066e+09    2.173242e-09    7.594610e-12    2.040926e-09   -2.353548e+00
    3.331015e+00    1.533292e+01    2.818299e+01    6.879817e+09    2.171735e-09    7.123855e-12    2.039181e-09   -2.348548e+00
    3.367672e+00    1.568559e+01    2.771495e+01    6.844815e+09    2.170213e-09    6.667910e-12    2.037402e-09   -2.343548e+00
    3.404876e+00    1.604076e+01    2.724966e+01    6.809078e+09    2.168673e-09    6.226295e-12    2.035589e-09   -2.338548e+00
    3.442649e+00    1.639844e+01    2.678715e+01    6.772625e+09    2.167117e-09    5.798570e-12    2.033740e-09   -2.333548e+00
    3.481010e+00    1.675865e+01    2.632749e+01    6.735476e+09    2.165542e-09    5.384285e-12    2.031854e-09   -2.328548e+00
    3.519983e+00    1.712140e+01    2.587071e+01    6.697650e+09    2.163946e-09    4.983026e-12    2.029931e-09   -2.323548e+00
    3.559587e+00    1.748676e+01    2.541686e+01    6.659160e+09    2.162331e-09    4.594377e-12    2.027970e-09   -2.318548e+00
    3.599844e+00    1.785476e+01    2.496598e+01    6.620024e+09    2.160692e-09    4.217945e-12    2.025970e-09   -2.313548e+00
    3.640777e+00    1.822547e+01    2.451814e+01    6.580253e+09    2.159032e-09    3.853347e-12    2.023928e-09   -2.308548e+00
    3.682409e+00    1.859897e+01    2.407334e+01    6.539865e+09    2.157346e-09    3.500213e-12    2.021846e-09   -2.303548e+00
    3.724764e+00    1.897534e+01    2.363167e+01    6.498874e+09    2.155635e-09    3.158186e-12    2.019721e-09   -2.298548e+00
    3.767867e+00    1.935465e+01    2.319314e+01    6.457288e+09    2.153897e-09    2.826920e-12    2.017553e-09   -2.293548e+00
    3.811740e+00    1.973700e+01    2.275780e+01    6.415120e+09    2.152131e-09    2.506083e-12    2.015339e-09   -2.288548e+00
    3.856413e+00    2.012251e+01    2.232568e+01    6.372385e+09    2.150336e-09    2.195351e-12    2.013080e-09   -2.283548e+00
    3.901908e+00    2.051125e+01    2.189684e+01    6.329086e+09    2.148511e-09    1.894416e-12    2.010773e-09   -2.278548e+00
    3.948257e+00    2.090336e+01    2.147130e+01    6.285239e+09    2.146654e-09    1.602976e-12    2.008418e-09   -2.273548e+00
    3.995482e+00    2.129894e+01    2.104911e+01    6.240851e+09    2.144763e-09    1.320741e-12    2.006012e-09   -2.268548e+00
    4.043618e+00    2.169811e+01    2.063030e+01    6.195929e+09    2.142838e-09    1.047431e-12    2.003555e-09   -2.263548e+00
    4.092692e+00    2.210100e+01    2.021491e+01    6.150485e+09    2.140877e-09    7.827785e-13    2.001045e-09   -2.258548e+00
    4.142733e+00    2.250772e+01    1.980298e+01    6.104522e+09    2.138877e-09    5.265200e-13    1.998481e-09   -2.253548e+00
    4.193776e+00    2.291839e+01    1.939454e+01    6.058051e+09    2.136840e-09    2.784057e-13    1.995860e-09   -2.248548e+00
    4.245850e+00    2.333315e+01    1.898963e+01    6.011072e+09    2.134761e-09    3.819273e-14    1.993181e-09   -2.243548e+00
    4.298991e+00    2.375212e+01    1.858828e+01    5.963596e+09    2.132641e-09    1.943529e-13    1.990444e-09   -2.238548e+00
    4.353235e+00    2.417545e+01    1.819053e+01    5.915629e+09    2.130476e-09    4.194568e-13    1.987645e-09   -2.233548e+00
    4.408613e+00    2.460323e+01    1.779641e+01    5.867169e+09    2.128267e-09    6.373365e-13    1.984784e-09   -2.228548e+00
    4.465168e+00    2.503563e+01    1.740597e+01    5.818229e+09    2.126010e-09    8.482015e-13    1.981857e-09   -2.223548e+00
    4.522931e+00    2.547275e+01    1.701922e+01    5.768803e+09    2.123704e-09    1.052255e-12    1.978863e-09   -2.218548e+00
    4.581948e+00    2.591476e+01    1.663621e+01    5.718903e+09    2.121348e-09    1.249690e-12    1.975801e-09   -2.213548e+00
    4.642258e+00    2.636175e+01    1.625697e+01    5.668531e+09    2.118939e-09    1.440696e-12    1.972668e-09   -2.208548e+00
    4.703901e+00    2.681387e+01    1.588153e+01    5.617683e+09    2.116476e-09    1.625455e-12    1.969462e-09   -2.203548e+00
    4.766925e+00    2.727125e+01    1.550993e+01    5.566368e+09    2.113958e-09    1.804138e-12    1.966180e-09   -2.198548e+00
    4.831367e+00    2.773400e+01    1.514220e+01    5.514581e+09    2.111380e-09    1.976916e-12    1.962821e-09   -2.193548e+00
    4.897284e+00    2.820228e+01    1.477837e+01    5.462331e+09    2.108744e-09    2.143949e-12    1.959382e-09   -2.188548e+00
    4.964717e+00    2.867618e+01    1.441847e+01    5.409612e+09    2.106045e-09    2.305394e-12    1.955862e-09   -2.183548e+00
    5.033714e+00    2.915582e+01    1.406254e+01    5.356426e+09    2.103281e-09    2.461400e-12    1.952257e-09   -2.178548e+00
    5.104335e+00    2.964137e+01    1.371061e+01    5.302779e+09    2.100451e-09    2.612111e-12    1.948564e-09   -2.173548e+00
    5.176624e+00    3.013289e+01    1.336271e+01    5.248661e+09    2.097553e-09    2.757667e-12    1.944782e-09   -2.168548e+00
    5.250638e+00    3.063051e+01    1.301889e+01    5.194075e+09    2.094584e-09    2.898201e-12    1.940908e-09   -2.163548e+00
    5.326437e+00    3.113435e+01    1.267915e+01    5.139022e+09    2.091542e-09    3.033842e-12    1.936939e-09   -2.158548e+00
    5.404076e+00    3.164450e+01    1.234355e+01    5.083498e+09    2.088425e-09    3.164712e-12    1.932871e-09   -2.153548e+00
    5.483614e+00    3.216106e+01    1.201211e+01    5.027502e+09    2.085230e-09    3.290931e-12    1.928703e-09   -2.148548e+00
    5.565116e+00    3.268415e+01    1.168486e+01    4.971034e+09    2.081954e-09    3.412613e-12    1.924431e-09   -2.143548e+00
    5.648641e+00    3.321380e+01    1.136184e+01    4.914085e+09    2.078596e-09    3.529867e-12    1.920053e-09   -2.138548e+00
    5.734256e+00    3.375013e+01    1.104308e+01    4.856657e+09    2.075153e-09    3.642799e-12    1.915564e-09   -2.133548e+00
    5.822028e+00    3.429321e+01    1.072862e+01    4.798745e+09    2.071621e-09    3.751510e-12    1.910963e-09   -2.128548e+00
    5.912025e+00    3.484307e+01    1.041847e+01    4.740343e+09    2.068000e-09    3.856097e-12    1.906245e-09   -2.123548e+00
    6.004318e+00    3.539979e+01    1.011268e+01    4.681451e+09    2.064285e-09    3.956652e-12    1.901407e-09   -2.118548e+00
    6.098980e+00    3.596339e+01    9.811280e+00    4.622062e+09    2.060475e-09    4.053265e-12    1.896447e-09   -2.113548e+00
    6.196081e+00    3.653392e+01    9.514305e+00    4.562174e+09    2.056565e-09    4.146023e-12    1.891361e-09   -2.108548e+00
    6.295693e+00    3.711133e+01    9.221780e+00    4.501775e+09    2.052555e-09    4.235006e-12    1.886145e-09   -2.103548e+00
    6.397903e+00    3.769570e+01    8.933740e+00    4.440869e+09    2.048439e-09    4.320293e-12    1.880794e-09   -2.098548e+00
    6.502783e+00    3.828698e+01    8.650220e+00    4.379450e+09    2.044217e-09    4.401961e-12    1.875308e-09   -2.093548e+00
    6.610409e+00    3.888510e+01    8.371245e+00    4.317506e+09    2.039884e-09    4.480082e-12    1.869680e-09   -2.088548e+00
    6.720863e+00    3.949006e+01    8.096855e+00    4.255039e+09    2.035439e-09    4.554723e-12    1.863908e-09   -2.083548e+00
    6.834215e+00    4.010168e+01    7.827080e+00    4.192036e+09    2.030877e-09    4.625952e-12    1.857988e-09   -2.078548e+00
    6.950566e+00    4.071998e+01    7.561945e+00    4.128502e+09    2.026196e-09    4.693831e-12    1.851915e-09   -2.073548e+00
    7.069975e+00    4.134474e+01    7.301490e+00    4.064424e+09    2.021392e-09    4.758422e-12    1.845687e-09   -2.068548e+00
    7.192533e+00    4.197587e+01    7.045745e+00    3.999804e+09    2.016463e-09    4.819783e-12    1.839298e-09   -2.063548e+00
    7.318312e+00    4.261308e+01    6.794735e+00    3.934632e+09    2.011405e-09    4.877968e-12    1.832747e-09   -2.058548e+00
    7.447394e+00    4.325626e+01    6.548495e+00    3.868909e+09    2.006215e-09    4.933030e-12    1.826026e-09   -2.053548e+00
    7.579858e+00    4.390507e+01    6.307050e+00    3.802631e+09    2.000890e-09    4.985020e-12    1.819133e-09   -2.048548e+00
    7.715770e+00    4.455930e+01    6.070435e+00    3.735797e+09    1.995428e-09    5.033990e-12    1.812065e-09   -2.043548e+00
    7.855196e+00    4.521853e+01    5.838680e+00    3.668405e+09    1.989823e-09    5.079980e-12    1.804816e-09   -2.038548e+00
    7.998211e+00    4.588241e+01    5.611805e+00    3.600456e+09    1.984075e-09    5.123035e-12    1.797384e-09   -2.033548e+00
    8.144866e+00    4.655055e+01    5.389845e+00    3.531953e+09    1.978179e-09    5.163200e-12    1.789763e-09   -2.028548e+00
    8.295222e+00    4.722242e+01    5.172820e+00    3.462898e+09    1.972132e-09    5.200520e-12    1.781950e-09   -2.023548e+00
    8.449325e+00    4.789753e+01    4.960756e+00    3.393296e+09    1.965930e-09    5.235025e-12    1.773940e-09   -2.018548e+00
    8.607212e+00    4.857530e+01    4.753677e+00    3.323157e+09    1.959573e-09    5.266755e-12    1.765729e-09   -2.013548e+00
    8.768914e+00    4.925511e+01    4.551604e+00    3.252491e+09    1.953054e-09    5.295750e-12    1.757314e-09   -2.008548e+00
    8.934449e+00    4.993620e+01    4.354557e+00    3.181309e+09    1.946373e-09    5.322040e-12    1.748691e-09   -2.003548e+00
    9.103823e+00    5.061788e+01    4.162554e+00    3.109628e+09    1.939525e-09    5.345660e-12    1.739855e-09   -1.998548e+00
    9.277029e+00    5.129928e+01    3.975610e+00    3.037466e+09    1.932509e-09    5.366645e-12    1.730803e-09   -1.993548e+00
    9.454041e+00    5.197950e+01    3.793739e+00    2.964845e+09    1.925320e-09    5.385015e-12    1.721531e-09   -1.988548e+00
    9.634820e+00    5.265765e+01    3.616952e+00    2.891794e+09    1.917958e-09    5.400810e-12    1.712036e-09   -1.983548e+00
    9.819304e+00    5.333266e+01    3.445255e+00    2.818343e+09    1.910418e-09    5.414055e-12    1.702313e-09   -1.978548e+00
    1.000741e+01    5.400345e+01    3.278652e+00    2.744527e+09    1.902698e-09    5.424780e-12    1.692360e-09   -1.973548e+00
    1.019904e+01    5.466881e+01    3.117146e+00    2.670385e+09    1.894796e-09    5.433015e-12    1.682173e-09   -1.968548e+00
    1.039404e+01    5.532758e+01    2.960732e+00    2.595964e+09    1.886709e-09    5.438780e-12    1.671749e-09   -1.963548e+00
    1.059228e+01    5.597840e+01    2.809403e+00    2.521314e+09    1.878437e-09    5.442105e-12    1.661084e-09   -1.958548e+00
