# sky130 pfet_01v8 gm/ID Processed Lookup Table
# Corner: ff
# Temperature: 25C
# W = 2.0 um
# L = 0.72 um (720 nm)
# Columns: gm/id [1/V]  gm/gds [V/V]  id/W [A/m]  ft [Hz]  Cgg/W [F/m]  Cgd/W [F/m]  Cgs/W [F/m]  Vov [V]
#         gm/id          gm/gds            id/W              ft           Cgg/W           Cgd/W           Cgs/W             Vov
    1.722790e+00    2.712681e+00    3.178325e+01    1.878496e+09    4.639170e-09    3.199191e-10    4.295780e-09   -2.756644e+00
    1.740962e+00    2.779935e+00    3.150922e+01    1.884586e+09    4.632667e-09    3.107739e-10    4.296634e-09   -2.751644e+00
    1.759409e+00    2.850047e+00    3.123469e+01    1.890579e+09    4.626252e-09    3.018138e-10    4.297399e-09   -2.746644e+00
    1.778133e+00    2.923176e+00    3.095967e+01    1.896469e+09    4.619924e-09    2.930399e-10    4.298077e-09   -2.741644e+00
    1.797139e+00    2.999502e+00    3.068418e+01    1.902254e+09    4.613685e-09    2.844529e-10    4.298666e-09   -2.736644e+00
    1.816430e+00    3.079209e+00    3.040824e+01    1.907926e+09    4.607535e-09    2.760530e-10    4.299169e-09   -2.731644e+00
    1.836009e+00    3.162493e+00    3.013185e+01    1.913479e+09    4.601476e-09    2.678404e-10    4.299584e-09   -2.726644e+00
    1.855879e+00    3.249565e+00    2.985502e+01    1.918906e+09    4.595507e-09    2.598149e-10    4.299914e-09   -2.721644e+00
    1.876042e+00    3.340649e+00    2.957778e+01    1.924202e+09    4.589628e-09    2.519760e-10    4.300156e-09   -2.716644e+00
    1.896502e+00    3.435984e+00    2.930014e+01    1.929361e+09    4.583839e-09    2.443231e-10    4.300314e-09   -2.711644e+00
    1.917258e+00    3.535819e+00    2.902211e+01    1.934374e+09    4.578140e-09    2.368553e-10    4.300389e-09   -2.706644e+00
    1.938315e+00    3.640428e+00    2.874371e+01    1.939236e+09    4.572530e-09    2.295714e-10    4.300379e-09   -2.701644e+00
    1.959674e+00    3.750097e+00    2.846497e+01    1.943939e+09    4.567010e-09    2.224702e-10    4.300286e-09   -2.696644e+00
    1.981335e+00    3.865123e+00    2.818590e+01    1.948474e+09    4.561579e-09    2.155499e-10    4.300111e-09   -2.691644e+00
    2.003297e+00    3.985828e+00    2.790652e+01    1.952833e+09    4.556234e-09    2.088090e-10    4.299855e-09   -2.686644e+00
    2.025564e+00    4.112554e+00    2.762686e+01    1.957009e+09    4.550976e-09    2.022453e-10    4.299519e-09   -2.681644e+00
    2.048133e+00    4.245657e+00    2.734692e+01    1.960994e+09    4.545804e-09    1.958569e-10    4.299103e-09   -2.676644e+00
    2.071003e+00    4.385508e+00    2.706676e+01    1.964775e+09    4.540717e-09    1.896415e-10    4.298609e-09   -2.671644e+00
    2.094174e+00    4.532511e+00    2.678639e+01    1.968347e+09    4.535712e-09    1.835966e-10    4.298039e-09   -2.666644e+00
    2.117643e+00    4.687075e+00    2.650582e+01    1.971697e+09    4.530789e-09    1.777198e-10    4.297392e-09   -2.661644e+00
    2.141407e+00    4.849635e+00    2.622510e+01    1.974818e+09    4.525946e-09    1.720083e-10    4.296670e-09   -2.656644e+00
    2.165463e+00    5.020646e+00    2.594424e+01    1.977698e+09    4.521183e-09    1.664593e-10    4.295874e-09   -2.651644e+00
    2.189809e+00    5.200580e+00    2.566329e+01    1.980328e+09    4.516496e-09    1.610702e-10    4.295004e-09   -2.646644e+00
    2.214441e+00    5.389926e+00    2.538228e+01    1.982699e+09    4.511885e-09    1.558378e-10    4.294063e-09   -2.641644e+00
    2.239350e+00    5.589184e+00    2.510123e+01    1.984797e+09    4.507347e-09    1.507591e-10    4.293050e-09   -2.636644e+00
    2.264538e+00    5.798877e+00    2.482018e+01    1.986618e+09    4.502881e-09    1.458311e-10    4.291968e-09   -2.631644e+00
    2.289993e+00    6.019531e+00    2.453918e+01    1.988145e+09    4.498485e-09    1.410505e-10    4.290816e-09   -2.626644e+00
    2.315713e+00    6.251686e+00    2.425825e+01    1.989373e+09    4.494157e-09    1.364143e-10    4.289597e-09   -2.621644e+00
    2.341691e+00    6.495887e+00    2.397744e+01    1.990290e+09    4.489894e-09    1.319192e-10    4.288310e-09   -2.616644e+00
    2.367920e+00    6.752684e+00    2.369678e+01    1.990889e+09    4.485694e-09    1.275621e-10    4.286957e-09   -2.611644e+00
    2.394395e+00    7.022622e+00    2.341634e+01    1.991159e+09    4.481557e-09    1.233395e-10    4.285539e-09   -2.606644e+00
    2.421108e+00    7.306236e+00    2.313612e+01    1.991092e+09    4.477479e-09    1.192482e-10    4.284056e-09   -2.601644e+00
    2.448056e+00    7.604074e+00    2.285619e+01    1.990683e+09    4.473459e-09    1.152850e-10    4.282508e-09   -2.596644e+00
    2.475228e+00    7.916634e+00    2.257661e+01    1.989921e+09    4.469493e-09    1.114467e-10    4.280899e-09   -2.591644e+00
    2.502625e+00    8.244422e+00    2.229739e+01    1.988804e+09    4.465580e-09    1.077299e-10    4.279227e-09   -2.586644e+00
    2.530236e+00    8.587895e+00    2.201860e+01    1.987324e+09    4.461718e-09    1.041315e-10    4.277493e-09   -2.581644e+00
    2.558060e+00    8.947505e+00    2.174029e+01    1.985479e+09    4.457904e-09    1.006482e-10    4.275698e-09   -2.576644e+00
    2.586091e+00    9.323647e+00    2.146249e+01    1.983264e+09    4.454137e-09    9.727690e-11    4.273843e-09   -2.571644e+00
    2.614329e+00    9.716693e+00    2.118526e+01    1.980678e+09    4.450413e-09    9.401450e-11    4.271928e-09   -2.566644e+00
    2.642772e+00    1.012696e+01    2.090865e+01    1.977721e+09    4.446730e-09    9.085785e-11    4.269954e-09   -2.561644e+00
    2.671418e+00    1.055471e+01    2.063271e+01    1.974392e+09    4.443087e-09    8.780395e-11    4.267920e-09   -2.556644e+00
    2.700268e+00    1.100016e+01    2.035748e+01    1.970692e+09    4.439481e-09    8.484975e-11    4.265828e-09   -2.551644e+00
    2.729324e+00    1.146348e+01    2.008301e+01    1.966625e+09    4.435909e-09    8.199230e-11    4.263678e-09   -2.546644e+00
    2.758587e+00    1.194477e+01    1.980937e+01    1.962191e+09    4.432369e-09    7.922875e-11    4.261469e-09   -2.541644e+00
    2.788063e+00    1.244410e+01    1.953658e+01    1.957398e+09    4.428860e-09    7.655620e-11    4.259203e-09   -2.536644e+00
    2.817754e+00    1.296144e+01    1.926469e+01    1.952247e+09    4.425378e-09    7.397190e-11    4.256879e-09   -2.531644e+00
    2.847669e+00    1.349675e+01    1.899376e+01    1.946747e+09    4.421923e-09    7.147310e-11    4.254496e-09   -2.526644e+00
    2.877817e+00    1.404993e+01    1.872383e+01    1.940904e+09    4.418489e-09    6.905715e-11    4.252057e-09   -2.521644e+00
    2.908203e+00    1.462079e+01    1.845494e+01    1.934724e+09    4.415077e-09    6.672140e-11    4.249560e-09   -2.516644e+00
    2.938839e+00    1.520917e+01    1.818713e+01    1.928216e+09    4.411684e-09    6.446335e-11    4.247004e-09   -2.511644e+00
    2.969737e+00    1.581483e+01    1.792046e+01    1.921390e+09    4.408306e-09    6.228050e-11    4.244391e-09   -2.506644e+00
    3.000905e+00    1.643747e+01    1.765496e+01    1.914251e+09    4.404942e-09    6.017040e-11    4.241719e-09   -2.501644e+00
    3.032360e+00    1.707683e+01    1.739067e+01    1.906810e+09    4.401590e-09    5.813070e-11    4.238989e-09   -2.496644e+00
    3.064112e+00    1.773256e+01    1.712762e+01    1.899075e+09    4.398248e-09    5.615915e-11    4.236200e-09   -2.491644e+00
    3.096177e+00    1.840434e+01    1.686587e+01    1.891056e+09    4.394912e-09    5.425345e-11    4.233352e-09   -2.486644e+00
    3.128572e+00    1.909185e+01    1.660544e+01    1.882763e+09    4.391581e-09    5.241145e-11    4.230443e-09   -2.481644e+00
    3.161311e+00    1.979474e+01    1.634637e+01    1.874205e+09    4.388253e-09    5.063100e-11    4.227474e-09   -2.476644e+00
    3.194412e+00    2.051266e+01    1.608869e+01    1.865390e+09    4.384924e-09    4.891015e-11    4.224443e-09   -2.471644e+00
    3.227889e+00    2.124529e+01    1.583244e+01    1.856327e+09    4.381593e-09    4.724682e-11    4.221351e-09   -2.466644e+00
    3.261764e+00    2.199233e+01    1.557765e+01    1.847026e+09    4.378259e-09    4.563909e-11    4.218196e-09   -2.461644e+00
    3.296051e+00    2.275346e+01    1.532434e+01    1.837495e+09    4.374916e-09    4.408511e-11    4.214977e-09   -2.456644e+00
    3.330772e+00    2.352844e+01    1.507256e+01    1.827743e+09    4.371565e-09    4.258305e-11    4.211693e-09   -2.451644e+00
    3.365942e+00    2.431699e+01    1.482232e+01    1.817775e+09    4.368202e-09    4.113114e-11    4.208344e-09   -2.446644e+00
    3.401585e+00    2.511892e+01    1.457366e+01    1.807603e+09    4.364825e-09    3.972770e-11    4.204928e-09   -2.441644e+00
    3.437719e+00    2.593404e+01    1.432659e+01    1.797233e+09    4.361432e-09    3.837106e-11    4.201444e-09   -2.436644e+00
    3.474364e+00    2.676221e+01    1.408116e+01    1.786671e+09    4.358019e-09    3.705963e-11    4.197891e-09   -2.431644e+00
    3.511542e+00    2.760329e+01    1.383737e+01    1.775925e+09    4.354586e-09    3.579185e-11    4.194267e-09   -2.426644e+00
    3.549274e+00    2.845721e+01    1.359526e+01    1.765002e+09    4.351129e-09    3.456625e-11    4.190571e-09   -2.421644e+00
    3.587580e+00    2.932395e+01    1.335484e+01    1.753906e+09    4.347646e-09    3.338137e-11    4.186802e-09   -2.416644e+00
    3.626485e+00    3.020347e+01    1.311615e+01    1.742646e+09    4.344134e-09    3.223580e-11    4.182957e-09   -2.411644e+00
    3.666009e+00    3.109581e+01    1.287920e+01    1.731225e+09    4.340590e-09    3.112822e-11    4.179036e-09   -2.406644e+00
    3.706177e+00    3.200104e+01    1.264400e+01    1.719650e+09    4.337014e-09    3.005730e-11    4.175035e-09   -2.401644e+00
    3.747011e+00    3.291925e+01    1.241060e+01    1.707926e+09    4.333399e-09    2.902179e-11    4.170955e-09   -2.396644e+00
    3.788538e+00    3.385058e+01    1.217899e+01    1.696057e+09    4.329747e-09    2.802046e-11    4.166791e-09   -2.391644e+00
    3.830780e+00    3.479520e+01    1.194920e+01    1.684047e+09    4.326052e-09    2.705215e-11    4.162544e-09   -2.386644e+00
    3.873765e+00    3.575332e+01    1.172124e+01    1.671902e+09    4.322313e-09    2.611571e-11    4.158210e-09   -2.381644e+00
    3.917517e+00    3.672514e+01    1.149514e+01    1.659625e+09    4.318526e-09    2.521006e-11    4.153786e-09   -2.376644e+00
    3.962062e+00    3.771095e+01    1.127093e+01    1.647219e+09    4.314689e-09    2.433413e-11    4.149271e-09   -2.371644e+00
    4.007431e+00    3.871105e+01    1.104859e+01    1.634690e+09    4.310799e-09    2.348691e-11    4.144662e-09   -2.366644e+00
    4.053650e+00    3.972576e+01    1.082817e+01    1.622039e+09    4.306853e-09    2.266740e-11    4.139957e-09   -2.361644e+00
    4.100748e+00    4.075541e+01    1.060966e+01    1.609269e+09    4.302848e-09    2.187466e-11    4.135152e-09   -2.356644e+00
    4.148756e+00    4.180041e+01    1.039310e+01    1.596385e+09    4.298781e-09    2.110778e-11    4.130246e-09   -2.351644e+00
    4.197705e+00    4.286114e+01    1.017848e+01    1.583389e+09    4.294648e-09    2.036586e-11    4.125235e-09   -2.346644e+00
    4.247627e+00    4.393807e+01    9.965835e+00    1.570282e+09    4.290446e-09    1.964806e-11    4.120115e-09   -2.341644e+00
    4.298552e+00    4.503159e+01    9.755175e+00    1.557068e+09    4.286174e-09    1.895355e-11    4.114886e-09   -2.336644e+00
    4.350518e+00    4.614226e+01    9.546510e+00    1.543749e+09    4.281825e-09    1.828155e-11    4.109541e-09   -2.331644e+00
    4.403559e+00    4.727053e+01    9.339855e+00    1.530327e+09    4.277399e-09    1.763128e-11    4.104079e-09   -2.326644e+00
    4.457708e+00    4.841697e+01    9.135230e+00    1.516804e+09    4.272890e-09    1.700201e-11    4.098495e-09   -2.321644e+00
    4.513007e+00    4.958209e+01    8.932640e+00    1.503181e+09    4.268296e-09    1.639303e-11    4.092787e-09   -2.316644e+00
    4.569494e+00    5.076650e+01    8.732100e+00    1.489461e+09    4.263612e-09    1.580365e-11    4.086950e-09   -2.311644e+00
    4.627205e+00    5.197082e+01    8.533630e+00    1.475645e+09    4.258835e-09    1.523321e-11    4.080981e-09   -2.306644e+00
    4.686184e+00    5.319562e+01    8.337240e+00    1.461733e+09    4.253962e-09    1.468109e-11    4.074874e-09   -2.301644e+00
    4.746478e+00    5.444155e+01    8.142935e+00    1.447728e+09    4.248988e-09    1.414666e-11    4.068627e-09   -2.296644e+00
    4.808124e+00    5.570931e+01    7.950740e+00    1.433631e+09    4.243909e-09    1.362933e-11    4.062235e-09   -2.291644e+00
    4.871173e+00    5.699958e+01    7.760660e+00    1.419442e+09    4.238720e-09    1.312853e-11    4.055693e-09   -2.286644e+00
    4.935671e+00    5.831303e+01    7.572710e+00    1.405162e+09    4.233419e-09    1.264372e-11    4.048997e-09   -2.281644e+00
    5.001668e+00    5.965044e+01    7.386900e+00    1.390792e+09    4.228000e-09    1.217435e-11    4.042142e-09   -2.276644e+00
    5.069215e+00    6.101256e+01    7.203245e+00    1.376333e+09    4.222459e-09    1.171994e-11    4.035122e-09   -2.271644e+00
    5.138364e+00    6.240016e+01    7.021755e+00    1.361785e+09    4.216791e-09    1.127997e-11    4.027933e-09   -2.266644e+00
    5.209170e+00    6.381398e+01    6.842445e+00    1.347149e+09    4.210992e-09    1.085398e-11    4.020570e-09   -2.261644e+00
    5.281690e+00    6.525492e+01    6.665325e+00    1.332424e+09    4.205058e-09    1.044151e-11    4.013027e-09   -2.256644e+00
    5.355984e+00    6.672375e+01    6.490405e+00    1.317611e+09    4.198982e-09    1.004213e-11    4.005298e-09   -2.251644e+00
    5.432106e+00    6.822142e+01    6.317705e+00    1.302710e+09    4.192760e-09    9.655390e-12    3.997378e-09   -2.246644e+00
    5.510129e+00    6.974866e+01    6.147225e+00    1.287721e+09    4.186388e-09    9.280905e-12    3.989261e-09   -2.241644e+00
    5.590113e+00    7.130649e+01    5.978985e+00    1.272643e+09    4.179859e-09    8.918275e-12    3.980940e-09   -2.236644e+00
    5.672119e+00    7.289576e+01    5.813000e+00    1.257477e+09    4.173168e-09    8.567115e-12    3.972410e-09   -2.231644e+00
    5.756228e+00    7.451742e+01    5.649270e+00    1.242221e+09    4.166310e-09    8.227065e-12    3.963664e-09   -2.226644e+00
    5.842505e+00    7.617241e+01    5.487815e+00    1.226876e+09    4.159279e-09    7.897770e-12    3.954695e-09   -2.221644e+00
    5.931019e+00    7.786170e+01    5.328650e+00    1.211440e+09    4.152069e-09    7.578885e-12    3.945497e-09   -2.216644e+00
    6.021853e+00    7.958623e+01    5.171780e+00    1.195914e+09    4.144676e-09    7.270090e-12    3.936062e-09   -2.211644e+00
    6.115090e+00    8.134703e+01    5.017215e+00    1.180295e+09    4.137091e-09    6.971065e-12    3.926383e-09   -2.206644e+00
    6.210799e+00    8.314506e+01    4.864975e+00    1.164584e+09    4.129310e-09    6.681505e-12    3.916453e-09   -2.201644e+00
    6.309068e+00    8.498131e+01    4.715066e+00    1.148778e+09    4.121326e-09    6.401120e-12    3.906266e-09   -2.196644e+00
    6.409984e+00    8.685682e+01    4.567502e+00    1.132878e+09    4.113133e-09    6.129625e-12    3.895812e-09   -2.191644e+00
    6.513632e+00    8.877254e+01    4.422294e+00    1.116881e+09    4.104724e-09    5.866750e-12    3.885083e-09   -2.186644e+00
    6.620100e+00    9.072949e+01    4.279454e+00    1.100787e+09    4.096093e-09    5.612225e-12    3.874073e-09   -2.181644e+00
    6.729481e+00    9.272865e+01    4.138994e+00    1.084594e+09    4.087233e-09    5.365805e-12    3.862773e-09   -2.176644e+00
    6.841867e+00    9.477097e+01    4.000925e+00    1.068301e+09    4.078136e-09    5.127245e-12    3.851175e-09   -2.171644e+00
    6.957351e+00    9.685742e+01    3.865260e+00    1.051906e+09    4.068797e-09    4.896302e-12    3.839269e-09   -2.166644e+00
    7.076030e+00    9.898892e+01    3.732010e+00    1.035407e+09    4.059208e-09    4.672756e-12    3.827048e-09   -2.161644e+00
    7.198000e+00    1.011664e+02    3.601186e+00    1.018805e+09    4.049361e-09    4.456388e-12    3.814502e-09   -2.156644e+00
    7.323359e+00    1.033905e+02    3.472800e+00    1.002096e+09    4.039250e-09    4.246986e-12    3.801623e-09   -2.151644e+00
    7.452202e+00    1.056623e+02    3.346864e+00    9.852803e+08    4.028867e-09    4.044346e-12    3.788402e-09   -2.146644e+00
    7.584630e+00    1.079823e+02    3.223389e+00    9.683560e+08    4.018206e-09    3.848272e-12    3.774830e-09   -2.141644e+00
    7.720736e+00    1.103513e+02    3.102386e+00    9.513216e+08    4.007258e-09    3.658576e-12    3.760896e-09   -2.136644e+00
    7.860617e+00    1.127698e+02    2.983865e+00    9.341763e+08    3.996015e-09    3.475077e-12    3.746592e-09   -2.131644e+00
    8.004366e+00    1.152382e+02    2.867839e+00    9.169194e+08    3.984470e-09    3.297596e-12    3.731909e-09   -2.126644e+00
    8.152073e+00    1.177569e+02    2.754317e+00    8.995501e+08    3.972617e-09    3.125966e-12    3.716836e-09   -2.121644e+00
    8.303826e+00    1.203262e+02    2.643308e+00    8.820680e+08    3.960446e-09    2.960023e-12    3.701365e-09   -2.116644e+00
    8.459704e+00    1.229460e+02    2.534824e+00    8.644728e+08    3.947951e-09    2.799608e-12    3.685486e-09   -2.111644e+00
    8.619788e+00    1.256163e+02    2.428873e+00    8.467654e+08    3.935123e-09    2.644571e-12    3.669190e-09   -2.106644e+00
    8.784141e+00    1.283368e+02    2.325463e+00    8.289459e+08    3.921956e-09    2.494764e-12    3.652465e-09   -2.101644e+00
    8.952829e+00    1.311070e+02    2.224603e+00    8.110161e+08    3.908440e-09    2.350045e-12    3.635303e-09   -2.096644e+00
    9.125895e+00    1.339260e+02    2.126301e+00    7.929773e+08    3.894569e-09    2.210277e-12    3.617695e-09   -2.091644e+00
    9.303387e+00    1.367930e+02    2.030561e+00    7.748325e+08    3.880337e-09    2.075329e-12    3.599631e-09   -2.086644e+00
    9.485323e+00    1.397067e+02    1.937391e+00    7.565847e+08    3.865734e-09    1.945073e-12    3.581101e-09   -2.081644e+00
    9.671715e+00    1.426653e+02    1.846795e+00    7.382379e+08    3.850754e-09    1.819386e-12    3.562097e-09   -2.076644e+00
    9.862552e+00    1.456671e+02    1.758776e+00    7.197974e+08    3.835391e-09    1.698148e-12    3.542609e-09   -2.071644e+00
    1.005781e+01    1.487096e+02    1.673335e+00    7.012687e+08    3.819635e-09    1.581244e-12    3.522627e-09   -2.066644e+00
    1.025743e+01    1.517903e+02    1.590475e+00    6.826592e+08    3.803483e-09    1.468564e-12    3.502146e-09   -2.061644e+00
    1.046134e+01    1.549059e+02    1.510193e+00    6.639771e+08    3.786926e-09    1.359999e-12    3.481153e-09   -2.056644e+00
    1.066944e+01    1.580530e+02    1.432487e+00    6.452319e+08    3.769958e-09    1.255445e-12    3.459644e-09   -2.051644e+00
    1.088158e+01    1.612275e+02    1.357352e+00    6.264344e+08    3.752574e-09    1.154802e-12    3.437608e-09   -2.046644e+00
    1.109762e+01    1.644248e+02    1.284783e+00    6.075974e+08    3.734768e-09    1.057971e-12    3.415039e-09   -2.041644e+00
    1.131732e+01    1.676400e+02    1.214769e+00    5.887341e+08    3.716535e-09    9.648580e-13    3.391930e-09   -2.036644e+00
    1.154047e+01    1.708675e+02    1.147299e+00    5.698604e+08    3.697870e-09    8.753710e-13    3.368274e-09   -2.031644e+00
    1.176676e+01    1.741012e+02    1.082360e+00    5.509930e+08    3.678769e-09    7.894205e-13    3.344065e-09   -2.026644e+00
    1.199587e+01    1.773345e+02    1.019934e+00    5.321509e+08    3.659227e-09    7.069200e-13    3.319298e-09   -2.021644e+00
    1.222743e+01    1.805604e+02    9.600030e-01    5.133543e+08    3.639241e-09    6.277855e-13    3.293967e-09   -2.016644e+00
    1.246102e+01    1.837710e+02    9.025425e-01    4.946248e+08    3.618807e-09    5.519345e-13    3.268069e-09   -2.011644e+00
    1.269616e+01    1.869583e+02    8.475280e-01    4.759862e+08    3.597926e-09    4.792878e-13    3.241598e-09   -2.006644e+00
    1.293234e+01    1.901136e+02    7.949290e-01    4.574631e+08    3.576593e-09    4.097670e-13    3.214555e-09   -2.001644e+00
