# sky130 pfet_01v8 gm/ID Processed Lookup Table
# Corner: ff
# Temperature: 25C
# W = 2.0 um
# L = 2.88 um (2880 nm)
# Columns: gm/id [1/V]  gm/gds [V/V]  id/W [A/m]  ft [Hz]  Cgg/W [F/m]  Cgd/W [F/m]  Cgs/W [F/m]  Vov [V]
#         gm/id          gm/gds            id/W              ft           Cgg/W           Cgd/W           Cgs/W             Vov
    1.947127e+00    3.966855e+00    7.693500e+00    1.269771e+08    1.877643e-08    1.888572e-09    1.697785e-08   -2.795010e+00
    1.967572e+00    4.092877e+00    7.618575e+00    1.273171e+08    1.873863e-08    1.836698e-09    1.698184e-08   -2.790010e+00
    1.988306e+00    4.225601e+00    7.543600e+00    1.276478e+08    1.870117e-08    1.785567e-09    1.698547e-08   -2.785010e+00
    2.009329e+00    4.365480e+00    7.468585e+00    1.279686e+08    1.866407e-08    1.735202e-09    1.698873e-08   -2.780010e+00
    2.030640e+00    4.512997e+00    7.393535e+00    1.282787e+08    1.862733e-08    1.685631e-09    1.699161e-08   -2.775010e+00
    2.052239e+00    4.668671e+00    7.318450e+00    1.285774e+08    1.859099e-08    1.636873e-09    1.699411e-08   -2.770010e+00
    2.074124e+00    4.833057e+00    7.243345e+00    1.288641e+08    1.855505e-08    1.588952e-09    1.699623e-08   -2.765010e+00
    2.096294e+00    5.006747e+00    7.168220e+00    1.291379e+08    1.851953e-08    1.541886e-09    1.699795e-08   -2.760010e+00
    2.118746e+00    5.190376e+00    7.093080e+00    1.293980e+08    1.848444e-08    1.495694e-09    1.699929e-08   -2.755010e+00
    2.141478e+00    5.384623e+00    7.017935e+00    1.296438e+08    1.844980e-08    1.450390e-09    1.700023e-08   -2.750010e+00
    2.164485e+00    5.590207e+00    6.942795e+00    1.298742e+08    1.841561e-08    1.405989e-09    1.700079e-08   -2.745010e+00
    2.187764e+00    5.807902e+00    6.867665e+00    1.300887e+08    1.838189e-08    1.362504e-09    1.700096e-08   -2.740010e+00
    2.211310e+00    6.038519e+00    6.792550e+00    1.302862e+08    1.834865e-08    1.319945e-09    1.700074e-08   -2.735010e+00
    2.235120e+00    6.282934e+00    6.717460e+00    1.304662e+08    1.831589e-08    1.278321e-09    1.700013e-08   -2.730010e+00
    2.259185e+00    6.542064e+00    6.642410e+00    1.306277e+08    1.828362e-08    1.237638e-09    1.699913e-08   -2.725010e+00
    2.283503e+00    6.816881e+00    6.567400e+00    1.307700e+08    1.825186e-08    1.197902e-09    1.699774e-08   -2.720010e+00
    2.308064e+00    7.108415e+00    6.492445e+00    1.308923e+08    1.822058e-08    1.159116e-09    1.699597e-08   -2.715010e+00
    2.332864e+00    7.417747e+00    6.417555e+00    1.309938e+08    1.818982e-08    1.121280e-09    1.699382e-08   -2.710010e+00
    2.357896e+00    7.746019e+00    6.342735e+00    1.310739e+08    1.815955e-08    1.084396e-09    1.699128e-08   -2.705010e+00
    2.383153e+00    8.094418e+00    6.268000e+00    1.311318e+08    1.812980e-08    1.048461e-09    1.698837e-08   -2.700010e+00
    2.408627e+00    8.464195e+00    6.193365e+00    1.311670e+08    1.810055e-08    1.013472e-09    1.698509e-08   -2.695010e+00
    2.434315e+00    8.856648e+00    6.118830e+00    1.311788e+08    1.807180e-08    9.794240e-10    1.698144e-08   -2.690010e+00
    2.460207e+00    9.273132e+00    6.044415e+00    1.311668e+08    1.804356e-08    9.463105e-10    1.697742e-08   -2.685010e+00
    2.486298e+00    9.715042e+00    5.970130e+00    1.311304e+08    1.801582e-08    9.141235e-10    1.697304e-08   -2.680010e+00
    2.512584e+00    1.018383e+01    5.895985e+00    1.310692e+08    1.798857e-08    8.828540e-10    1.696830e-08   -2.675010e+00
    2.539059e+00    1.068099e+01    5.821990e+00    1.309829e+08    1.796180e-08    8.524925e-10    1.696321e-08   -2.670010e+00
    2.565717e+00    1.120804e+01    5.748165e+00    1.308713e+08    1.793552e-08    8.230265e-10    1.695776e-08   -2.665010e+00
    2.592556e+00    1.176656e+01    5.674515e+00    1.307340e+08    1.790970e-08    7.944445e-10    1.695198e-08   -2.660010e+00
    2.619575e+00    1.235815e+01    5.601055e+00    1.305712e+08    1.788436e-08    7.667325e-10    1.694585e-08   -2.655010e+00
    2.646771e+00    1.298442e+01    5.527795e+00    1.303827e+08    1.785948e-08    7.398765e-10    1.693938e-08   -2.650010e+00
    2.674144e+00    1.364702e+01    5.454750e+00    1.301685e+08    1.783504e-08    7.138615e-10    1.693258e-08   -2.645010e+00
    2.701693e+00    1.434762e+01    5.381930e+00    1.299287e+08    1.781103e-08    6.886720e-10    1.692546e-08   -2.640010e+00
    2.729422e+00    1.508787e+01    5.309350e+00    1.296637e+08    1.778746e-08    6.642910e-10    1.691801e-08   -2.635010e+00
    2.757331e+00    1.586946e+01    5.237020e+00    1.293735e+08    1.776429e-08    6.407025e-10    1.691023e-08   -2.630010e+00
    2.785427e+00    1.669407e+01    5.164950e+00    1.290586e+08    1.774153e-08    6.178885e-10    1.690215e-08   -2.625010e+00
    2.813710e+00    1.756336e+01    5.093160e+00    1.287193e+08    1.771917e-08    5.958320e-10    1.689375e-08   -2.620010e+00
    2.842193e+00    1.847898e+01    5.021650e+00    1.283561e+08    1.769717e-08    5.745145e-10    1.688504e-08   -2.615010e+00
    2.870880e+00    1.944258e+01    4.950437e+00    1.279693e+08    1.767555e-08    5.539180e-10    1.687602e-08   -2.610010e+00
    2.899780e+00    2.045579e+01    4.879532e+00    1.275597e+08    1.765427e-08    5.340240e-10    1.686671e-08   -2.605010e+00
    2.928902e+00    2.152020e+01    4.808944e+00    1.271277e+08    1.763334e-08    5.148145e-10    1.685709e-08   -2.600010e+00
    2.958256e+00    2.263737e+01    4.738686e+00    1.266740e+08    1.761272e-08    4.962703e-10    1.684718e-08   -2.595010e+00
    2.987854e+00    2.380886e+01    4.668766e+00    1.261991e+08    1.759242e-08    4.783735e-10    1.683697e-08   -2.590010e+00
    3.017709e+00    2.503619e+01    4.599193e+00    1.257036e+08    1.757241e-08    4.611053e-10    1.682646e-08   -2.585010e+00
    3.047832e+00    2.632082e+01    4.529979e+00    1.251883e+08    1.755268e-08    4.444474e-10    1.681566e-08   -2.580010e+00
    3.078239e+00    2.766423e+01    4.461130e+00    1.246538e+08    1.753322e-08    4.283816e-10    1.680458e-08   -2.575010e+00
    3.108943e+00    2.906780e+01    4.392657e+00    1.241008e+08    1.751401e-08    4.128899e-10    1.679320e-08   -2.570010e+00
    3.139959e+00    3.053292e+01    4.324568e+00    1.235298e+08    1.749504e-08    3.979545e-10    1.678154e-08   -2.565010e+00
    3.171303e+00    3.206094e+01    4.256870e+00    1.229416e+08    1.747629e-08    3.835578e-10    1.676958e-08   -2.560010e+00
    3.202992e+00    3.365320e+01    4.189572e+00    1.223369e+08    1.745775e-08    3.696825e-10    1.675734e-08   -2.555010e+00
    3.235041e+00    3.531096e+01    4.122681e+00    1.217161e+08    1.743940e-08    3.563116e-10    1.674481e-08   -2.550010e+00
    3.267468e+00    3.703550e+01    4.056203e+00    1.210801e+08    1.742122e-08    3.434285e-10    1.673199e-08   -2.545010e+00
    3.300290e+00    3.882807e+01    3.990148e+00    1.204292e+08    1.740321e-08    3.310167e-10    1.671888e-08   -2.540010e+00
    3.333525e+00    4.068988e+01    3.924520e+00    1.197642e+08    1.738535e-08    3.190603e-10    1.670548e-08   -2.535010e+00
    3.367192e+00    4.262214e+01    3.859325e+00    1.190856e+08    1.736762e-08    3.075437e-10    1.669178e-08   -2.530010e+00
    3.401310e+00    4.462605e+01    3.794571e+00    1.183939e+08    1.735000e-08    2.964515e-10    1.667780e-08   -2.525010e+00
    3.435897e+00    4.670280e+01    3.730262e+00    1.176897e+08    1.733249e-08    2.857690e-10    1.666351e-08   -2.520010e+00
    3.470974e+00    4.885359e+01    3.666405e+00    1.169735e+08    1.731507e-08    2.754817e-10    1.664892e-08   -2.515010e+00
    3.506559e+00    5.107956e+01    3.603004e+00    1.162457e+08    1.729772e-08    2.655753e-10    1.663402e-08   -2.510010e+00
    3.542676e+00    5.338195e+01    3.540065e+00    1.155069e+08    1.728044e-08    2.560364e-10    1.661883e-08   -2.505010e+00
    3.579340e+00    5.576191e+01    3.477592e+00    1.147574e+08    1.726319e-08    2.468514e-10    1.660331e-08   -2.500010e+00
    3.616578e+00    5.822069e+01    3.415591e+00    1.139977e+08    1.724598e-08    2.380076e-10    1.658748e-08   -2.495010e+00
    3.654408e+00    6.075951e+01    3.354066e+00    1.132281e+08    1.722877e-08    2.294924e-10    1.657133e-08   -2.490010e+00
    3.692852e+00    6.337961e+01    3.293022e+00    1.124491e+08    1.721157e-08    2.212937e-10    1.655485e-08   -2.485010e+00
    3.731935e+00    6.608231e+01    3.232461e+00    1.116610e+08    1.719435e-08    2.133998e-10    1.653804e-08   -2.480010e+00
    3.771679e+00    6.886888e+01    3.172389e+00    1.108642e+08    1.717711e-08    2.057991e-10    1.652088e-08   -2.475010e+00
    3.812107e+00    7.174071e+01    3.112810e+00    1.100589e+08    1.715982e-08    1.984810e-10    1.650338e-08   -2.470010e+00
    3.853244e+00    7.469917e+01    3.053727e+00    1.092454e+08    1.714248e-08    1.914346e-10    1.648554e-08   -2.465010e+00
    3.895116e+00    7.774575e+01    2.995144e+00    1.084242e+08    1.712505e-08    1.846498e-10    1.646733e-08   -2.460010e+00
    3.937745e+00    8.088189e+01    2.937064e+00    1.075954e+08    1.710754e-08    1.781167e-10    1.644875e-08   -2.455010e+00
    3.981160e+00    8.410912e+01    2.879491e+00    1.067592e+08    1.708993e-08    1.718256e-10    1.642980e-08   -2.450010e+00
    4.025387e+00    8.742908e+01    2.822428e+00    1.059159e+08    1.707220e-08    1.657674e-10    1.641046e-08   -2.445010e+00
    4.070456e+00    9.084350e+01    2.765878e+00    1.050659e+08    1.705433e-08    1.599332e-10    1.639072e-08   -2.440010e+00
    4.116392e+00    9.435400e+01    2.709845e+00    1.042091e+08    1.703631e-08    1.543145e-10    1.637058e-08   -2.435010e+00
    4.163227e+00    9.796253e+01    2.654332e+00    1.033460e+08    1.701813e-08    1.489030e-10    1.635003e-08   -2.430010e+00
    4.210990e+00    1.016708e+02    2.599340e+00    1.024765e+08    1.699978e-08    1.436908e-10    1.632905e-08   -2.425010e+00
    4.259711e+00    1.054809e+02    2.544874e+00    1.016009e+08    1.698122e-08    1.386702e-10    1.630763e-08   -2.420010e+00
    4.309425e+00    1.093949e+02    2.490937e+00    1.007195e+08    1.696246e-08    1.338340e-10    1.628577e-08   -2.415010e+00
    4.360164e+00    1.134150e+02    2.437530e+00    9.983224e+07    1.694346e-08    1.291748e-10    1.626345e-08   -2.410010e+00
    4.411961e+00    1.175432e+02    2.384657e+00    9.893933e+07    1.692422e-08    1.246861e-10    1.624065e-08   -2.405010e+00
    4.464853e+00    1.217820e+02    2.332321e+00    9.804092e+07    1.690473e-08    1.203613e-10    1.621737e-08   -2.400010e+00
    4.518877e+00    1.261338e+02    2.280524e+00    9.713708e+07    1.688497e-08    1.161941e-10    1.619358e-08   -2.395010e+00
    4.574067e+00    1.306011e+02    2.229267e+00    9.622792e+07    1.686490e-08    1.121783e-10    1.616929e-08   -2.390010e+00
    4.630469e+00    1.351866e+02    2.178556e+00    9.531361e+07    1.684453e-08    1.083082e-10    1.614446e-08   -2.385010e+00
    4.688117e+00    1.398932e+02    2.128391e+00    9.439412e+07    1.682383e-08    1.045782e-10    1.611909e-08   -2.380010e+00
    4.747054e+00    1.447234e+02    2.078775e+00    9.346960e+07    1.680280e-08    1.009829e-10    1.609315e-08   -2.375010e+00
    4.807326e+00    1.496804e+02    2.029712e+00    9.254010e+07    1.678140e-08    9.751725e-11    1.606664e-08   -2.370010e+00
    4.868977e+00    1.547674e+02    1.981202e+00    9.160572e+07    1.675961e-08    9.417615e-11    1.603954e-08   -2.365010e+00
    4.932052e+00    1.599875e+02    1.933248e+00    9.066642e+07    1.673744e-08    9.095490e-11    1.601182e-08   -2.360010e+00
    4.996600e+00    1.653441e+02    1.885854e+00    8.972230e+07    1.671484e-08    8.784890e-11    1.598347e-08   -2.355010e+00
    5.062668e+00    1.708407e+02    1.839020e+00    8.877337e+07    1.669181e-08    8.485380e-11    1.595447e-08   -2.350010e+00
    5.130311e+00    1.764810e+02    1.792751e+00    8.781965e+07    1.666833e-08    8.196540e-11    1.592480e-08   -2.345010e+00
    5.199581e+00    1.822686e+02    1.747047e+00    8.686120e+07    1.664437e-08    7.917955e-11    1.589445e-08   -2.340010e+00
    5.270535e+00    1.882077e+02    1.701913e+00    8.589802e+07    1.661992e-08    7.649240e-11    1.586338e-08   -2.335010e+00
    5.343226e+00    1.943021e+02    1.657348e+00    8.493004e+07    1.659495e-08    7.390025e-11    1.583158e-08   -2.330010e+00
    5.417714e+00    2.005561e+02    1.613358e+00    8.395730e+07    1.656946e-08    7.139950e-11    1.579903e-08   -2.325010e+00
    5.494060e+00    2.069740e+02    1.569942e+00    8.297977e+07    1.654341e-08    6.898670e-11    1.576570e-08   -2.320010e+00
    5.572327e+00    2.135603e+02    1.527105e+00    8.199745e+07    1.651677e-08    6.665855e-11    1.573158e-08   -2.315010e+00
    5.652580e+00    2.203197e+02    1.484848e+00    8.101027e+07    1.648955e-08    6.441180e-11    1.569663e-08   -2.310010e+00
    5.734888e+00    2.272568e+02    1.443173e+00    8.001824e+07    1.646169e-08    6.224350e-11    1.566083e-08   -2.305010e+00
    5.819316e+00    2.343767e+02    1.402084e+00    7.902129e+07    1.643320e-08    6.015070e-11    1.562415e-08   -2.300010e+00
    5.905933e+00    2.416842e+02    1.361583e+00    7.801928e+07    1.640404e-08    5.813055e-11    1.558658e-08   -2.295010e+00
    5.994822e+00    2.491848e+02    1.321670e+00    7.701228e+07    1.637419e-08    5.618035e-11    1.554808e-08   -2.290010e+00
    6.086050e+00    2.568835e+02    1.282352e+00    7.600015e+07    1.634362e-08    5.429755e-11    1.550862e-08   -2.285010e+00
    6.179695e+00    2.647858e+02    1.243627e+00    7.498281e+07    1.631231e-08    5.247965e-11    1.546819e-08   -2.280010e+00
    6.275843e+00    2.728973e+02    1.205500e+00    7.396021e+07    1.628025e-08    5.072425e-11    1.542675e-08   -2.275010e+00
    6.374568e+00    2.812237e+02    1.167973e+00    7.293225e+07    1.624740e-08    4.902905e-11    1.538426e-08   -2.270010e+00
    6.475957e+00    2.897706e+02    1.131047e+00    7.189886e+07    1.621373e-08    4.739184e-11    1.534071e-08   -2.265010e+00
    6.580097e+00    2.985438e+02    1.094727e+00    7.085990e+07    1.617923e-08    4.581050e-11    1.529606e-08   -2.260010e+00
    6.687069e+00    3.075489e+02    1.059014e+00    6.981527e+07    1.614386e-08    4.428301e-11    1.525027e-08   -2.255010e+00
    6.796968e+00    3.167922e+02    1.023911e+00    6.876490e+07    1.610760e-08    4.280740e-11    1.520332e-08   -2.250010e+00
    6.909882e+00    3.262791e+02    9.894200e-01    6.770868e+07    1.607042e-08    4.138179e-11    1.515519e-08   -2.245010e+00
    7.025898e+00    3.360157e+02    9.555440e-01    6.664647e+07    1.603229e-08    4.000440e-11    1.510582e-08   -2.240010e+00
    7.145114e+00    3.460077e+02    9.222855e-01    6.557821e+07    1.599319e-08    3.867347e-11    1.505519e-08   -2.235010e+00
    7.267617e+00    3.562604e+02    8.896465e-01    6.450373e+07    1.595309e-08    3.738734e-11    1.500327e-08   -2.230010e+00
    7.393509e+00    3.667799e+02    8.576300e-01    6.342301e+07    1.591197e-08    3.614442e-11    1.495002e-08   -2.225010e+00
    7.522864e+00    3.775707e+02    8.262385e-01    6.233585e+07    1.586978e-08    3.494316e-11    1.489540e-08   -2.220010e+00
    7.655794e+00    3.886385e+02    7.954740e-01    6.124226e+07    1.582651e-08    3.378209e-11    1.483940e-08   -2.215010e+00
    7.792372e+00    3.999874e+02    7.653395e-01    6.014208e+07    1.578212e-08    3.265977e-11    1.478196e-08   -2.210010e+00
    7.932707e+00    4.116222e+02    7.358365e-01    5.903534e+07    1.573660e-08    3.157484e-11    1.472305e-08   -2.205010e+00
    8.076852e+00    4.235459e+02    7.069685e-01    5.792183e+07    1.568989e-08    3.052599e-11    1.466263e-08   -2.200010e+00
    8.224922e+00    4.357625e+02    6.787365e-01    5.680166e+07    1.564200e-08    2.951196e-11    1.460068e-08   -2.195010e+00
    8.376971e+00    4.482739e+02    6.511435e-01    5.567469e+07    1.559287e-08    2.853153e-11    1.453715e-08   -2.190010e+00
    8.533085e+00    4.610823e+02    6.241910e-01    5.454104e+07    1.554248e-08    2.758353e-11    1.447201e-08   -2.185010e+00
    8.693311e+00    4.741878e+02    5.978815e-01    5.340063e+07    1.549081e-08    2.666682e-11    1.440523e-08   -2.180010e+00
    8.857730e+00    4.875912e+02    5.722160e-01    5.225365e+07    1.543782e-08    2.578034e-11    1.433675e-08   -2.175010e+00
    9.026365e+00    5.012898e+02    5.471965e-01    5.110007e+07    1.538349e-08    2.492305e-11    1.426657e-08   -2.170010e+00
    9.199261e+00    5.152818e+02    5.228245e-01    4.994011e+07    1.532779e-08    2.409392e-11    1.419463e-08   -2.165010e+00
    9.376444e+00    5.295624e+02    4.991009e-01    4.877393e+07    1.527070e-08    2.329202e-11    1.412090e-08   -2.160010e+00
    9.557914e+00    5.441259e+02    4.760268e-01    4.760179e+07    1.521218e-08    2.251640e-11    1.404535e-08   -2.155010e+00
    9.743666e+00    5.589644e+02    4.536028e-01    4.642400e+07    1.515220e-08    2.176617e-11    1.396794e-08   -2.150010e+00
    9.933671e+00    5.740678e+02    4.318293e-01    4.524088e+07    1.509076e-08    2.104048e-11    1.388865e-08   -2.145010e+00
    1.012788e+01    5.894245e+02    4.107063e-01    4.405288e+07    1.502781e-08    2.033848e-11    1.380743e-08   -2.140010e+00
    1.032622e+01    6.050198e+02    3.902333e-01    4.286050e+07    1.496334e-08    1.965939e-11    1.372426e-08   -2.135010e+00
    1.052859e+01    6.208367e+02    3.704096e-01    4.166434e+07    1.489732e-08    1.900245e-11    1.363912e-08   -2.130010e+00
    1.073487e+01    6.368552e+02    3.512339e-01    4.046504e+07    1.482973e-08    1.836691e-11    1.355196e-08   -2.125010e+00
    1.094490e+01    6.530521e+02    3.327044e-01    3.926335e+07    1.476057e-08    1.775204e-11    1.346276e-08   -2.120010e+00
    1.115848e+01    6.694016e+02    3.148189e-01    3.806014e+07    1.468979e-08    1.715718e-11    1.337150e-08   -2.115010e+00
    1.137539e+01    6.858746e+02    2.975743e-01    3.685633e+07    1.461738e-08    1.658165e-11    1.327817e-08   -2.110010e+00
    1.159536e+01    7.024382e+02    2.809673e-01    3.565299e+07    1.454334e-08    1.602482e-11    1.318272e-08   -2.105010e+00
    1.181809e+01    7.190561e+02    2.649937e-01    3.445124e+07    1.446764e-08    1.548608e-11    1.308513e-08   -2.100010e+00
    1.204322e+01    7.356886e+02    2.496484e-01    3.325235e+07    1.439028e-08    1.496481e-11    1.298542e-08   -2.095010e+00
    1.227037e+01    7.522925e+02    2.349260e-01    3.205762e+07    1.431125e-08    1.446048e-11    1.288354e-08   -2.090010e+00
    1.249910e+01    7.688210e+02    2.208199e-01    3.086854e+07    1.423052e-08    1.397251e-11    1.277948e-08   -2.085010e+00
    1.272892e+01    7.852242e+02    2.073229e-01    2.968660e+07    1.414811e-08    1.350037e-11    1.267325e-08   -2.080010e+00
    1.295931e+01    8.014491e+02    1.944270e-01    2.851345e+07    1.406401e-08    1.304355e-11    1.256482e-08   -2.075010e+00
    1.318969e+01    8.174396e+02    1.821234e-01    2.735075e+07    1.397821e-08    1.260157e-11    1.245421e-08   -2.070010e+00
    1.341946e+01    8.331375e+02    1.704022e-01    2.620026e+07    1.389072e-08    1.217392e-11    1.234140e-08   -2.065010e+00
    1.364796e+01    8.484829e+02    1.592527e-01    2.506380e+07    1.380154e-08    1.176016e-11    1.222639e-08   -2.060010e+00
    1.387449e+01    8.634142e+02    1.486634e-01    2.394320e+07    1.371069e-08    1.135985e-11    1.210921e-08   -2.055010e+00
    1.409834e+01    8.778691e+02    1.386221e-01    2.284032e+07    1.361816e-08    1.097255e-11    1.198985e-08   -2.050010e+00
    1.431877e+01    8.917858e+02    1.291154e-01    2.175703e+07    1.352398e-08    1.059784e-11    1.186833e-08   -2.045010e+00
    1.453500e+01    9.051027e+02    1.201296e-01    2.069513e+07    1.342817e-08    1.023533e-11    1.174467e-08   -2.040010e+00
