# sky130 nfet_01v8 gm/ID Processed Lookup Table
# Corner: ff
# Temperature: 0C
# W = 2.0 um
# L = 4.5 um (4500 nm)
# Columns: gm/id [1/V]  gm/gds [V/V]  id/W [A/m]  ft [Hz]  Cgg/W [F/m]  Cgd/W [F/m]  Cgs/W [F/m]  Vov [V]
#         gm/id          gm/gds            id/W              ft           Cgg/W           Cgd/W           Cgs/W             Vov
    2.899565e+01    2.136147e+02    1.307965e-08    6.158066e+00    9.801770e-09    1.701975e-13    4.338473e-10   -5.466413e-01
    2.899505e+01    2.136102e+02    1.512024e-08    7.131121e+00    9.784635e-09    1.767952e-13    4.516167e-10   -5.416413e-01
    2.899441e+01    2.136055e+02    1.747913e-08    8.257051e+00    9.768530e-09    1.836678e-13    4.703119e-10   -5.366413e-01
    2.899372e+01    2.136004e+02    2.020597e-08    9.559684e+00    9.753490e-09    1.908279e-13    4.899851e-10   -5.316413e-01
    2.899296e+01    2.135949e+02    2.335812e-08    1.106653e+01    9.739555e-09    1.982888e-13    5.106910e-10   -5.266413e-01
    2.899216e+01    2.135890e+02    2.700191e-08    1.280934e+01    9.726760e-09    2.060648e-13    5.324865e-10   -5.216413e-01
    2.899130e+01    2.135827e+02    3.121398e-08    1.482476e+01    9.715150e-09    2.141705e-13    5.554305e-10   -5.166413e-01
    2.899037e+01    2.135759e+02    3.608295e-08    1.715500e+01    9.704770e-09    2.226213e-13    5.795880e-10   -5.116413e-01
    2.898937e+01    2.135686e+02    4.171120e-08    1.984877e+01    9.695675e-09    2.314337e-13    6.050250e-10   -5.066413e-01
    2.898830e+01    2.135606e+02    4.821711e-08    2.296224e+01    9.687905e-09    2.406245e-13    6.318105e-10   -5.016413e-01
    2.898715e+01    2.135521e+02    5.573745e-08    2.656009e+01    9.681515e-09    2.502118e-13    6.600170e-10   -4.966413e-01
    2.898590e+01    2.135431e+02    6.443040e-08    3.071684e+01    9.676565e-09    2.602142e-13    6.897195e-10   -4.916413e-01
    2.898459e+01    2.135333e+02    7.447855e-08    3.551829e+01    9.673115e-09    2.706513e-13    7.209965e-10   -4.866413e-01
    2.898314e+01    2.135228e+02    8.609325e-08    4.106328e+01    9.671215e-09    2.815441e-13    7.539295e-10   -4.816413e-01
    2.898161e+01    2.135115e+02    9.951840e-08    4.746545e+01    9.670935e-09    2.929139e-13    7.886040e-10   -4.766413e-01
    2.897995e+01    2.134994e+02    1.150362e-07    5.485555e+01    9.672345e-09    3.047836e-13    8.251085e-10   -4.716413e-01
    2.897818e+01    2.134863e+02    1.329724e-07    6.338395e+01    9.675505e-09    3.171769e-13    8.635345e-10   -4.666413e-01
    2.897627e+01    2.134723e+02    1.537040e-07    7.322347e+01    9.680490e-09    3.301187e-13    9.039765e-10   -4.616413e-01
    2.897422e+01    2.134573e+02    1.776659e-07    8.457262e+01    9.687375e-09    3.436352e-13    9.465330e-10   -4.566413e-01
    2.897203e+01    2.134412e+02    2.053612e-07    9.765940e+01    9.696240e-09    3.577537e-13    9.913055e-10   -4.516413e-01
    2.896967e+01    2.134239e+02    2.373710e-07    1.127455e+02    9.707155e-09    3.725028e-13    1.038398e-09   -4.466413e-01
    2.896711e+01    2.134052e+02    2.743670e-07    1.301312e+02    9.720215e-09    3.879126e-13    1.087919e-09   -4.416413e-01
    2.896439e+01    2.133852e+02    3.171248e-07    1.501608e+02    9.735495e-09    4.040142e-13    1.139978e-09   -4.366413e-01
    2.896146e+01    2.133638e+02    3.665409e-07    1.732293e+02    9.753080e-09    4.208407e-13    1.194689e-09   -4.316413e-01
    2.895830e+01    2.133407e+02    4.236509e-07    1.997884e+02    9.773070e-09    4.384261e-13    1.252168e-09   -4.266413e-01
    2.895492e+01    2.133160e+02    4.896509e-07    2.303565e+02    9.795545e-09    4.568065e-13    1.312533e-09   -4.216413e-01
    2.895128e+01    2.132894e+02    5.659235e-07    2.655261e+02    9.820610e-09    4.760193e-13    1.375904e-09   -4.166413e-01
    2.894739e+01    2.132609e+02    6.540640e-07    3.059753e+02    9.848350e-09    4.961036e-13    1.442406e-09   -4.116413e-01
    2.894320e+01    2.132304e+02    7.559170e-07    3.524794e+02    9.878865e-09    5.171005e-13    1.512161e-09   -4.066413e-01
    2.893869e+01    2.131975e+02    8.736125e-07    4.059248e+02    9.912250e-09    5.390520e-13    1.585295e-09   -4.016413e-01
    2.893386e+01    2.131623e+02    1.009609e-06    4.673232e+02    9.948610e-09    5.620030e-13    1.661935e-09   -3.966413e-01
    2.892867e+01    2.131244e+02    1.166747e-06    5.378300e+02    9.988040e-09    5.860000e-13    1.742210e-09   -3.916413e-01
    2.892310e+01    2.130839e+02    1.348306e-06    6.187634e+02    1.003064e-08    6.110915e-13    1.826246e-09   -3.866413e-01
    2.891712e+01    2.130404e+02    1.558073e-06    7.116266e+02    1.007653e-08    6.373270e-13    1.914170e-09   -3.816413e-01
    2.891069e+01    2.129937e+02    1.800419e-06    8.181333e+02    1.012577e-08    6.647595e-13    2.006110e-09   -3.766413e-01
    2.890379e+01    2.129437e+02    2.080392e-06    9.402350e+02    1.017850e-08    6.934440e-13    2.102191e-09   -3.716413e-01
    2.889641e+01    2.128902e+02    2.403814e-06    1.080155e+03    1.023478e-08    7.234365e-13    2.202537e-09   -3.666413e-01
    2.888847e+01    2.128327e+02    2.777411e-06    1.240421e+03    1.029475e-08    7.547965e-13    2.307269e-09   -3.616413e-01
    2.887996e+01    2.127712e+02    3.208940e-06    1.423911e+03    1.035847e-08    7.875855e-13    2.416507e-09   -3.566413e-01
    2.887083e+01    2.127054e+02    3.707351e-06    1.633893e+03    1.042604e-08    8.218665e-13    2.530365e-09   -3.516413e-01
    2.886103e+01    2.126347e+02    4.282974e-06    1.874084e+03    1.049756e-08    8.577065e-13    2.648953e-09   -3.466413e-01
    2.885053e+01    2.125592e+02    4.947720e-06    2.148703e+03    1.057311e-08    8.951735e-13    2.772379e-09   -3.416413e-01
    2.883926e+01    2.124783e+02    5.715330e-06    2.462539e+03    1.065277e-08    9.343390e-13    2.900742e-09   -3.366413e-01
    2.882720e+01    2.123918e+02    6.601640e-06    2.821026e+03    1.073662e-08    9.752770e-13    3.034135e-09   -3.316413e-01
    2.881426e+01    2.122993e+02    7.624925e-06    3.230325e+03    1.082472e-08    1.018064e-12    3.172647e-09   -3.266413e-01
    2.880041e+01    2.122005e+02    8.806230e-06    3.697424e+03    1.091716e-08    1.062778e-12    3.316357e-09   -3.216413e-01
    2.878557e+01    2.120949e+02    1.016982e-05    4.230231e+03    1.101398e-08    1.109502e-12    3.465334e-09   -3.166413e-01
    2.876968e+01    2.119821e+02    1.174365e-05    4.837711e+03    1.111523e-08    1.158321e-12    3.619643e-09   -3.116413e-01
    2.875266e+01    2.118618e+02    1.355993e-05    5.530003e+03    1.122097e-08    1.209322e-12    3.779333e-09   -3.066413e-01
    2.873445e+01    2.117333e+02    1.565574e-05    6.318586e+03    1.133122e-08    1.262595e-12    3.944449e-09   -3.016413e-01
    2.871498e+01    2.115964e+02    1.807378e-05    7.216430e+03    1.144603e-08    1.318235e-12    4.115018e-09   -2.966413e-01
    2.869415e+01    2.114506e+02    2.086317e-05    8.238209e+03    1.156541e-08    1.376338e-12    4.291060e-09   -2.916413e-01
    2.867189e+01    2.112954e+02    2.408047e-05    9.400489e+03    1.168937e-08    1.437004e-12    4.472582e-09   -2.866413e-01
    2.864810e+01    2.111302e+02    2.779071e-05    1.072199e+04    1.181790e-08    1.500334e-12    4.659576e-09   -2.816413e-01
    2.862271e+01    2.109547e+02    3.206866e-05    1.222384e+04    1.195100e-08    1.566437e-12    4.852025e-09   -2.766413e-01
    2.859561e+01    2.107684e+02    3.700030e-05    1.392988e+04    1.208864e-08    1.635419e-12    5.049895e-09   -2.716413e-01
    2.856668e+01    2.105707e+02    4.268436e-05    1.586696e+04    1.223080e-08    1.707395e-12    5.253135e-09   -2.666413e-01
    2.853585e+01    2.103614e+02    4.923426e-05    1.806541e+04    1.237743e-08    1.782480e-12    5.461690e-09   -2.616413e-01
    2.850300e+01    2.101396e+02    5.678020e-05    2.055935e+04    1.252848e-08    1.860793e-12    5.675475e-09   -2.566413e-01
    2.846802e+01    2.099054e+02    6.547160e-05    2.338721e+04    1.268387e-08    1.942456e-12    5.894405e-09   -2.516413e-01
    2.843080e+01    2.096581e+02    7.547975e-05    2.659224e+04    1.284354e-08    2.027597e-12    6.118375e-09   -2.466413e-01
    2.839124e+01    2.093974e+02    8.700105e-05    3.022309e+04    1.300739e-08    2.116345e-12    6.347265e-09   -2.416413e-01
    2.834922e+01    2.091233e+02    1.002606e-04    3.433446e+04    1.317532e-08    2.208833e-12    6.580940e-09   -2.366413e-01
    2.830461e+01    2.088353e+02    1.155159e-04    3.898777e+04    1.334721e-08    2.305198e-12    6.819245e-09   -2.316413e-01
    2.825732e+01    2.085335e+02    1.330619e-04    4.425203e+04    1.352295e-08    2.405581e-12    7.062025e-09   -2.266413e-01
    2.820723e+01    2.082180e+02    1.532356e-04    5.020461e+04    1.370240e-08    2.510128e-12    7.309100e-09   -2.216413e-01
    2.815424e+01    2.078888e+02    1.764225e-04    5.693236e+04    1.388541e-08    2.618986e-12    7.560285e-09   -2.166413e-01
    2.809824e+01    2.075465e+02    2.030626e-04    6.453255e+04    1.407182e-08    2.732308e-12    7.815370e-09   -2.116413e-01
    2.803914e+01    2.071913e+02    2.336580e-04    7.311409e+04    1.426148e-08    2.850251e-12    8.074150e-09   -2.066413e-01
    2.797685e+01    2.068241e+02    2.687819e-04    8.279901e+04    1.445419e-08    2.972975e-12    8.336390e-09   -2.016413e-01
    2.791131e+01    2.064461e+02    3.090867e-04    9.372367e+04    1.464979e-08    3.100646e-12    8.601860e-09   -1.966413e-01
    2.784245e+01    2.060585e+02    3.553161e-04    1.060406e+05    1.484808e-08    3.233432e-12    8.870320e-09   -1.916413e-01
    2.777021e+01    2.056628e+02    4.083158e-04    1.199201e+05    1.504886e-08    3.371508e-12    9.141510e-09   -1.866413e-01
    2.769459e+01    2.052614e+02    4.690476e-04    1.355524e+05    1.525192e-08    3.515052e-12    9.415175e-09   -1.816413e-01
    2.761557e+01    2.048563e+02    5.386040e-04    1.531498e+05    1.545707e-08    3.664247e-12    9.691040e-09   -1.766413e-01
    2.753314e+01    2.044507e+02    6.182260e-04    1.729492e+05    1.566407e-08    3.819280e-12    9.968840e-09   -1.716413e-01
    2.744737e+01    2.040480e+02    7.093200e-04    1.952144e+05    1.587271e-08    3.980344e-12    1.024829e-08   -1.666413e-01
    2.735832e+01    2.036522e+02    8.134810e-04    2.202399e+05    1.608277e-08    4.147637e-12    1.052912e-08   -1.616413e-01
    2.726611e+01    2.032680e+02    9.325145e-04    2.483536e+05    1.629403e-08    4.321361e-12    1.081104e-08   -1.566413e-01
    2.717084e+01    2.029005e+02    1.068465e-03    2.799209e+05    1.650625e-08    4.501725e-12    1.109378e-08   -1.516413e-01
    2.707271e+01    2.025558e+02    1.223644e-03    3.153488e+05    1.671921e-08    4.688942e-12    1.137703e-08   -1.466413e-01
    2.697188e+01    2.022407e+02    1.400663e-03    3.550909e+05    1.693268e-08    4.883232e-12    1.166053e-08   -1.416413e-01
    2.686863e+01    2.019626e+02    1.602472e-03    3.996522e+05    1.714644e-08    5.084820e-12    1.194400e-08   -1.366413e-01
    2.676318e+01    2.017298e+02    1.832403e-03    4.495959e+05    1.736027e-08    5.293935e-12    1.222716e-08   -1.316413e-01
    2.665585e+01    2.015515e+02    2.094210e-03    5.055493e+05    1.757395e-08    5.510820e-12    1.250974e-08   -1.266413e-01
    2.654691e+01    2.014373e+02    2.392129e-03    5.682112e+05    1.778726e-08    5.735710e-12    1.279146e-08   -1.216413e-01
    2.643675e+01    2.013982e+02    2.730934e-03    6.383618e+05    1.800000e-08    5.968865e-12    1.307208e-08   -1.166413e-01
    2.632563e+01    2.014453e+02    3.115999e-03    7.168695e+05    1.821194e-08    6.210535e-12    1.335134e-08   -1.116413e-01
    2.621391e+01    2.015907e+02    3.553379e-03    8.047027e+05    1.842290e-08    6.460990e-12    1.362899e-08   -1.066413e-01
    2.610188e+01    2.018468e+02    4.049885e-03    9.029407e+05    1.863268e-08    6.720500e-12    1.390480e-08   -1.016413e-01
    2.598979e+01    2.022264e+02    4.613181e-03    1.012785e+06    1.884110e-08    6.989340e-12    1.417853e-08   -9.664130e-02
    2.587786e+01    2.027428e+02    5.251880e-03    1.135572e+06    1.904797e-08    7.267805e-12    1.444999e-08   -9.164130e-02
    2.576617e+01    2.034090e+02    5.975670e-03    1.272786e+06    1.925313e-08    7.556190e-12    1.471895e-08   -8.664130e-02
    2.565478e+01    2.042379e+02    6.795420e-03    1.426075e+06    1.945640e-08    7.854795e-12    1.498522e-08   -8.164130e-02
    2.554359e+01    2.052419e+02    7.723320e-03    1.597257e+06    1.965764e-08    8.163935e-12    1.524861e-08   -7.664130e-02
    2.543234e+01    2.064325e+02    8.773050e-03    1.788340e+06    1.985670e-08    8.483935e-12    1.550896e-08   -7.164130e-02
    2.532066e+01    2.078204e+02    9.959905e-03    2.001526e+06    2.005345e-08    8.815130e-12    1.576609e-08   -6.664130e-02
    2.520799e+01    2.094144e+02    1.130098e-02    2.239224e+06    2.024775e-08    9.157850e-12    1.601986e-08   -6.164130e-02
    2.509358e+01    2.112219e+02    1.281536e-02    2.504052e+06    2.043949e-08    9.512460e-12    1.627014e-08   -5.664130e-02
    2.497653e+01    2.132477e+02    1.452427e-02    2.798837e+06    2.062856e-08    9.879320e-12    1.651678e-08   -5.164130e-02
    2.485575e+01    2.154945e+02    1.645128e-02    3.126607e+06    2.081485e-08    1.025881e-11    1.675968e-08   -4.664130e-02
    2.473002e+01    2.179621e+02    1.862249e-02    3.490587e+06    2.099830e-08    1.065130e-11    1.699874e-08   -4.164130e-02
    2.459800e+01    2.206471e+02    2.106669e-02    3.894172e+06    2.117879e-08    1.105719e-11    1.723386e-08   -3.664130e-02
    2.445820e+01    2.235426e+02    2.381551e-02    4.340892e+06    2.135628e-08    1.147692e-11    1.746497e-08   -3.164130e-02
    2.430914e+01    2.266387e+02    2.690359e-02    4.834395e+06    2.153068e-08    1.191089e-11    1.769198e-08   -2.664130e-02
    2.414930e+01    2.299216e+02    3.036864e-02    5.378378e+06    2.170195e-08    1.235953e-11    1.791485e-08   -2.164130e-02
    2.397724e+01    2.333744e+02    3.425156e-02    5.976543e+06    2.187005e-08    1.282331e-11    1.813352e-08   -1.664130e-02
    2.379154e+01    2.369761e+02    3.859645e-02    6.632520e+06    2.203492e-08    1.330269e-11    1.834796e-08   -1.164130e-02
    2.359102e+01    2.407030e+02    4.345053e-02    7.349813e+06    2.219655e-08    1.379815e-11    1.855813e-08   -6.641300e-03
    2.337461e+01    2.445284e+02    4.886414e-02    8.131708e+06    2.235491e-08    1.431020e-11    1.876403e-08   -1.641300e-03
    2.314151e+01    2.484230e+02    5.489055e-02    8.981197e+06    2.250998e-08    1.483934e-11    1.896562e-08    3.358700e-03
    2.289114e+01    2.523551e+02    6.158575e-02    9.900892e+06    2.266175e-08    1.538610e-11    1.916292e-08    8.358700e-03
    2.262329e+01    2.562921e+02    6.900805e-02    1.089296e+07    2.281023e-08    1.595104e-11    1.935593e-08    1.335870e-02
    2.233789e+01    2.601997e+02    7.721810e-02    1.195904e+07    2.295541e-08    1.653473e-11    1.954466e-08    1.835870e-02
    2.203529e+01    2.640436e+02    8.627795e-02    1.310019e+07    2.309730e-08    1.713775e-11    1.972913e-08    2.335870e-02
    2.171606e+01    2.677897e+02    9.625095e-02    1.431681e+07    2.323592e-08    1.776071e-11    1.990937e-08    2.835870e-02
    2.138100e+01    2.714048e+02    1.072013e-01    1.560865e+07    2.337129e-08    1.840424e-11    2.008540e-08    3.335870e-02
    2.103117e+01    2.748572e+02    1.191931e-01    1.697474e+07    2.350344e-08    1.906899e-11    2.025727e-08    3.835870e-02
    2.066784e+01    2.781169e+02    1.322901e-01    1.841345e+07    2.363238e-08    1.975565e-11    2.042502e-08    4.335870e-02
    2.029241e+01    2.811566e+02    1.465553e-01    1.992243e+07    2.375815e-08    2.046488e-11    2.058869e-08    4.835870e-02
    1.990640e+01    2.839514e+02    1.620498e-01    2.149871e+07    2.388080e-08    2.119745e-11    2.074835e-08    5.335870e-02
    1.951143e+01    2.864803e+02    1.788329e-01    2.313869e+07    2.400036e-08    2.195406e-11    2.090403e-08    5.835870e-02
    1.910916e+01    2.887251e+02    1.969610e-01    2.483825e+07    2.411687e-08    2.273552e-11    2.105582e-08    6.335870e-02
    1.870127e+01    2.906712e+02    2.164877e-01    2.659281e+07    2.423038e-08    2.354262e-11    2.120375e-08    6.835870e-02
    1.828941e+01    2.923078e+02    2.374630e-01    2.839740e+07    2.434094e-08    2.437619e-11    2.134791e-08    7.335870e-02
    1.787519e+01    2.936273e+02    2.599331e-01    3.024674e+07    2.444859e-08    2.523708e-11    2.148836e-08    7.835870e-02
    1.746017e+01    2.946258e+02    2.839399e-01    3.213537e+07    2.455340e-08    2.612621e-11    2.162516e-08    8.335870e-02
    1.704579e+01    2.953026e+02    3.095213e-01    3.405773e+07    2.465540e-08    2.704449e-11    2.175839e-08    8.835870e-02
    1.663343e+01    2.956600e+02    3.367105e-01    3.600821e+07    2.475467e-08    2.799287e-11    2.188813e-08    9.335870e-02
    1.622434e+01    2.957032e+02    3.655367e-01    3.798130e+07    2.485125e-08    2.897235e-11    2.201445e-08    9.835870e-02
    1.581964e+01    2.954393e+02    3.960239e-01    3.997156e+07    2.494520e-08    2.998396e-11    2.213742e-08    1.033587e-01
    1.542037e+01    2.948782e+02    4.281921e-01    4.197382e+07    2.503658e-08    3.102878e-11    2.225710e-08    1.083587e-01
    1.502743e+01    2.940316e+02    4.620572e-01    4.398318e+07    2.512545e-08    3.210791e-11    2.237361e-08    1.133587e-01
    1.464158e+01    2.929123e+02    4.976306e-01    4.599496e+07    2.521187e-08    3.322250e-11    2.248699e-08    1.183587e-01
    1.426353e+01    2.915345e+02    5.349200e-01    4.800493e+07    2.529590e-08    3.437373e-11    2.259732e-08    1.233587e-01
    1.389380e+01    2.899135e+02    5.739300e-01    5.000919e+07    2.537759e-08    3.556287e-11    2.270468e-08    1.283587e-01
    1.353289e+01    2.880647e+02    6.146605e-01    5.200420e+07    2.545701e-08    3.679117e-11    2.280916e-08    1.333587e-01
    1.318113e+01    2.860043e+02    6.571100e-01    5.398687e+07    2.553422e-08    3.805998e-11    2.291082e-08    1.383587e-01
    1.283881e+01    2.837485e+02    7.012730e-01    5.595447e+07    2.560927e-08    3.937068e-11    2.300974e-08    1.433587e-01
    1.250613e+01    2.813131e+02    7.471420e-01    5.790467e+07    2.568223e-08    4.072470e-11    2.310600e-08    1.483587e-01
    1.218321e+01    2.787142e+02    7.947080e-01    5.983555e+07    2.575314e-08    4.212354e-11    2.319966e-08    1.533587e-01
    1.187011e+01    2.759671e+02    8.439590e-01    6.174549e+07    2.582208e-08    4.356875e-11    2.329080e-08    1.583587e-01
    1.156684e+01    2.730865e+02    8.948825e-01    6.363323e+07    2.588909e-08    4.506192e-11    2.337948e-08    1.633587e-01
    1.127334e+01    2.700869e+02    9.474640e-01    6.549790e+07    2.595423e-08    4.660474e-11    2.346580e-08    1.683587e-01
    1.098952e+01    2.669816e+02    1.001688e+00    6.733872e+07    2.601756e-08    4.819893e-11    2.354979e-08    1.733587e-01
    1.071526e+01    2.637834e+02    1.057539e+00    6.915541e+07    2.607914e-08    4.984630e-11    2.363155e-08    1.783587e-01
    1.045039e+01    2.605044e+02    1.115001e+00    7.094777e+07    2.613901e-08    5.154870e-11    2.371114e-08    1.833587e-01
    1.019473e+01    2.571557e+02    1.174056e+00    7.271586e+07    2.619723e-08    5.330810e-11    2.378861e-08    1.883587e-01
    9.948064e+00    2.537476e+02    1.234687e+00    7.445989e+07    2.625385e-08    5.512650e-11    2.386404e-08    1.933587e-01
    9.710158e+00    2.502895e+02    1.296877e+00    7.618021e+07    2.630892e-08    5.700595e-11    2.393749e-08    1.983587e-01
    9.480781e+00    2.467906e+02    1.360610e+00    7.787739e+07    2.636250e-08    5.894875e-11    2.400901e-08    2.033587e-01
    9.259683e+00    2.432587e+02    1.425868e+00    7.955201e+07    2.641462e-08    6.095705e-11    2.407867e-08    2.083587e-01
