# sky130 nfet_01v8 gm/ID Processed Lookup Table
# Corner: ff
# Temperature: 0C
# W = 2.0 um
# L = 1.44 um (1440 nm)
# Columns: gm/id [1/V]  gm/gds [V/V]  id/W [A/m]  ft [Hz]  Cgg/W [F/m]  Cgd/W [F/m]  Cgs/W [F/m]  Vov [V]
#         gm/id          gm/gds            id/W              ft           Cgg/W           Cgd/W           Cgs/W             Vov
    3.036100e+01    1.552980e+02    1.091017e-08    1.709051e+01    3.084700e-09    3.234752e-14    9.410555e-11   -5.802610e-01
    3.036064e+01    1.552962e+02    1.269871e-08    1.994147e+01    3.077040e-09    3.362372e-14    9.762705e-11   -5.752610e-01
    3.036026e+01    1.552942e+02    1.478040e-08    2.326624e+01    3.069627e-09    3.495249e-14    1.013245e-10   -5.702610e-01
    3.035984e+01    1.552921e+02    1.720332e-08    2.714315e+01    3.062469e-09    3.633627e-14    1.052087e-10   -5.652610e-01
    3.035938e+01    1.552898e+02    2.002338e-08    3.166345e+01    3.055571e-09    3.777761e-14    1.092906e-10   -5.602610e-01
    3.035891e+01    1.552874e+02    2.330566e-08    3.693334e+01    3.048942e-09    3.927919e-14    1.135825e-10   -5.552610e-01
    3.035839e+01    1.552847e+02    2.712592e-08    4.307643e+01    3.042591e-09    4.084384e-14    1.180969e-10   -5.502610e-01
    3.035782e+01    1.552818e+02    3.157230e-08    5.023656e+01    3.036526e-09    4.247452e-14    1.228474e-10   -5.452610e-01
    3.035722e+01    1.552787e+02    3.674741e-08    5.858112e+01    3.030757e-09    4.417435e-14    1.278481e-10   -5.402610e-01
    3.035655e+01    1.552753e+02    4.277065e-08    6.830473e+01    3.025295e-09    4.594664e-14    1.331141e-10   -5.352610e-01
    3.035586e+01    1.552718e+02    4.978099e-08    7.963383e+01    3.020150e-09    4.779482e-14    1.386613e-10   -5.302610e-01
    3.035509e+01    1.552678e+02    5.794015e-08    9.283157e+01    3.015335e-09    4.972256e-14    1.445064e-10   -5.252610e-01
    3.035425e+01    1.552636e+02    6.743635e-08    1.082039e+02    3.010862e-09    5.173365e-14    1.506665e-10   -5.202610e-01
    3.035338e+01    1.552590e+02    7.848855e-08    1.261064e+02    3.006744e-09    5.383220e-14    1.571611e-10   -5.152610e-01
    3.035240e+01    1.552541e+02    9.135175e-08    1.469520e+02    3.002995e-09    5.602235e-14    1.640097e-10   -5.102610e-01
    3.035136e+01    1.552488e+02    1.063225e-07    1.712204e+02    2.999632e-09    5.830860e-14    1.712332e-10   -5.052610e-01
    3.035024e+01    1.552431e+02    1.237460e-07    1.994686e+02    2.996669e-09    6.069565e-14    1.788532e-10   -5.002610e-01
    3.034904e+01    1.552369e+02    1.440239e-07    2.323431e+02    2.994124e-09    6.318840e-14    1.868927e-10   -4.952610e-01
    3.034775e+01    1.552303e+02    1.676237e-07    2.705939e+02    2.992016e-09    6.579210e-14    1.953758e-10   -4.902610e-01
    3.034634e+01    1.552231e+02    1.950891e-07    3.150909e+02    2.990361e-09    6.851215e-14    2.043277e-10   -4.852610e-01
    3.034483e+01    1.552154e+02    2.270532e-07    3.668430e+02    2.989181e-09    7.135430e-14    2.137748e-10   -4.802610e-01
    3.034320e+01    1.552070e+02    2.642523e-07    4.270195e+02    2.988495e-09    7.432465e-14    2.237447e-10   -4.752610e-01
    3.034143e+01    1.551980e+02    3.075433e-07    4.969749e+02    2.988327e-09    7.742945e-14    2.342664e-10   -4.702610e-01
    3.033954e+01    1.551884e+02    3.579232e-07    5.782785e+02    2.988697e-09    8.067535e-14    2.453699e-10   -4.652610e-01
    3.033749e+01    1.551780e+02    4.165519e-07    6.727462e+02    2.989632e-09    8.406945e-14    2.570866e-10   -4.602610e-01
    3.033528e+01    1.551667e+02    4.847789e-07    7.824796e+02    2.991155e-09    8.761900e-14    2.694493e-10   -4.552610e-01
    3.033290e+01    1.551546e+02    5.641745e-07    9.099102e+02    2.993292e-09    9.133180e-14    2.824919e-10   -4.502610e-01
    3.033035e+01    1.551415e+02    6.565650e-07    1.057848e+03    2.996071e-09    9.521590e-14    2.962497e-10   -4.452610e-01
    3.032759e+01    1.551275e+02    7.640755e-07    1.229540e+03    2.999519e-09    9.927985e-14    3.107590e-10   -4.402610e-01
    3.032460e+01    1.551123e+02    8.891780e-07    1.428737e+03    3.003666e-09    1.035325e-13    3.260577e-10   -4.352610e-01
    3.032140e+01    1.550960e+02    1.034747e-06    1.659768e+03    3.008543e-09    1.079833e-13    3.421847e-10   -4.302610e-01
    3.031793e+01    1.550784e+02    1.204128e-06    1.927629e+03    3.014178e-09    1.126419e-13    3.591801e-10   -4.252610e-01
    3.031420e+01    1.550594e+02    1.401210e-06    2.238078e+03    3.020607e-09    1.175187e-13    3.770850e-10   -4.202610e-01
    3.031018e+01    1.550389e+02    1.630517e-06    2.597755e+03    3.027861e-09    1.226245e-13    3.959417e-10   -4.152610e-01
    3.030585e+01    1.550169e+02    1.897311e-06    3.014304e+03    3.035973e-09    1.279705e-13    4.157935e-10   -4.102610e-01
    3.030119e+01    1.549932e+02    2.207708e-06    3.496531e+03    3.044978e-09    1.335684e-13    4.366846e-10   -4.052610e-01
    3.029615e+01    1.549676e+02    2.568825e-06    4.054555e+03    3.054913e-09    1.394307e-13    4.586597e-10   -4.002610e-01
    3.029072e+01    1.549401e+02    2.988932e-06    4.700025e+03    3.065813e-09    1.455702e-13    4.817647e-10   -3.952610e-01
    3.028488e+01    1.549104e+02    3.477645e-06    5.446319e+03    3.077713e-09    1.520005e-13    5.060455e-10   -3.902610e-01
    3.027859e+01    1.548785e+02    4.046143e-06    6.308803e+03    3.090651e-09    1.587355e-13    5.315490e-10   -3.852610e-01
    3.027181e+01    1.548442e+02    4.707422e-06    7.305111e+03    3.104665e-09    1.657901e-13    5.583220e-10   -3.802610e-01
    3.026450e+01    1.548072e+02    5.476585e-06    8.455474e+03    3.119791e-09    1.731795e-13    5.864110e-10   -3.752610e-01
    3.025663e+01    1.547674e+02    6.371180e-06    9.783072e+03    3.136067e-09    1.809196e-13    6.158635e-10   -3.702610e-01
    3.024816e+01    1.547246e+02    7.411605e-06    1.131447e+04    3.153531e-09    1.890273e-13    6.467260e-10   -3.652610e-01
    3.023906e+01    1.546785e+02    8.621550e-06    1.308009e+04    3.172218e-09    1.975197e-13    6.790450e-10   -3.602610e-01
    3.022923e+01    1.546290e+02    1.002855e-05    1.511472e+04    3.192165e-09    2.064150e-13    7.128650e-10   -3.552610e-01
    3.021866e+01    1.545757e+02    1.166457e-05    1.745814e+04    3.213409e-09    2.157320e-13    7.482310e-10   -3.502610e-01
    3.020729e+01    1.545184e+02    1.356674e-05    2.015584e+04    3.235984e-09    2.254901e-13    7.851860e-10   -3.452610e-01
    3.019504e+01    1.544569e+02    1.577817e-05    2.325975e+04    3.259924e-09    2.357097e-13    8.237725e-10   -3.402610e-01
    3.018187e+01    1.543908e+02    1.834891e-05    2.682913e+04    3.285262e-09    2.464119e-13    8.640300e-10   -3.352610e-01
    3.016770e+01    1.543198e+02    2.133704e-05    3.093160e+04    3.312029e-09    2.576184e-13    9.059970e-10   -3.302610e-01
    3.015247e+01    1.542436e+02    2.480997e-05    3.564428e+04    3.340254e-09    2.693520e-13    9.497085e-10   -3.252610e-01
    3.013610e+01    1.541619e+02    2.884589e-05    4.105496e+04    3.369965e-09    2.816361e-13    9.951990e-10   -3.202610e-01
    3.011851e+01    1.540741e+02    3.353549e-05    4.726371e+04    3.401187e-09    2.944949e-13    1.042498e-09   -3.152610e-01
    3.009958e+01    1.539800e+02    3.898396e-05    5.438430e+04    3.433943e-09    3.079538e-13    1.091633e-09   -3.102610e-01
    3.007928e+01    1.538793e+02    4.531319e-05    6.254628e+04    3.468252e-09    3.220386e-13    1.142629e-09   -3.052610e-01
    3.005746e+01    1.537712e+02    5.266445e-05    7.189673e+04    3.504135e-09    3.367762e-13    1.195504e-09   -3.002610e-01
    3.003405e+01    1.536556e+02    6.120140e-05    8.260297e+04    3.541602e-09    3.521944e-13    1.250276e-09   -2.952610e-01
    3.000894e+01    1.535320e+02    7.111355e-05    9.485482e+04    3.580666e-09    3.683219e-13    1.306956e-09   -2.902610e-01
    2.998199e+01    1.533998e+02    8.262040e-05    1.088677e+05    3.621335e-09    3.851882e-13    1.365551e-09   -2.852610e-01
    2.995312e+01    1.532585e+02    9.597570e-05    1.248861e+05    3.663612e-09    4.028237e-13    1.426064e-09   -2.802610e-01
    2.992218e+01    1.531078e+02    1.114732e-04    1.431868e+05    3.707496e-09    4.212599e-13    1.488494e-09   -2.752610e-01
    2.988904e+01    1.529470e+02    1.294524e-04    1.640837e+05    3.752984e-09    4.405289e-13    1.552833e-09   -2.702610e-01
    2.985359e+01    1.527757e+02    1.503056e-04    1.879319e+05    3.800068e-09    4.606641e-13    1.619068e-09   -2.652610e-01
    2.981565e+01    1.525933e+02    1.744860e-04    2.151331e+05    3.848733e-09    4.816997e-13    1.687181e-09   -2.602610e-01
    2.977511e+01    1.523994e+02    2.025168e-04    2.461417e+05    3.898966e-09    5.036705e-13    1.757148e-09   -2.552610e-01
    2.973182e+01    1.521936e+02    2.350014e-04    2.814709e+05    3.950741e-09    5.266130e-13    1.828941e-09   -2.502610e-01
    2.968559e+01    1.519751e+02    2.726357e-04    3.216996e+05    4.004036e-09    5.505645e-13    1.902524e-09   -2.452610e-01
    2.963632e+01    1.517438e+02    3.162213e-04    3.674820e+05    4.058817e-09    5.755620e-13    1.977858e-09   -2.402610e-01
    2.958381e+01    1.514993e+02    3.666816e-04    4.195544e+05    4.115051e-09    6.016450e-13    2.054897e-09   -2.352610e-01
    2.952792e+01    1.512410e+02    4.250789e-04    4.787466e+05    4.172697e-09    6.288540e-13    2.133587e-09   -2.302610e-01
    2.946850e+01    1.509690e+02    4.926344e-04    5.459926e+05    4.231712e-09    6.572295e-13    2.213873e-09   -2.252610e-01
    2.940537e+01    1.506829e+02    5.707515e-04    6.223424e+05    4.292047e-09    6.868135e-13    2.295692e-09   -2.202610e-01
    2.933843e+01    1.503827e+02    6.610400e-04    7.089755e+05    4.353650e-09    7.176485e-13    2.378977e-09   -2.152610e-01
    2.926747e+01    1.500685e+02    7.653485e-04    8.072161e+05    4.416465e-09    7.497795e-13    2.463655e-09   -2.102610e-01
    2.919242e+01    1.497406e+02    8.857925e-04    9.185494e+05    4.480430e-09    7.832510e-13    2.549650e-09   -2.052610e-01
    2.911312e+01    1.493992e+02    1.024796e-03    1.044639e+06    4.545482e-09    8.181085e-13    2.636880e-09   -2.002610e-01
    2.902948e+01    1.490451e+02    1.185129e-03    1.187347e+06    4.611554e-09    8.544005e-13    2.725259e-09   -1.952610e-01
    2.894138e+01    1.486791e+02    1.369959e-03    1.348756e+06    4.678575e-09    8.921740e-13    2.814699e-09   -1.902610e-01
    2.884879e+01    1.483022e+02    1.582899e-03    1.531193e+06    4.746471e-09    9.314790e-13    2.905106e-09   -1.852610e-01
    2.875164e+01    1.479159e+02    1.828070e-03    1.737257e+06    4.815168e-09    9.723660e-13    2.996386e-09   -1.802610e-01
    2.864991e+01    1.475220e+02    2.110166e-03    1.969845e+06    4.884587e-09    1.014886e-12    3.088442e-09   -1.752610e-01
    2.854364e+01    1.471227e+02    2.434526e-03    2.232190e+06    4.954648e-09    1.059091e-12    3.181172e-09   -1.702610e-01
    2.843285e+01    1.467204e+02    2.807222e-03    2.527888e+06    5.025270e-09    1.105038e-12    3.274475e-09   -1.652610e-01
    2.831762e+01    1.463180e+02    3.235143e-03    2.860944e+06    5.096370e-09    1.152778e-12    3.368249e-09   -1.602610e-01
    2.819810e+01    1.459192e+02    3.726108e-03    3.235816e+06    5.167870e-09    1.202369e-12    3.462389e-09   -1.552610e-01
    2.807442e+01    1.455278e+02    4.288973e-03    3.657460e+06    5.239680e-09    1.253870e-12    3.556794e-09   -1.502610e-01
    2.794683e+01    1.451484e+02    4.933763e-03    4.131391e+06    5.311715e-09    1.307338e-12    3.651357e-09   -1.452610e-01
    2.781556e+01    1.447859e+02    5.671815e-03    4.663730e+06    5.383895e-09    1.362834e-12    3.745978e-09   -1.402610e-01
    2.768086e+01    1.444457e+02    6.515940e-03    5.261279e+06    5.456140e-09    1.420419e-12    3.840552e-09   -1.352610e-01
    2.754308e+01    1.441342e+02    7.480600e-03    5.931608e+06    5.528365e-09    1.480157e-12    3.934982e-09   -1.302610e-01
    2.740257e+01    1.438577e+02    8.582095e-03    6.683111e+06    5.600490e-09    1.542111e-12    4.029166e-09   -1.252610e-01
    2.725967e+01    1.436232e+02    9.838810e-03    7.525119e+06    5.672440e-09    1.606347e-12    4.123009e-09   -1.202610e-01
    2.711475e+01    1.434381e+02    1.127144e-02    8.467997e+06    5.744130e-09    1.672934e-12    4.216418e-09   -1.152610e-01
    2.696818e+01    1.433101e+02    1.290326e-02    9.523240e+06    5.815490e-09    1.741939e-12    4.309300e-09   -1.102610e-01
    2.682029e+01    1.432470e+02    1.476045e-02    1.070359e+07    5.886450e-09    1.813435e-12    4.401570e-09   -1.052610e-01
    2.667133e+01    1.432566e+02    1.687242e-02    1.202317e+07    5.956940e-09    1.887492e-12    4.493141e-09   -1.002610e-01
    2.652156e+01    1.433466e+02    1.927219e-02    1.349761e+07    6.026890e-09    1.964186e-12    4.583933e-09   -9.526100e-02
    2.637105e+01    1.435243e+02    2.199675e-02    1.514413e+07    6.096235e-09    2.043592e-12    4.673871e-09   -9.026100e-02
    2.621988e+01    1.437968e+02    2.508757e-02    1.698173e+07    6.164920e-09    2.125789e-12    4.762880e-09   -8.526100e-02
    2.606788e+01    1.441700e+02    2.859101e-02    1.903120e+07    6.232885e-09    2.210856e-12    4.850894e-09   -8.026100e-02
    2.591482e+01    1.446491e+02    3.255886e-02    2.131532e+07    6.300075e-09    2.298876e-12    4.937848e-09   -7.526100e-02
    2.576022e+01    1.452376e+02    3.704887e-02    2.385875e+07    6.366445e-09    2.389932e-12    5.023680e-09   -7.026100e-02
    2.560350e+01    1.459381e+02    4.212529e-02    2.668825e+07    6.431945e-09    2.484111e-12    5.108340e-09   -6.526100e-02
    2.544388e+01    1.467510e+02    4.785943e-02    2.983251e+07    6.496525e-09    2.581502e-12    5.191775e-09   -6.026100e-02
    2.528040e+01    1.476749e+02    5.433020e-02    3.332199e+07    6.560160e-09    2.682195e-12    5.273940e-09   -5.526100e-02
    2.511194e+01    1.487063e+02    6.162475e-02    3.718895e+07    6.622800e-09    2.786286e-12    5.354790e-09   -5.026100e-02
    2.493730e+01    1.498393e+02    6.983880e-02    4.146700e+07    6.684420e-09    2.893869e-12    5.434290e-09   -4.526100e-02
    2.475518e+01    1.510659e+02    7.907715e-02    4.619084e+07    6.744990e-09    3.005044e-12    5.512410e-09   -4.026100e-02
    2.456417e+01    1.523755e+02    8.945420e-02    5.139582e+07    6.804485e-09    3.119913e-12    5.589115e-09   -3.526100e-02
    2.436297e+01    1.537554e+02    1.010938e-01    5.711741e+07    6.862880e-09    3.238580e-12    5.664385e-09   -3.026100e-02
    2.415023e+01    1.551906e+02    1.141299e-01    6.339050e+07    6.920165e-09    3.361154e-12    5.738205e-09   -2.526100e-02
    2.392474e+01    1.566643e+02    1.287059e-01    7.024899e+07    6.976310e-09    3.487745e-12    5.810550e-09   -2.026100e-02
    2.368546e+01    1.581580e+02    1.449750e-01    7.772461e+07    7.031315e-09    3.618467e-12    5.881410e-09   -1.526100e-02
    2.343151e+01    1.596517e+02    1.630995e-01    8.584656e+07    7.085165e-09    3.753439e-12    5.950780e-09   -1.026100e-02
    2.316225e+01    1.611247e+02    1.832500e-01    9.464051e+07    7.137855e-09    3.892781e-12    6.018650e-09   -5.261000e-03
    2.287731e+01    1.625555e+02    2.056050e-01    1.041279e+08    7.189380e-09    4.036620e-12    6.085020e-09   -2.610000e-04
    2.257658e+01    1.639227e+02    2.303495e-01    1.143255e+08    7.239735e-09    4.185082e-12    6.149885e-09    4.739000e-03
    2.226022e+01    1.652054e+02    2.576743e-01    1.252440e+08    7.288925e-09    4.338302e-12    6.213260e-09    9.739000e-03
    2.192868e+01    1.663835e+02    2.877738e-01    1.368888e+08    7.336955e-09    4.496418e-12    6.275145e-09    1.473900e-02
    2.158264e+01    1.674378e+02    3.208452e-01    1.492584e+08    7.383825e-09    4.659569e-12    6.335545e-09    1.973900e-02
    2.122301e+01    1.683512e+02    3.570867e-01    1.623449e+08    7.429545e-09    4.827902e-12    6.394480e-09    2.473900e-02
    2.085097e+01    1.691085e+02    3.966953e-01    1.761339e+08    7.474125e-09    5.001565e-12    6.451955e-09    2.973900e-02
    2.046778e+01    1.696964e+02    4.398658e-01    1.906045e+08    7.517575e-09    5.180720e-12    6.507995e-09    3.473900e-02
    2.007488e+01    1.701047e+02    4.867886e-01    2.057298e+08    7.559905e-09    5.365525e-12    6.562605e-09    3.973900e-02
    1.967377e+01    1.703246e+02    5.376485e-01    2.214767e+08    7.601130e-09    5.556140e-12    6.615815e-09    4.473900e-02
    1.926608e+01    1.703510e+02    5.926220e-01    2.378077e+08    7.641265e-09    5.752745e-12    6.667640e-09    4.973900e-02
    1.885334e+01    1.701806e+02    6.518780e-01    2.546802e+08    7.680325e-09    5.955510e-12    6.718105e-09    5.473900e-02
    1.843721e+01    1.698131e+02    7.155735e-01    2.720486e+08    7.718325e-09    6.164620e-12    6.767230e-09    5.973900e-02
    1.801920e+01    1.692502e+02    7.838565e-01    2.898639e+08    7.755290e-09    6.380265e-12    6.815040e-09    6.473900e-02
    1.760081e+01    1.684958e+02    8.568610e-01    3.080753e+08    7.791235e-09    6.602640e-12    6.861560e-09    6.973900e-02
    1.718346e+01    1.675556e+02    9.347095e-01    3.266313e+08    7.826175e-09    6.831945e-12    6.906815e-09    7.473900e-02
    1.676846e+01    1.664371e+02    1.017510e+00    3.454794e+08    7.860135e-09    7.068390e-12    6.950830e-09    7.973900e-02
    1.635702e+01    1.651493e+02    1.105360e+00    3.645681e+08    7.893135e-09    7.312195e-12    6.993635e-09    8.473900e-02
    1.595026e+01    1.637021e+02    1.198340e+00    3.838469e+08    7.925195e-09    7.563575e-12    7.035255e-09    8.973900e-02
    1.554916e+01    1.621065e+02    1.296519e+00    4.032669e+08    7.956340e-09    7.822765e-12    7.075720e-09    9.473900e-02
    1.515457e+01    1.603741e+02    1.399955e+00    4.227820e+08    7.986585e-09    8.090010e-12    7.115055e-09    9.973900e-02
    1.476726e+01    1.585169e+02    1.508689e+00    4.423484e+08    8.015955e-09    8.365545e-12    7.153285e-09    1.047390e-01
    1.438787e+01    1.565470e+02    1.622755e+00    4.619257e+08    8.044470e-09    8.649635e-12    7.190445e-09    1.097390e-01
    1.401692e+01    1.544766e+02    1.742174e+00    4.814763e+08    8.072155e-09    8.942540e-12    7.226555e-09    1.147390e-01
    1.365487e+01    1.523178e+02    1.866957e+00    5.009666e+08    8.099030e-09    9.244535e-12    7.261650e-09    1.197390e-01
    1.330204e+01    1.500823e+02    1.997103e+00    5.203666e+08    8.125115e-09    9.555905e-12    7.295755e-09    1.247390e-01
    1.295870e+01    1.477814e+02    2.132608e+00    5.396494e+08    8.150435e-09    9.876945e-12    7.328900e-09    1.297390e-01
    1.262501e+01    1.454260e+02    2.273455e+00    5.587918e+08    8.175010e-09    1.020795e-11    7.361105e-09    1.347390e-01
    1.230110e+01    1.430263e+02    2.419623e+00    5.777740e+08    8.198865e-09    1.054925e-11    7.392400e-09    1.397390e-01
    1.198699e+01    1.405918e+02    2.571086e+00    5.965799e+08    8.222010e-09    1.090116e-11    7.422815e-09    1.447390e-01
    1.168268e+01    1.381315e+02    2.727808e+00    6.151953e+08    8.244480e-09    1.126401e-11    7.452375e-09    1.497390e-01
    1.138811e+01    1.356538e+02    2.889754e+00    6.336101e+08    8.266285e-09    1.163817e-11    7.481100e-09    1.547390e-01
    1.110317e+01    1.331660e+02    3.056882e+00    6.518162e+08    8.287445e-09    1.202399e-11    7.509025e-09    1.597390e-01
    1.082773e+01    1.306753e+02    3.229150e+00    6.698071e+08    8.307990e-09    1.242184e-11    7.536165e-09    1.647390e-01
    1.056162e+01    1.281876e+02    3.406510e+00    6.875799e+08    8.327930e-09    1.283211e-11    7.562545e-09    1.697390e-01
    1.030464e+01    1.257087e+02    3.588916e+00    7.051324e+08    8.347290e-09    1.325522e-11    7.588195e-09    1.747390e-01
