# sky130 nfet_01v8 gm/ID Processed Lookup Table
# Corner: ff
# Temperature: 0C
# W = 2.0 um
# L = 5.22 um (5220 nm)
# Columns: gm/id [1/V]  gm/gds [V/V]  id/W [A/m]  ft [Hz]  Cgg/W [F/m]  Cgd/W [F/m]  Cgs/W [F/m]  Vov [V]
#         gm/id          gm/gds            id/W              ft           Cgg/W           Cgd/W           Cgs/W             Vov
    2.915189e+01    2.345827e+02    1.117733e-08    4.564192e+00    1.136217e-08    1.960512e-13    5.040090e-10   -5.447656e-01
    2.915128e+01    2.345777e+02    1.293124e-08    5.289466e+00    1.134242e-08    2.036872e-13    5.247195e-10   -5.397656e-01
    2.915063e+01    2.345725e+02    1.496031e-08    6.129330e+00    1.132389e-08    2.116426e-13    5.465135e-10   -5.347656e-01
    2.914991e+01    2.345667e+02    1.730771e-08    7.101749e+00    1.130659e-08    2.199324e-13    5.694530e-10   -5.297656e-01
    2.914915e+01    2.345607e+02    2.002336e-08    8.227483e+00    1.129058e-08    2.285721e-13    5.936020e-10   -5.247656e-01
    2.914833e+01    2.345540e+02    2.316502e-08    9.530489e+00    1.127590e-08    2.375783e-13    6.190275e-10   -5.197656e-01
    2.914744e+01    2.345469e+02    2.679949e-08    1.103845e+01    1.126261e-08    2.469680e-13    6.458000e-10   -5.147656e-01
    2.914649e+01    2.345393e+02    3.100404e-08    1.278330e+01    1.125076e-08    2.567596e-13    6.739955e-10   -5.097656e-01
    2.914546e+01    2.345310e+02    3.586807e-08    1.480190e+01    1.124040e-08    2.669719e-13    7.036910e-10   -5.047656e-01
    2.914436e+01    2.345222e+02    4.149496e-08    1.713675e+01    1.123160e-08    2.776249e-13    7.349695e-10   -4.997656e-01
    2.914317e+01    2.345126e+02    4.800432e-08    1.983690e+01    1.122441e-08    2.887395e-13    7.679150e-10   -4.947656e-01
    2.914190e+01    2.345024e+02    5.553445e-08    2.295883e+01    1.121891e-08    3.003378e-13    8.026175e-10   -4.897656e-01
    2.914054e+01    2.344914e+02    6.424535e-08    2.656770e+01    1.121516e-08    3.124427e-13    8.391690e-10   -4.847656e-01
    2.913905e+01    2.344796e+02    7.432215e-08    3.073852e+01    1.121324e-08    3.250784e-13    8.776660e-10   -4.797656e-01
    2.913748e+01    2.344669e+02    8.597875e-08    3.555768e+01    1.121321e-08    3.382703e-13    9.182100e-10   -4.747656e-01
    2.913578e+01    2.344533e+02    9.946275e-08    4.112463e+01    1.121515e-08    3.520450e-13    9.609045e-10   -4.697656e-01
    2.913396e+01    2.344387e+02    1.150605e-07    4.755381e+01    1.121916e-08    3.664304e-13    1.005859e-09   -4.647656e-01
    2.913199e+01    2.344229e+02    1.331029e-07    5.497683e+01    1.122530e-08    3.814555e-13    1.053184e-09   -4.597656e-01
    2.912988e+01    2.344060e+02    1.539730e-07    6.354499e+01    1.123368e-08    3.971513e-13    1.102997e-09   -4.547656e-01
    2.912760e+01    2.343878e+02    1.781135e-07    7.343219e+01    1.124438e-08    4.135495e-13    1.155417e-09   -4.497656e-01
    2.912516e+01    2.343682e+02    2.060364e-07    8.483811e+01    1.125749e-08    4.306839e-13    1.210569e-09   -4.447656e-01
    2.912255e+01    2.343473e+02    2.383339e-07    9.799217e+01    1.127311e-08    4.485895e-13    1.268580e-09   -4.397656e-01
    2.911974e+01    2.343248e+02    2.756904e-07    1.131575e+02    1.129135e-08    4.673032e-13    1.329581e-09   -4.347656e-01
    2.911670e+01    2.343006e+02    3.188974e-07    1.306358e+02    1.131230e-08    4.868636e-13    1.393705e-09   -4.297656e-01
    2.911345e+01    2.342746e+02    3.688703e-07    1.507735e+02    1.133607e-08    5.073110e-13    1.461089e-09   -4.247656e-01
    2.910996e+01    2.342468e+02    4.266669e-07    1.739668e+02    1.136277e-08    5.286870e-13    1.531875e-09   -4.197656e-01
    2.910620e+01    2.342167e+02    4.935105e-07    2.006701e+02    1.139251e-08    5.510360e-13    1.606205e-09   -4.147656e-01
    2.910216e+01    2.341845e+02    5.708150e-07    2.314032e+02    1.142540e-08    5.744040e-13    1.684224e-09   -4.097656e-01
    2.909782e+01    2.341499e+02    6.602150e-07    2.667610e+02    1.146156e-08    5.988385e-13    1.766079e-09   -4.047656e-01
    2.909317e+01    2.341128e+02    7.635990e-07    3.074237e+02    1.150110e-08    6.243905e-13    1.851919e-09   -3.997656e-01
    2.908817e+01    2.340730e+02    8.831510e-07    3.541686e+02    1.154414e-08    6.511115e-13    1.941894e-09   -3.947656e-01
    2.908280e+01    2.340303e+02    1.021394e-06    4.078839e+02    1.159079e-08    6.790560e-13    2.036155e-09   -3.897656e-01
    2.907702e+01    2.339844e+02    1.181244e-06    4.695834e+02    1.164118e-08    7.082815e-13    2.134854e-09   -3.847656e-01
    2.907082e+01    2.339352e+02    1.366070e-06    5.404237e+02    1.169543e-08    7.388460e-13    2.238139e-09   -3.797656e-01
    2.906416e+01    2.338824e+02    1.579765e-06    6.217241e+02    1.175365e-08    7.708125e-13    2.346162e-09   -3.747656e-01
    2.905701e+01    2.338258e+02    1.826824e-06    7.149887e+02    1.181595e-08    8.042445e-13    2.459070e-09   -3.697656e-01
    2.904935e+01    2.337652e+02    2.112443e-06    8.219304e+02    1.188247e-08    8.392085e-13    2.577011e-09   -3.647656e-01
    2.904111e+01    2.337000e+02    2.442620e-06    9.444989e+02    1.195330e-08    8.757740e-13    2.700126e-09   -3.597656e-01
    2.903227e+01    2.336303e+02    2.824284e-06    1.084915e+03    1.202857e-08    9.140135e-13    2.828557e-09   -3.547656e-01
    2.902279e+01    2.335556e+02    3.265435e-06    1.245703e+03    1.210838e-08    9.540020e-13    2.962437e-09   -3.497656e-01
    2.901262e+01    2.334756e+02    3.775308e-06    1.429733e+03    1.219283e-08    9.958170e-13    3.101899e-09   -3.447656e-01
    2.900169e+01    2.333899e+02    4.364563e-06    1.640266e+03    1.228203e-08    1.039539e-12    3.247064e-09   -3.397656e-01
    2.898998e+01    2.332980e+02    5.045505e-06    1.881005e+03    1.237607e-08    1.085251e-12    3.398054e-09   -3.347656e-01
    2.897744e+01    2.332000e+02    5.832330e-06    2.156157e+03    1.247504e-08    1.133043e-12    3.554975e-09   -3.297656e-01
    2.896399e+01    2.330950e+02    6.741420e-06    2.470488e+03    1.257903e-08    1.183000e-12    3.717930e-09   -3.247656e-01
    2.894958e+01    2.329828e+02    7.791665e-06    2.829409e+03    1.268811e-08    1.235220e-12    3.887013e-09   -3.197656e-01
    2.893413e+01    2.328629e+02    9.004860e-06    3.239051e+03    1.280235e-08    1.289796e-12    4.062303e-09   -3.147656e-01
    2.891758e+01    2.327348e+02    1.040612e-05    3.706360e+03    1.292181e-08    1.346828e-12    4.243873e-09   -3.097656e-01
    2.889987e+01    2.325981e+02    1.202441e-05    4.239201e+03    1.304655e-08    1.406421e-12    4.431782e-09   -3.047656e-01
    2.888090e+01    2.324522e+02    1.389308e-05    4.846477e+03    1.317660e-08    1.468680e-12    4.626077e-09   -2.997656e-01
    2.886062e+01    2.322967e+02    1.605058e-05    5.538261e+03    1.331200e-08    1.533714e-12    4.826790e-09   -2.947656e-01
    2.883891e+01    2.321309e+02    1.854119e-05    6.325939e+03    1.345276e-08    1.601638e-12    5.033940e-09   -2.897656e-01
    2.881572e+01    2.319547e+02    2.141586e-05    7.222398e+03    1.359890e-08    1.672569e-12    5.247535e-09   -2.847656e-01
    2.879092e+01    2.317670e+02    2.473327e-05    8.242166e+03    1.375042e-08    1.746628e-12    5.467565e-09   -2.797656e-01
    2.876444e+01    2.315676e+02    2.856089e-05    9.401679e+03    1.390729e-08    1.823938e-12    5.693995e-09   -2.747656e-01
    2.873617e+01    2.313559e+02    3.297635e-05    1.071947e+04    1.406949e-08    1.904630e-12    5.926790e-09   -2.697656e-01
    2.870601e+01    2.311314e+02    3.806887e-05    1.221645e+04    1.423699e-08    1.988833e-12    6.165885e-09   -2.647656e-01
    2.867386e+01    2.308936e+02    4.394098e-05    1.391620e+04    1.440971e-08    2.076685e-12    6.411205e-09   -2.597656e-01
    2.863959e+01    2.306419e+02    5.071045e-05    1.584530e+04    1.458761e-08    2.168325e-12    6.662660e-09   -2.547656e-01
    2.860310e+01    2.303758e+02    5.851245e-05    1.803366e+04    1.477058e-08    2.263899e-12    6.920135e-09   -2.497656e-01
    2.856428e+01    2.300951e+02    6.750210e-05    2.051499e+04    1.495855e-08    2.363552e-12    7.183495e-09   -2.447656e-01
    2.852300e+01    2.297995e+02    7.785735e-05    2.332718e+04    1.515139e-08    2.467439e-12    7.452605e-09   -2.397656e-01
    2.847916e+01    2.294887e+02    8.978200e-05    2.651286e+04    1.534900e-08    2.575716e-12    7.727290e-09   -2.347656e-01
    2.843262e+01    2.291624e+02    1.035097e-04    3.011991e+04    1.555122e-08    2.688543e-12    8.007380e-09   -2.297656e-01
    2.838329e+01    2.288207e+02    1.193078e-04    3.420213e+04    1.575790e-08    2.806086e-12    8.292670e-09   -2.247656e-01
    2.833104e+01    2.284637e+02    1.374821e-04    3.881986e+04    1.596889e-08    2.928514e-12    8.582950e-09   -2.197656e-01
    2.827578e+01    2.280917e+02    1.583823e-04    4.404081e+04    1.618401e-08    3.056002e-12    8.877995e-09   -2.147656e-01
    2.821740e+01    2.277051e+02    1.824080e-04    4.994086e+04    1.640306e-08    3.188728e-12    9.177555e-09   -2.097656e-01
    2.815581e+01    2.273047e+02    2.100153e-04    5.660500e+04    1.662587e-08    3.326876e-12    9.481380e-09   -2.047656e-01
    2.809091e+01    2.268913e+02    2.417245e-04    6.412837e+04    1.685219e-08    3.470635e-12    9.789195e-09   -1.997656e-01
    2.802264e+01    2.264665e+02    2.781286e-04    7.261738e+04    1.708183e-08    3.620197e-12    1.010073e-08   -1.947656e-01
    2.795095e+01    2.260318e+02    3.199035e-04    8.219103e+04    1.731455e-08    3.775761e-12    1.041567e-08   -1.897656e-01
    2.787579e+01    2.255892e+02    3.678177e-04    9.298222e+04    1.755012e-08    3.937532e-12    1.073373e-08   -1.847656e-01
    2.779714e+01    2.251414e+02    4.227460e-04    1.051394e+05    1.778828e-08    4.105716e-12    1.105460e-08   -1.797656e-01
    2.771500e+01    2.246910e+02    4.856816e-04    1.188283e+05    1.802880e-08    4.280529e-12    1.137795e-08   -1.747656e-01
    2.762941e+01    2.242419e+02    5.577525e-04    1.342336e+05    1.827141e-08    4.462189e-12    1.170348e-08   -1.697656e-01
    2.754040e+01    2.237983e+02    6.402390e-04    1.515615e+05    1.851585e-08    4.650925e-12    1.203083e-08   -1.647656e-01
    2.744808e+01    2.233648e+02    7.345910e-04    1.710417e+05    1.876186e-08    4.846964e-12    1.235969e-08   -1.597656e-01
    2.735255e+01    2.229471e+02    8.424525e-04    1.929303e+05    1.900916e-08    5.050545e-12    1.268971e-08   -1.547656e-01
    2.725397e+01    2.225514e+02    9.656820e-04    2.175124e+05    1.925751e-08    5.261915e-12    1.302057e-08   -1.497656e-01
    2.715253e+01    2.221850e+02    1.106384e-03    2.451061e+05    1.950662e-08    5.481315e-12    1.335193e-08   -1.447656e-01
    2.704843e+01    2.218558e+02    1.266935e-03    2.760656e+05    1.975623e-08    5.709010e-12    1.368345e-08   -1.397656e-01
    2.694195e+01    2.215728e+02    1.450020e-03    3.107857e+05    2.000608e-08    5.945260e-12    1.401482e-08   -1.347656e-01
    2.683336e+01    2.213457e+02    1.658670e-03    3.497064e+05    2.025590e-08    6.190335e-12    1.434570e-08   -1.297656e-01
    2.672296e+01    2.211852e+02    1.896305e-03    3.933180e+05    2.050545e-08    6.444515e-12    1.467577e-08   -1.247656e-01
    2.661108e+01    2.211029e+02    2.166782e-03    4.421672e+05    2.075445e-08    6.708080e-12    1.500473e-08   -1.197656e-01
    2.649804e+01    2.211110e+02    2.474446e-03    4.968635e+05    2.100268e-08    6.981330e-12    1.533227e-08   -1.147656e-01
    2.638420e+01    2.212230e+02    2.824192e-03    5.580870e+05    2.124988e-08    7.264560e-12    1.565810e-08   -1.097656e-01
    2.626986e+01    2.214525e+02    3.221534e-03    6.265945e+05    2.149582e-08    7.558080e-12    1.598192e-08   -1.047656e-01
    2.615530e+01    2.218137e+02    3.672676e-03    7.032298e+05    2.174028e-08    7.862210e-12    1.630347e-08   -9.976560e-02
    2.604077e+01    2.223217e+02    4.184598e-03    7.889323e+05    2.198305e-08    8.177275e-12    1.662248e-08   -9.476560e-02
    2.592641e+01    2.229909e+02    4.765148e-03    8.847458e+05    2.222391e-08    8.503610e-12    1.693870e-08   -8.976560e-02
    2.581233e+01    2.238365e+02    5.423140e-03    9.918293e+05    2.246266e-08    8.841565e-12    1.725189e-08   -8.476560e-02
    2.569844e+01    2.248727e+02    6.168480e-03    1.111465e+06    2.269913e-08    9.191495e-12    1.756182e-08   -7.976560e-02
    2.558460e+01    2.261129e+02    7.012260e-03    1.245070e+06    2.293313e-08    9.553760e-12    1.786830e-08   -7.476560e-02
    2.547050e+01    2.275701e+02    7.966920e-03    1.394201e+06    2.316449e-08    9.928745e-12    1.817110e-08   -6.976560e-02
    2.535561e+01    2.292553e+02    9.046370e-03    1.560565e+06    2.339305e-08    1.031683e-11    1.847004e-08   -6.476560e-02
    2.523930e+01    2.311780e+02    1.026615e-02    1.746020e+06    2.361868e-08    1.071842e-11    1.876497e-08   -5.976560e-02
    2.512070e+01    2.333452e+02    1.164356e-02    1.952580e+06    2.384124e-08    1.113393e-11    1.905571e-08   -5.476560e-02
    2.499882e+01    2.357618e+02    1.319784e-02    2.182409e+06    2.406060e-08    1.156377e-11    1.934212e-08   -4.976560e-02
    2.487246e+01    2.384292e+02    1.495033e-02    2.437816e+06    2.427665e-08    1.200840e-11    1.962409e-08   -4.476560e-02
    2.474031e+01    2.413461e+02    1.692460e-02    2.721244e+06    2.448929e-08    1.246826e-11    1.990147e-08   -3.976560e-02
    2.460094e+01    2.445071e+02    1.914659e-02    3.035245e+06    2.469844e-08    1.294381e-11    2.017420e-08   -3.476560e-02
    2.445286e+01    2.479035e+02    2.164475e-02    3.382464e+06    2.490400e-08    1.343553e-11    2.044215e-08   -2.976560e-02
    2.429454e+01    2.515224e+02    2.445015e-02    3.765600e+06    2.510592e-08    1.394393e-11    2.070527e-08   -2.476560e-02
    2.412449e+01    2.553473e+02    2.759650e-02    4.187367e+06    2.530412e-08    1.446950e-11    2.096349e-08   -1.976560e-02
    2.394128e+01    2.593576e+02    3.112026e-02    4.650451e+06    2.549857e-08    1.501279e-11    2.121676e-08   -1.476560e-02
    2.374365e+01    2.635293e+02    3.506059e-02    5.157463e+06    2.568921e-08    1.557432e-11    2.146503e-08   -9.765600e-03
    2.353046e+01    2.678348e+02    3.945930e-02    5.710871e+06    2.587603e-08    1.615468e-11    2.170828e-08   -4.765600e-03
    2.330081e+01    2.722433e+02    4.436074e-02    6.312949e+06    2.605899e-08    1.675444e-11    2.194650e-08    2.344000e-04
    2.305406e+01    2.767218e+02    4.981166e-02    6.965728e+06    2.623808e-08    1.737419e-11    2.217966e-08    5.234400e-03
    2.278984e+01    2.812351e+02    5.586100e-02    7.670918e+06    2.641330e-08    1.801456e-11    2.240779e-08    1.023440e-02
    2.250806e+01    2.857465e+02    6.255950e-02    8.429865e+06    2.658464e-08    1.867621e-11    2.263088e-08    1.523440e-02
    2.220892e+01    2.902186e+02    6.995960e-02    9.243505e+06    2.675213e-08    1.935977e-11    2.284895e-08    2.023440e-02
    2.189293e+01    2.946139e+02    7.811480e-02    1.011232e+07    2.691575e-08    2.006595e-11    2.306203e-08    2.523440e-02
    2.156083e+01    2.988954e+02    8.707940e-02    1.103631e+07    2.707555e-08    2.079545e-11    2.327016e-08    3.023440e-02
    2.121360e+01    3.030270e+02    9.690805e-02    1.201495e+07    2.723154e-08    2.154902e-11    2.347338e-08    3.523440e-02
    2.085246e+01    3.069751e+02    1.076552e-01    1.304726e+07    2.738376e-08    2.232741e-11    2.367173e-08    4.023440e-02
    2.047878e+01    3.107081e+02    1.193746e-01    1.413170e+07    2.753224e-08    2.313140e-11    2.386528e-08    4.523440e-02
    2.009404e+01    3.141968e+02    1.321190e-01    1.526627e+07    2.767704e-08    2.396181e-11    2.405407e-08    5.023440e-02
    1.969988e+01    3.174156e+02    1.459393e-01    1.644854e+07    2.781818e-08    2.481949e-11    2.423818e-08    5.523440e-02
    1.929794e+01    3.203424e+02    1.608847e-01    1.767565e+07    2.795572e-08    2.570531e-11    2.441767e-08    6.023440e-02
    1.888990e+01    3.229587e+02    1.770019e-01    1.894437e+07    2.808971e-08    2.662017e-11    2.459262e-08    6.523440e-02
    1.847744e+01    3.252499e+02    1.943343e-01    2.025121e+07    2.822022e-08    2.756501e-11    2.476309e-08    7.023440e-02
    1.806218e+01    3.272047e+02    2.129228e-01    2.159241e+07    2.834729e-08    2.854080e-11    2.492917e-08    7.523440e-02
    1.764573e+01    3.288165e+02    2.328047e-01    2.296407e+07    2.847098e-08    2.954854e-11    2.509094e-08    8.023440e-02
    1.722955e+01    3.300810e+02    2.540136e-01    2.436216e+07    2.859137e-08    3.058930e-11    2.524849e-08    8.523440e-02
    1.681505e+01    3.309984e+02    2.765795e-01    2.578264e+07    2.870852e-08    3.166412e-11    2.540189e-08    9.023440e-02
    1.640352e+01    3.315716e+02    3.005286e-01    2.722148e+07    2.882248e-08    3.277415e-11    2.555124e-08    9.523440e-02
    1.599613e+01    3.318059e+02    3.258836e-01    2.867470e+07    2.893334e-08    3.392054e-11    2.569663e-08    1.002344e-01
    1.559395e+01    3.317102e+02    3.526630e-01    3.013856e+07    2.904114e-08    3.510448e-11    2.583813e-08    1.052344e-01
    1.519791e+01    3.312943e+02    3.808821e-01    3.160936e+07    2.914598e-08    3.632725e-11    2.597585e-08    1.102344e-01
    1.480880e+01    3.305703e+02    4.105524e-01    3.308368e+07    2.924792e-08    3.759012e-11    2.610987e-08    1.152344e-01
    1.442737e+01    3.295526e+02    4.416822e-01    3.455838e+07    2.934701e-08    3.889444e-11    2.624029e-08    1.202344e-01
    1.405418e+01    3.282553e+02    4.742768e-01    3.603049e+07    2.944335e-08    4.024161e-11    2.636719e-08    1.252344e-01
    1.368972e+01    3.266945e+02    5.083385e-01    3.749742e+07    2.953699e-08    4.163306e-11    2.649066e-08    1.302344e-01
    1.333438e+01    3.248864e+02    5.438665e-01    3.895678e+07    2.962801e-08    4.307030e-11    2.661080e-08    1.352344e-01
    1.298848e+01    3.228474e+02    5.808580e-01    4.040649e+07    2.971647e-08    4.455488e-11    2.672768e-08    1.402344e-01
    1.265219e+01    3.205942e+02    6.193090e-01    4.184478e+07    2.980245e-08    4.608844e-11    2.684140e-08    1.452344e-01
    1.232569e+01    3.181437e+02    6.592120e-01    4.327015e+07    2.988601e-08    4.767262e-11    2.695206e-08    1.502344e-01
    1.200904e+01    3.155118e+02    7.005585e-01    4.468135e+07    2.996723e-08    4.930919e-11    2.705972e-08    1.552344e-01
    1.170227e+01    3.127144e+02    7.433385e-01    4.607738e+07    3.004616e-08    5.099995e-11    2.716448e-08    1.602344e-01
    1.140531e+01    3.097667e+02    7.875420e-01    4.745745e+07    3.012289e-08    5.274675e-11    2.726643e-08    1.652344e-01
    1.111811e+01    3.066834e+02    8.331560e-01    4.882105e+07    3.019745e-08    5.455155e-11    2.736563e-08    1.702344e-01
    1.084053e+01    3.034783e+02    8.801690e-01    5.016779e+07    3.026994e-08    5.641640e-11    2.746217e-08    1.752344e-01
    1.057242e+01    3.001644e+02    9.285665e-01    5.149749e+07    3.034042e-08    5.834340e-11    2.755614e-08    1.802344e-01
    1.031359e+01    2.967540e+02    9.783360e-01    5.281011e+07    3.040893e-08    6.033475e-11    2.764761e-08    1.852344e-01
    1.006384e+01    2.932585e+02    1.029464e+00    5.410576e+07    3.047555e-08    6.239265e-11    2.773665e-08    1.902344e-01
    9.822956e+00    2.896888e+02    1.081935e+00    5.538470e+07    3.054033e-08    6.451945e-11    2.782335e-08    1.952344e-01
    9.590675e+00    2.860543e+02    1.135737e+00    5.664719e+07    3.060334e-08    6.671770e-11    2.790776e-08    2.002344e-01
    9.366762e+00    2.823643e+02    1.190856e+00    5.789366e+07    3.066462e-08    6.898990e-11    2.798996e-08    2.052344e-01
    9.150954e+00    2.786269e+02    1.247277e+00    5.912459e+07    3.072425e-08    7.133865e-11    2.807004e-08    2.102344e-01
