# sky130 nfet_01v8 gm/ID Processed Lookup Table
# Corner: ff
# Temperature: 0C
# W = 2.0 um
# L = 0.72 um (720 nm)
# Columns: gm/id [1/V]  gm/gds [V/V]  id/W [A/m]  ft [Hz]  Cgg/W [F/m]  Cgd/W [F/m]  Cgs/W [F/m]  Vov [V]
#         gm/id          gm/gds            id/W              ft           Cgg/W           Cgd/W           Cgs/W             Vov
    3.092375e+01    1.757769e+02    1.016383e-08    3.312102e+01    1.510309e-09    1.988163e-15    3.363447e-11   -6.170232e-01
    3.092345e+01    1.757760e+02    1.186335e-08    3.877705e+01    1.505707e-09    2.089704e-15    3.478082e-11   -6.120232e-01
    3.092313e+01    1.757750e+02    1.384702e-08    4.539621e+01    1.501206e-09    2.193689e-15    3.597890e-11   -6.070232e-01
    3.092278e+01    1.757738e+02    1.616236e-08    5.314189e+01    1.496809e-09    2.299989e-15    3.723182e-11   -6.020232e-01
    3.092241e+01    1.757724e+02    1.886480e-08    6.220517e+01    1.492517e-09    2.408454e-15    3.854291e-11   -5.970232e-01
    3.092200e+01    1.757709e+02    2.201907e-08    7.280933e+01    1.488331e-09    2.518916e-15    3.991574e-11   -5.920232e-01
    3.092157e+01    1.757692e+02    2.570069e-08    8.521538e+01    1.484255e-09    2.631179e-15    4.135406e-11   -5.870232e-01
    3.092109e+01    1.757674e+02    2.999781e-08    9.972820e+01    1.480289e-09    2.745025e-15    4.286194e-11   -5.820232e-01
    3.092059e+01    1.757653e+02    3.501332e-08    1.167041e+02    1.476437e-09    2.860209e-15    4.444365e-11   -5.770232e-01
    3.092004e+01    1.757632e+02    4.086730e-08    1.365593e+02    1.472702e-09    2.976459e-15    4.610377e-11   -5.720232e-01
    3.091944e+01    1.757606e+02    4.769988e-08    1.597797e+02    1.469087e-09    3.093471e-15    4.784716e-11   -5.670232e-01
    3.091878e+01    1.757578e+02    5.567465e-08    1.869332e+02    1.465593e-09    3.210911e-15    4.967900e-11   -5.620232e-01
    3.091811e+01    1.757548e+02    6.498240e-08    2.186825e+02    1.462227e-09    3.328411e-15    5.160480e-11   -5.570232e-01
    3.091735e+01    1.757515e+02    7.584605e-08    2.558013e+02    1.458991e-09    3.445569e-15    5.363035e-11   -5.520232e-01
    3.091654e+01    1.757478e+02    8.852545e-08    2.991929e+02    1.455888e-09    3.561945e-15    5.576195e-11   -5.470232e-01
    3.091567e+01    1.757438e+02    1.033241e-07    3.499107e+02    1.452925e-09    3.677059e-15    5.800610e-11   -5.420232e-01
    3.091471e+01    1.757394e+02    1.205961e-07    4.091845e+02    1.450105e-09    3.790392e-15    6.036990e-11   -5.370232e-01
    3.091370e+01    1.757346e+02    1.407546e-07    4.784480e+02    1.447435e-09    3.901383e-15    6.286065e-11   -5.320232e-01
    3.091261e+01    1.757295e+02    1.642819e-07    5.593740e+02    1.444918e-09    4.009426e-15    6.548610e-11   -5.270232e-01
    3.091139e+01    1.757237e+02    1.917406e-07    6.539110e+02    1.442561e-09    4.113867e-15    6.825455e-11   -5.220232e-01
    3.091009e+01    1.757174e+02    2.237876e-07    7.643323e+02    1.440371e-09    4.214010e-15    7.117495e-11   -5.170232e-01
    3.090870e+01    1.757107e+02    2.611890e-07    8.932851e+02    1.438354e-09    4.309107e-15    7.425660e-11   -5.120232e-01
    3.090718e+01    1.757033e+02    3.048392e-07    1.043853e+03    1.436517e-09    4.398364e-15    7.750935e-11   -5.070232e-01
    3.090556e+01    1.756953e+02    3.557813e-07    1.219629e+03    1.434869e-09    4.480934e-15    8.094355e-11   -5.020232e-01
    3.090381e+01    1.756866e+02    4.152330e-07    1.424792e+03    1.433417e-09    4.555922e-15    8.457005e-11   -4.970232e-01
    3.090191e+01    1.756772e+02    4.846146e-07    1.664208e+03    1.432170e-09    4.622382e-15    8.840050e-11   -4.920232e-01
    3.089984e+01    1.756669e+02    5.655840e-07    1.943537e+03    1.431136e-09    4.679318e-15    9.244690e-11   -4.870232e-01
    3.089765e+01    1.756558e+02    6.600740e-07    2.269360e+03    1.430325e-09    4.725686e-15    9.672200e-11   -4.820232e-01
    3.089525e+01    1.756437e+02    7.703420e-07    2.649328e+03    1.429749e-09    4.760395e-15    1.012392e-10   -4.770232e-01
    3.089266e+01    1.756307e+02    8.990195e-07    3.092332e+03    1.429416e-09    4.782306e-15    1.060124e-10   -4.720232e-01
    3.088988e+01    1.756165e+02    1.049176e-06    3.608694e+03    1.429338e-09    4.790242e-15    1.110564e-10   -4.670232e-01
    3.088687e+01    1.756012e+02    1.224396e-06    4.210403e+03    1.429527e-09    4.782985e-15    1.163865e-10   -4.620232e-01
    3.088362e+01    1.755846e+02    1.428856e-06    4.911364e+03    1.429996e-09    4.759283e-15    1.220187e-10   -4.570232e-01
    3.088013e+01    1.755666e+02    1.667430e-06    5.727711e+03    1.430757e-09    4.717857e-15    1.279697e-10   -4.520232e-01
    3.087633e+01    1.755471e+02    1.945803e-06    6.678139e+03    1.431823e-09    4.657405e-15    1.342569e-10   -4.470232e-01
    3.087226e+01    1.755261e+02    2.270605e-06    7.784321e+03    1.433208e-09    4.576613e-15    1.408984e-10   -4.420232e-01
    3.086784e+01    1.755033e+02    2.649569e-06    9.071335e+03    1.434929e-09    4.474161e-15    1.479130e-10   -4.370232e-01
    3.086309e+01    1.754787e+02    3.091710e-06    1.056822e+04    1.436998e-09    4.348736e-15    1.553201e-10   -4.320232e-01
    3.085794e+01    1.754521e+02    3.607543e-06    1.230857e+04    1.439432e-09    4.199044e-15    1.631397e-10   -4.270232e-01
    3.085240e+01    1.754233e+02    4.209328e-06    1.433118e+04    1.442248e-09    4.023823e-15    1.713927e-10   -4.220232e-01
    3.084642e+01    1.753922e+02    4.911357e-06    1.668092e+04    1.445461e-09    3.821857e-15    1.801002e-10   -4.170232e-01
    3.083997e+01    1.753586e+02    5.730290e-06    1.940955e+04    1.449090e-09    3.591999e-15    1.892843e-10   -4.120232e-01
    3.083298e+01    1.753223e+02    6.685555e-06    2.257680e+04    1.453151e-09    3.333180e-15    1.989674e-10   -4.070232e-01
    3.082547e+01    1.752831e+02    7.799780e-06    2.625155e+04    1.457664e-09    3.044441e-15    2.091725e-10   -4.020232e-01
    3.081738e+01    1.752408e+02    9.099345e-06    3.051314e+04    1.462646e-09    2.724949e-15    2.199229e-10   -3.970232e-01
    3.080862e+01    1.751952e+02    1.061500e-05    3.545292e+04    1.468116e-09    2.374028e-15    2.312425e-10   -3.920232e-01
    3.079919e+01    1.751459e+02    1.238255e-05    4.117601e+04    1.474094e-09    1.991180e-15    2.431553e-10   -3.870232e-01
    3.078903e+01    1.750927e+02    1.444371e-05    4.780323e+04    1.480599e-09    1.576118e-15    2.556856e-10   -3.820232e-01
    3.077805e+01    1.750353e+02    1.684707e-05    5.547339e+04    1.487651e-09    1.128801e-15    2.688581e-10   -3.770232e-01
    3.076623e+01    1.749734e+02    1.964922e-05    6.434588e+04    1.495268e-09    6.494615e-16    2.826973e-10   -3.720232e-01
    3.075349e+01    1.749067e+02    2.291605e-05    7.460346e+04    1.503472e-09    1.386478e-16    2.972278e-10   -3.670232e-01
    3.073976e+01    1.748349e+02    2.672425e-05    8.645570e+04    1.512281e-09    4.027413e-16    3.124739e-10   -3.620232e-01
    3.072497e+01    1.747575e+02    3.116306e-05    1.001424e+05    1.521716e-09    9.734140e-16    3.284599e-10   -3.570232e-01
    3.070903e+01    1.746740e+02    3.633637e-05    1.159384e+05    1.531794e-09    1.571645e-15    3.452097e-10   -3.520232e-01
    3.069187e+01    1.745843e+02    4.236497e-05    1.341575e+05    1.542536e-09    2.195228e-15    3.627464e-10   -3.470232e-01
    3.067339e+01    1.744876e+02    4.938938e-05    1.551585e+05    1.553960e-09    2.841433e-15    3.810930e-10   -3.420232e-01
    3.065350e+01    1.743835e+02    5.757295e-05    1.793511e+05    1.566083e-09    3.506958e-15    4.002712e-10   -3.370232e-01
    3.063209e+01    1.742717e+02    6.710560e-05    2.072023e+05    1.578923e-09    4.187880e-15    4.203021e-10   -3.320232e-01
    3.060906e+01    1.741514e+02    7.820795e-05    2.392448e+05    1.592496e-09    4.879605e-15    4.412056e-10   -3.270232e-01
    3.058428e+01    1.740222e+02    9.113625e-05    2.760849e+05    1.606819e-09    5.576820e-15    4.630006e-10   -3.220232e-01
    3.055766e+01    1.738834e+02    1.061880e-04    3.184129e+05    1.621904e-09    6.273440e-15    4.857044e-10   -3.170232e-01
    3.052905e+01    1.737344e+02    1.237086e-04    3.670132e+05    1.637765e-09    6.962555e-15    5.093330e-10   -3.120232e-01
    3.049831e+01    1.735745e+02    1.440987e-04    4.227770e+05    1.654415e-09    7.636385e-15    5.339000e-10   -3.070232e-01
    3.046531e+01    1.734031e+02    1.678227e-04    4.867159e+05    1.671864e-09    8.286235e-15    5.594185e-10   -3.020232e-01
    3.042988e+01    1.732194e+02    1.954193e-04    5.599770e+05    1.690120e-09    8.902435e-15    5.858985e-10   -2.970232e-01
    3.039192e+01    1.730229e+02    2.275120e-04    6.438605e+05    1.709192e-09    9.474295e-15    6.133480e-10   -2.920232e-01
    3.035120e+01    1.728124e+02    2.648230e-04    7.398362e+05    1.729084e-09    9.990065e-15    6.417730e-10   -2.870232e-01
    3.030758e+01    1.725876e+02    3.081880e-04    8.495686e+05    1.749801e-09    1.043691e-14    6.711775e-10   -2.820232e-01
    3.026087e+01    1.723472e+02    3.585730e-04    9.749370e+05    1.771343e-09    1.080082e-14    7.015615e-10   -2.770232e-01
    3.021090e+01    1.720908e+02    4.170946e-04    1.118062e+06    1.793711e-09    1.106663e-14    7.329245e-10   -2.720232e-01
    3.015748e+01    1.718175e+02    4.850421e-04    1.281337e+06    1.816900e-09    1.121797e-14    7.652620e-10   -2.670232e-01
    3.010041e+01    1.715264e+02    5.639030e-04    1.467455e+06    1.840909e-09    1.123722e-14    7.985660e-10   -2.620232e-01
    3.003952e+01    1.712168e+02    6.553920e-04    1.679446e+06    1.865727e-09    1.110551e-14    8.328265e-10   -2.570232e-01
    2.997460e+01    1.708880e+02    7.614850e-04    1.920718e+06    1.891347e-09    1.080267e-14    8.680315e-10   -2.520232e-01
    2.990544e+01    1.705391e+02    8.844555e-04    2.195095e+06    1.917755e-09    1.030728e-14    9.041635e-10   -2.470232e-01
    2.983185e+01    1.701696e+02    1.026918e-03    2.506863e+06    1.944937e-09    9.596580e-15    9.412050e-10   -2.420232e-01
    2.975365e+01    1.697788e+02    1.191875e-03    2.860823e+06    1.972877e-09    8.646540e-15    9.791330e-10   -2.370232e-01
    2.967064e+01    1.693664e+02    1.382772e-03    3.262347e+06    2.001556e-09    7.431815e-15    1.017922e-09   -2.320232e-01
    2.958264e+01    1.689318e+02    1.603560e-03    3.717431e+06    2.030950e-09    5.925785e-15    1.057546e-09   -2.270232e-01
    2.948951e+01    1.684749e+02    1.858758e-03    4.232769e+06    2.061038e-09    4.100560e-15    1.097973e-09   -2.220232e-01
    2.939108e+01    1.679955e+02    2.153538e-03    4.815815e+06    2.091792e-09    1.926995e-15    1.139169e-09   -2.170232e-01
    2.928720e+01    1.674937e+02    2.493806e-03    5.474863e+06    2.123183e-09    6.252720e-16    1.181099e-09   -2.120232e-01
    2.917779e+01    1.669699e+02    2.886298e-03    6.219132e+06    2.155182e-09    3.587790e-15    1.223723e-09   -2.070232e-01
    2.906275e+01    1.664247e+02    3.338690e-03    7.058851e+06    2.187756e-09    6.993260e-15    1.267001e-09   -2.020232e-01
    2.894203e+01    1.658589e+02    3.859712e-03    8.005360e+06    2.220870e-09    1.087550e-14    1.310889e-09   -1.970232e-01
    2.881562e+01    1.652738e+02    4.459289e-03    9.071220e+06    2.254488e-09    1.526936e-14    1.355342e-09   -1.920232e-01
    2.868353e+01    1.646707e+02    5.148675e-03    1.027031e+07    2.288573e-09    2.021075e-14    1.400312e-09   -1.870232e-01
    2.854581e+01    1.640516e+02    5.940630e-03    1.161796e+07    2.323086e-09    2.573649e-14    1.445751e-09   -1.820232e-01
    2.840262e+01    1.634191e+02    6.849585e-03    1.313112e+07    2.357985e-09    3.188433e-14    1.491608e-09   -1.770232e-01
    2.825404e+01    1.627755e+02    7.891865e-03    1.482846e+07    2.393230e-09    3.869284e-14    1.537832e-09   -1.720232e-01
    2.810035e+01    1.621241e+02    9.085870e-03    1.673056e+07    2.428778e-09    4.620140e-14    1.584370e-09   -1.670232e-01
    2.794177e+01    1.614687e+02    1.045236e-02    1.886010e+07    2.464588e-09    5.445005e-14    1.631169e-09   -1.620232e-01
    2.777862e+01    1.608133e+02    1.201470e-02    2.124207e+07    2.500613e-09    6.347960e-14    1.678176e-09   -1.570232e-01
    2.761125e+01    1.601623e+02    1.379915e-02    2.390396e+07    2.536813e-09    7.333140e-14    1.725336e-09   -1.520232e-01
    2.744005e+01    1.595208e+02    1.583522e-02    2.687604e+07    2.573142e-09    8.404725e-14    1.772596e-09   -1.470232e-01
    2.726546e+01    1.588939e+02    1.815601e-02    3.019162e+07    2.609557e-09    9.566960e-14    1.819901e-09   -1.420232e-01
    2.708794e+01    1.582872e+02    2.079861e-02    3.388739e+07    2.646015e-09    1.082413e-13    1.867199e-09   -1.370232e-01
    2.690794e+01    1.577064e+02    2.380455e-02    3.800365e+07    2.682473e-09    1.218054e-13    1.914438e-09   -1.320232e-01
    2.672594e+01    1.571572e+02    2.722028e-02    4.258478e+07    2.718887e-09    1.364054e-13    1.961564e-09   -1.270232e-01
    2.654239e+01    1.566456e+02    3.109769e-02    4.767956e+07    2.755219e-09    1.520854e-13    2.008530e-09   -1.220232e-01
    2.635770e+01    1.561771e+02    3.549473e-02    5.334153e+07    2.791426e-09    1.688892e-13    2.055284e-09   -1.170232e-01
    2.617222e+01    1.557568e+02    4.047601e-02    5.962941e+07    2.827469e-09    1.868612e-13    2.101780e-09   -1.120232e-01
    2.598623e+01    1.553894e+02    4.611350e-02    6.660749e+07    2.863310e-09    2.060459e-13    2.147972e-09   -1.070232e-01
    2.579992e+01    1.550789e+02    5.248730e-02    7.434594e+07    2.898915e-09    2.264879e-13    2.193815e-09   -1.020232e-01
    2.561334e+01    1.548281e+02    5.968640e-02    8.292115e+07    2.934245e-09    2.482321e-13    2.239267e-09   -9.702320e-02
    2.542643e+01    1.546390e+02    6.780960e-02    9.241600e+07    2.969269e-09    2.713235e-13    2.284289e-09   -9.202320e-02
    2.523897e+01    1.545120e+02    7.696630e-02    1.029198e+08    3.003954e-09    2.958072e-13    2.328843e-09   -8.702320e-02
    2.505062e+01    1.544463e+02    8.727745e-02    1.145286e+08    3.038272e-09    3.217285e-13    2.372892e-09   -8.202320e-02
    2.486086e+01    1.544391e+02    9.887650e-02    1.273447e+08    3.072192e-09    3.491330e-13    2.416403e-09   -7.702320e-02
    2.466905e+01    1.544864e+02    1.119103e-01    1.414765e+08    3.105690e-09    3.780662e-13    2.459345e-09   -7.202320e-02
    2.447440e+01    1.545821e+02    1.265399e-01    1.570377e+08    3.138741e-09    4.085742e-13    2.501690e-09   -6.702320e-02
    2.427601e+01    1.547185e+02    1.429414e-01    1.741468e+08    3.171320e-09    4.407029e-13    2.543411e-09   -6.202320e-02
    2.407292e+01    1.548863e+02    1.613071e-01    1.929255e+08    3.203411e-09    4.744988e-13    2.584484e-09   -5.702320e-02
    2.386411e+01    1.550745e+02    1.818451e-01    2.134980e+08    3.234991e-09    5.100085e-13    2.624888e-09   -5.202320e-02
    2.364854e+01    1.552708e+02    2.047807e-01    2.359886e+08    3.266046e-09    5.472795e-13    2.664604e-09   -4.702320e-02
    2.342517e+01    1.554619e+02    2.303563e-01    2.605205e+08    3.296560e-09    5.863590e-13    2.703614e-09   -4.202320e-02
    2.319306e+01    1.556334e+02    2.588314e-01    2.872135e+08    3.326520e-09    6.272955e-13    2.741905e-09   -3.702320e-02
    2.295135e+01    1.557706e+02    2.904821e-01    3.161818e+08    3.355914e-09    6.701365e-13    2.779463e-09   -3.202320e-02
    2.269928e+01    1.558583e+02    3.256011e-01    3.475311e+08    3.384733e-09    7.149325e-13    2.816279e-09   -2.702320e-02
    2.243630e+01    1.558818e+02    3.644963e-01    3.813574e+08    3.412970e-09    7.617325e-13    2.852343e-09   -2.202320e-02
    2.216200e+01    1.558266e+02    4.074903e-01    4.177438e+08    3.440617e-09    8.105870e-13    2.887651e-09   -1.702320e-02
    2.187615e+01    1.556792e+02    4.549180e-01    4.567582e+08    3.467671e-09    8.615480e-13    2.922198e-09   -1.202320e-02
    2.157875e+01    1.554271e+02    5.071260e-01    4.984523e+08    3.494127e-09    9.146675e-13    2.955980e-09   -7.023200e-03
    2.126999e+01    1.550592e+02    5.644690e-01    5.428587e+08    3.519985e-09    9.699995e-13    2.988997e-09   -2.023200e-03
    2.095022e+01    1.545663e+02    6.273100e-01    5.899904e+08    3.545242e-09    1.027598e-12    3.021251e-09    2.976800e-03
    2.061999e+01    1.539406e+02    6.960145e-01    6.398390e+08    3.569901e-09    1.087517e-12    3.052743e-09    7.976800e-03
    2.028003e+01    1.531766e+02    7.709505e-01    6.923753e+08    3.593964e-09    1.149817e-12    3.083477e-09    1.297680e-02
    1.993115e+01    1.522703e+02    8.524855e-01    7.475481e+08    3.617432e-09    1.214553e-12    3.113457e-09    1.797680e-02
    1.957436e+01    1.512202e+02    9.409810e-01    8.052858e+08    3.640311e-09    1.281786e-12    3.142691e-09    2.297680e-02
    1.921068e+01    1.500263e+02    1.036794e+00    8.654958e+08    3.662605e-09    1.351578e-12    3.171184e-09    2.797680e-02
    1.884123e+01    1.486908e+02    1.140270e+00    9.280675e+08    3.684320e-09    1.423990e-12    3.198947e-09    3.297680e-02
    1.846717e+01    1.472173e+02    1.251744e+00    9.928724e+08    3.705463e-09    1.499089e-12    3.225988e-09    3.797680e-02
    1.808969e+01    1.456111e+02    1.371535e+00    1.059767e+09    3.726041e-09    1.576940e-12    3.252316e-09    4.297680e-02
    1.770995e+01    1.438788e+02    1.499948e+00    1.128597e+09    3.746061e-09    1.657611e-12    3.277944e-09    4.797680e-02
    1.732910e+01    1.420281e+02    1.637267e+00    1.199193e+09    3.765534e-09    1.741175e-12    3.302882e-09    5.297680e-02
    1.694827e+01    1.400679e+02    1.783756e+00    1.271383e+09    3.784468e-09    1.827702e-12    3.327143e-09    5.797680e-02
    1.656851e+01    1.380074e+02    1.939661e+00    1.344986e+09    3.802871e-09    1.917270e-12    3.350739e-09    6.297680e-02
    1.619083e+01    1.358567e+02    2.105200e+00    1.419820e+09    3.820755e-09    2.009954e-12    3.373683e-09    6.797680e-02
    1.581616e+01    1.336260e+02    2.280572e+00    1.495703e+09    3.838130e-09    2.105836e-12    3.395989e-09    7.297680e-02
    1.544534e+01    1.313257e+02    2.465952e+00    1.572452e+09    3.855005e-09    2.204996e-12    3.417670e-09    7.797680e-02
    1.507917e+01    1.289663e+02    2.661494e+00    1.649893e+09    3.871393e-09    2.307522e-12    3.438740e-09    8.297680e-02
    1.471832e+01    1.265580e+02    2.867323e+00    1.727852e+09    3.887304e-09    2.413502e-12    3.459215e-09    8.797680e-02
    1.436342e+01    1.241106e+02    3.083547e+00    1.806168e+09    3.902748e-09    2.523026e-12    3.479107e-09    9.297680e-02
    1.401499e+01    1.216339e+02    3.310250e+00    1.884684e+09    3.917738e-09    2.636190e-12    3.498431e-09    9.797680e-02
    1.367350e+01    1.191369e+02    3.547496e+00    1.963255e+09    3.932285e-09    2.753091e-12    3.517202e-09    1.029768e-01
    1.333931e+01    1.166281e+02    3.795329e+00    2.041746e+09    3.946400e-09    2.873830e-12    3.535435e-09    1.079768e-01
    1.301273e+01    1.141154e+02    4.053772e+00    2.120032e+09    3.960095e-09    2.998513e-12    3.553143e-09    1.129768e-01
    1.269402e+01    1.116064e+02    4.322834e+00    2.198001e+09    3.973380e-09    3.127247e-12    3.570341e-09    1.179768e-01
    1.238335e+01    1.091075e+02    4.602508e+00    2.275549e+09    3.986268e-09    3.260145e-12    3.587043e-09    1.229768e-01
    1.208085e+01    1.066252e+02    4.892769e+00    2.352589e+09    3.998769e-09    3.397324e-12    3.603263e-09    1.279768e-01
    1.178659e+01    1.041646e+02    5.193580e+00    2.429036e+09    4.010894e-09    3.538903e-12    3.619016e-09    1.329768e-01
    1.150061e+01    1.017307e+02    5.504895e+00    2.504824e+09    4.022655e-09    3.685007e-12    3.634314e-09    1.379768e-01
