# sky130 nfet_01v8 gm/ID Processed Lookup Table
# Corner: ff
# Temperature: 0C
# W = 2.0 um
# L = 0.9 um (900 nm)
# Columns: gm/id [1/V]  gm/gds [V/V]  id/W [A/m]  ft [Hz]  Cgg/W [F/m]  Cgd/W [F/m]  Cgs/W [F/m]  Vov [V]
#         gm/id          gm/gds            id/W              ft           Cgg/W           Cgd/W           Cgs/W             Vov
    3.134644e+01    1.687446e+02    8.653310e-09    2.317462e+01    1.862850e-09    1.279314e-14    4.121726e-11   -6.095769e-01
    3.134612e+01    1.687429e+02    1.012162e-08    2.719206e+01    1.856999e-09    1.330657e-14    4.261582e-11   -6.045769e-01
    3.134577e+01    1.687411e+02    1.183905e-08    3.190395e+01    1.851276e-09    1.384051e-14    4.407805e-11   -5.995769e-01
    3.134539e+01    1.687391e+02    1.384787e-08    3.742991e+01    1.845686e-09    1.439589e-14    4.560795e-11   -5.945769e-01
    3.134499e+01    1.687370e+02    1.619750e-08    4.391011e+01    1.840228e-09    1.497363e-14    4.720974e-11   -5.895769e-01
    3.134454e+01    1.687346e+02    1.894577e-08    5.150866e+01    1.834907e-09    1.557469e-14    4.888800e-11   -5.845769e-01
    3.134408e+01    1.687321e+02    2.216030e-08    6.041791e+01    1.829723e-09    1.620013e-14    5.064755e-11   -5.795769e-01
    3.134354e+01    1.687293e+02    2.592017e-08    7.086293e+01    1.824681e-09    1.685102e-14    5.249365e-11   -5.745769e-01
    3.134300e+01    1.687264e+02    3.031789e-08    8.310744e+01    1.819783e-09    1.752850e-14    5.443180e-11   -5.695769e-01
    3.134240e+01    1.687232e+02    3.546163e-08    9.745997e+01    1.815034e-09    1.823378e-14    5.646790e-11   -5.645769e-01
    3.134175e+01    1.687198e+02    4.147794e-08    1.142819e+02    1.810436e-09    1.896812e-14    5.860835e-11   -5.595769e-01
    3.134104e+01    1.687160e+02    4.851479e-08    1.339958e+02    1.805995e-09    1.973285e-14    6.085980e-11   -5.545769e-01
    3.134028e+01    1.687119e+02    5.674525e-08    1.570966e+02    1.801714e-09    2.052936e-14    6.322945e-11   -5.495769e-01
    3.133946e+01    1.687076e+02    6.637175e-08    1.841628e+02    1.797600e-09    2.135913e-14    6.572500e-11   -5.445769e-01
    3.133858e+01    1.687029e+02    7.763095e-08    2.158714e+02    1.793656e-09    2.222371e-14    6.835460e-11   -5.395769e-01
    3.133760e+01    1.686978e+02    9.079980e-08    2.530139e+02    1.789890e-09    2.312474e-14    7.112685e-11   -5.345769e-01
    3.133657e+01    1.686922e+02    1.062020e-07    2.965158e+02    1.786308e-09    2.406394e-14    7.405100e-11   -5.295769e-01
    3.133544e+01    1.686862e+02    1.242161e-07    3.474584e+02    1.782916e-09    2.504312e-14    7.713685e-11   -5.245769e-01
    3.133423e+01    1.686798e+02    1.452849e-07    4.071059e+02    1.779722e-09    2.606420e-14    8.039480e-11   -5.195769e-01
    3.133292e+01    1.686728e+02    1.699263e-07    4.769349e+02    1.776734e-09    2.712918e-14    8.383590e-11   -5.145769e-01
    3.133149e+01    1.686652e+02    1.987456e-07    5.586695e+02    1.773960e-09    2.824020e-14    8.747190e-11   -5.095769e-01
    3.132994e+01    1.686569e+02    2.324509e-07    6.543232e+02    1.771409e-09    2.939949e-14    9.131515e-11   -5.045769e-01
    3.132827e+01    1.686481e+02    2.718703e-07    7.662462e+02    1.769090e-09    3.060942e-14    9.537840e-11   -4.995769e-01
    3.132647e+01    1.686384e+02    3.179715e-07    8.971802e+02    1.767015e-09    3.187248e-14    9.967590e-11   -4.945769e-01
    3.132452e+01    1.686280e+02    3.718867e-07    1.050324e+03    1.765193e-09    3.319129e-14    1.042223e-10   -4.895769e-01
    3.132242e+01    1.686168e+02    4.349395e-07    1.229405e+03    1.763637e-09    3.456863e-14    1.090331e-10   -4.845769e-01
    3.132014e+01    1.686047e+02    5.086770e-07    1.438771e+03    1.762359e-09    3.600741e-14    1.141245e-10   -4.795769e-01
    3.131768e+01    1.685915e+02    5.949085e-07    1.683485e+03    1.761371e-09    3.751072e-14    1.195138e-10   -4.745769e-01
    3.131501e+01    1.685773e+02    6.957495e-07    1.969443e+03    1.760688e-09    3.908181e-14    1.252190e-10   -4.695769e-01
    3.131213e+01    1.685620e+02    8.136725e-07    2.303510e+03    1.760322e-09    4.072410e-14    1.312590e-10   -4.645769e-01
    3.130903e+01    1.685454e+02    9.515675e-07    2.693671e+03    1.760292e-09    4.244122e-14    1.376536e-10   -4.595769e-01
    3.130566e+01    1.685274e+02    1.112815e-06    3.149216e+03    1.760611e-09    4.423696e-14    1.444235e-10   -4.545769e-01
    3.130203e+01    1.685081e+02    1.301363e-06    3.680938e+03    1.761297e-09    4.611537e-14    1.515907e-10   -4.495769e-01
    3.129811e+01    1.684872e+02    1.521828e-06    4.301379e+03    1.762366e-09    4.808067e-14    1.591776e-10   -4.445769e-01
    3.129386e+01    1.684645e+02    1.779606e-06    5.025098e+03    1.763838e-09    5.013730e-14    1.672079e-10   -4.395769e-01
    3.128928e+01    1.684401e+02    2.081004e-06    5.868996e+03    1.765731e-09    5.229005e-14    1.757061e-10   -4.345769e-01
    3.128432e+01    1.684137e+02    2.433388e-06    6.852670e+03    1.768066e-09    5.454380e-14    1.846977e-10   -4.295769e-01
    3.127898e+01    1.683852e+02    2.845370e-06    7.998831e+03    1.770863e-09    5.690385e-14    1.942090e-10   -4.245769e-01
    3.127321e+01    1.683545e+02    3.327008e-06    9.333791e+03    1.774143e-09    5.937565e-14    2.042674e-10   -4.195769e-01
    3.126696e+01    1.683212e+02    3.890059e-06    1.088800e+04    1.777927e-09    6.196500e-14    2.149008e-10   -4.145769e-01
    3.126021e+01    1.682852e+02    4.548250e-06    1.269668e+04    1.782240e-09    6.467805e-14    2.261382e-10   -4.095769e-01
    3.125292e+01    1.682464e+02    5.317620e-06    1.480056e+04    1.787104e-09    6.752125e-14    2.380092e-10   -4.045769e-01
    3.124507e+01    1.682046e+02    6.216895e-06    1.724669e+04    1.792543e-09    7.050130e-14    2.505442e-10   -3.995769e-01
    3.123657e+01    1.681593e+02    7.267955e-06    2.008933e+04    1.798583e-09    7.362530e-14    2.637742e-10   -3.945769e-01
    3.122739e+01    1.681106e+02    8.496340e-06    2.339113e+04    1.805247e-09    7.690080e-14    2.777308e-10   -3.895769e-01
    3.121750e+01    1.680579e+02    9.931860e-06    2.722426e+04    1.812561e-09    8.033565e-14    2.924457e-10   -3.845769e-01
    3.120680e+01    1.680011e+02    1.160933e-05    3.167186e+04    1.820551e-09    8.393800e-14    3.079516e-10   -3.795769e-01
    3.119527e+01    1.679398e+02    1.356936e-05    3.682957e+04    1.829244e-09    8.771665e-14    3.242807e-10   -3.745769e-01
    3.118280e+01    1.678737e+02    1.585937e-05    4.280737e+04    1.838665e-09    9.168060e-14    3.414660e-10   -3.695769e-01
    3.116938e+01    1.678025e+02    1.853463e-05    4.973167e+04    1.848840e-09    9.583945e-14    3.595401e-10   -3.645769e-01
    3.115488e+01    1.677256e+02    2.165967e-05    5.774748e+04    1.859795e-09    1.002032e-13    3.785353e-10   -3.595769e-01
    3.113925e+01    1.676428e+02    2.530970e-05    6.702120e+04    1.871557e-09    1.047822e-13    3.984841e-10   -3.545769e-01
    3.112239e+01    1.675536e+02    2.957243e-05    7.774351e+04    1.884152e-09    1.095875e-13    4.194179e-10   -3.495769e-01
    3.110421e+01    1.674575e+02    3.455006e-05    9.013279e+04    1.897603e-09    1.146306e-13    4.413680e-10   -3.445769e-01
    3.108462e+01    1.673539e+02    4.036173e-05    1.044389e+05    1.911936e-09    1.199235e-13    4.643645e-10   -3.395769e-01
    3.106351e+01    1.672426e+02    4.714618e-05    1.209473e+05    1.927175e-09    1.254786e-13    4.884365e-10   -3.345769e-01
    3.104078e+01    1.671228e+02    5.506500e-05    1.399842e+05    1.943343e-09    1.313092e-13    5.136120e-10   -3.295769e-01
    3.101629e+01    1.669938e+02    6.430630e-05    1.619219e+05    1.960459e-09    1.374288e-13    5.399175e-10   -3.245769e-01
    3.098994e+01    1.668553e+02    7.508900e-05    1.871848e+05    1.978548e-09    1.438517e-13    5.673780e-10   -3.195769e-01
    3.096158e+01    1.667064e+02    8.766770e-05    2.162563e+05    1.997626e-09    1.505927e-13    5.960165e-10   -3.145769e-01
    3.093106e+01    1.665465e+02    1.023386e-04    2.496866e+05    2.017711e-09    1.576674e-13    6.258535e-10   -3.095769e-01
    3.089826e+01    1.663749e+02    1.194455e-04    2.881015e+05    2.038819e-09    1.650918e-13    6.569075e-10   -3.045769e-01
    3.086301e+01    1.661908e+02    1.393885e-04    3.322118e+05    2.060964e-09    1.728825e-13    6.891960e-10   -2.995769e-01
    3.082517e+01    1.659936e+02    1.626314e-04    3.828244e+05    2.084157e-09    1.810571e-13    7.227310e-10   -2.945769e-01
    3.078450e+01    1.657821e+02    1.897128e-04    4.408536e+05    2.108408e-09    1.896334e-13    7.575235e-10   -2.895769e-01
    3.074090e+01    1.655560e+02    2.212574e-04    5.073369e+05    2.133722e-09    1.986304e-13    7.935815e-10   -2.845769e-01
    3.069413e+01    1.653141e+02    2.579886e-04    5.834460e+05    2.160107e-09    2.080672e-13    8.309090e-10   -2.795769e-01
    3.064403e+01    1.650557e+02    3.007448e-04    6.705077e+05    2.187563e-09    2.179640e-13    8.695065e-10   -2.745769e-01
    3.059039e+01    1.647799e+02    3.504962e-04    7.700193e+05    2.216087e-09    2.283417e-13    9.093720e-10   -2.695769e-01
    3.053299e+01    1.644858e+02    4.083644e-04    8.836696e+05    2.245678e-09    2.392216e-13    9.504985e-10   -2.645769e-01
    3.047163e+01    1.641726e+02    4.756456e-04    1.013363e+06    2.276326e-09    2.506261e-13    9.928765e-10   -2.595769e-01
    3.040610e+01    1.638395e+02    5.538365e-04    1.161241e+06    2.308024e-09    2.625780e-13    1.036491e-09   -2.545769e-01
    3.033621e+01    1.634857e+02    6.446625e-04    1.329713e+06    2.340755e-09    2.751010e-13    1.081325e-09   -2.495769e-01
    3.026169e+01    1.631105e+02    7.501130e-04    1.521482e+06    2.374505e-09    2.882194e-13    1.127356e-09   -2.445769e-01
    3.018237e+01    1.627132e+02    8.724765e-04    1.739582e+06    2.409253e-09    3.019585e-13    1.174558e-09   -2.395769e-01
    3.009802e+01    1.622931e+02    1.014386e-03    1.987406e+06    2.444977e-09    3.163440e-13    1.222902e-09   -2.345769e-01
    3.000844e+01    1.618500e+02    1.178865e-03    2.268753e+06    2.481649e-09    3.314026e-13    1.272353e-09   -2.295769e-01
    2.991345e+01    1.613833e+02    1.369381e-03    2.587864e+06    2.519241e-09    3.471615e-13    1.322873e-09   -2.245769e-01
    2.981286e+01    1.608931e+02    1.589910e-03    2.949466e+06    2.557720e-09    3.636490e-13    1.374422e-09   -2.195769e-01
    2.970651e+01    1.603791e+02    1.844998e-03    3.358823e+06    2.597051e-09    3.808937e-13    1.426953e-09   -2.145769e-01
    2.959427e+01    1.598418e+02    2.139843e-03    3.821796e+06    2.637195e-09    3.989253e-13    1.480420e-09   -2.095769e-01
    2.947603e+01    1.592817e+02    2.480378e-03    4.344887e+06    2.678111e-09    4.177740e-13    1.534769e-09   -2.045769e-01
    2.935168e+01    1.586995e+02    2.873362e-03    4.935300e+06    2.719755e-09    4.374710e-13    1.589946e-09   -1.995769e-01
    2.922120e+01    1.580964e+02    3.326490e-03    5.601025e+06    2.762083e-09    4.580481e-13    1.645892e-09   -1.945769e-01
    2.908456e+01    1.574738e+02    3.848504e-03    6.350895e+06    2.805044e-09    4.795377e-13    1.702548e-09   -1.895769e-01
    2.894179e+01    1.568336e+02    4.449327e-03    7.194656e+06    2.848590e-09    5.019735e-13    1.759850e-09   -1.845769e-01
    2.879300e+01    1.561782e+02    5.140200e-03    8.143081e+06    2.892667e-09    5.253890e-13    1.817734e-09   -1.795769e-01
    2.863827e+01    1.555103e+02    5.933850e-03    9.208030e+06    2.937222e-09    5.498195e-13    1.876133e-09   -1.745769e-01
    2.847784e+01    1.548332e+02    6.844640e-03    1.040257e+07    2.982201e-09    5.753005e-13    1.934979e-09   -1.695769e-01
    2.831194e+01    1.541505e+02    7.888785e-03    1.174110e+07    3.027548e-09    6.018680e-13    1.994202e-09   -1.645769e-01
    2.814083e+01    1.534666e+02    9.084560e-03    1.323943e+07    3.073206e-09    6.295595e-13    2.053734e-09   -1.595769e-01
    2.796490e+01    1.527861e+02    1.045252e-02    1.491497e+07    3.119119e-09    6.584130e-13    2.113503e-09   -1.545769e-01
    2.778452e+01    1.521142e+02    1.201574e-02    1.678684e+07    3.165227e-09    6.884675e-13    2.173438e-09   -1.495769e-01
    2.760015e+01    1.514565e+02    1.380018e-02    1.887607e+07    3.211475e-09    7.197620e-13    2.233469e-09   -1.445769e-01
    2.741227e+01    1.508190e+02    1.583485e-02    2.120576e+07    3.257807e-09    7.523365e-13    2.293528e-09   -1.395769e-01
    2.722137e+01    1.502079e+02    1.815233e-02    2.380131e+07    3.304163e-09    7.862335e-13    2.353543e-09   -1.345769e-01
    2.702795e+01    1.496296e+02    2.078898e-02    2.669058e+07    3.350491e-09    8.214940e-13    2.413447e-09   -1.295769e-01
    2.683255e+01    1.490908e+02    2.378548e-02    2.990422e+07    3.396733e-09    8.581610e-13    2.473175e-09   -1.245769e-01
    2.663561e+01    1.485975e+02    2.718719e-02    3.347577e+07    3.442839e-09    8.962790e-13    2.532660e-09   -1.195769e-01
    2.643762e+01    1.481563e+02    3.104474e-02    3.744210e+07    3.488754e-09    9.358925e-13    2.591840e-09   -1.145769e-01
    2.623890e+01    1.477726e+02    3.541449e-02    4.184343e+07    3.534430e-09    9.770470e-13    2.650655e-09   -1.095769e-01
    2.603976e+01    1.474517e+02    4.035913e-02    4.672380e+07    3.579816e-09    1.019790e-12    2.709044e-09   -1.045769e-01
    2.584037e+01    1.471979e+02    4.594836e-02    5.213106e+07    3.624869e-09    1.064168e-12    2.766952e-09   -9.957690e-02
    2.564081e+01    1.470144e+02    5.225945e-02    5.811723e+07    3.669541e-09    1.110231e-12    2.824327e-09   -9.457690e-02
    2.544096e+01    1.469034e+02    5.937810e-02    6.473847e+07    3.713791e-09    1.158028e-12    2.881116e-09   -8.957690e-02
    2.524060e+01    1.468654e+02    6.739900e-02    7.205516e+07    3.757580e-09    1.207611e-12    2.937273e-09   -8.457690e-02
    2.503939e+01    1.468997e+02    7.642655e-02    8.013187e+07    3.800869e-09    1.259031e-12    2.992753e-09   -7.957690e-02
    2.483675e+01    1.470037e+02    8.657590e-02    8.903711e+07    3.843624e-09    1.312344e-12    3.047515e-09   -7.457690e-02
    2.463203e+01    1.471730e+02    9.797325e-02    9.884306e+07    3.885811e-09    1.367602e-12    3.101520e-09   -6.957690e-02
    2.442444e+01    1.474016e+02    1.107568e-01    1.096251e+08    3.927401e-09    1.424863e-12    3.154732e-09   -6.457690e-02
    2.421307e+01    1.476815e+02    1.250774e-01    1.214610e+08    3.968367e-09    1.484184e-12    3.207122e-09   -5.957690e-02
    2.399697e+01    1.480031e+02    1.410987e-01    1.344306e+08    4.008682e-09    1.545624e-12    3.258657e-09   -5.457690e-02
    2.377514e+01    1.483550e+02    1.589982e-01    1.486141e+08    4.048325e-09    1.609243e-12    3.309313e-09   -4.957690e-02
    2.354657e+01    1.487247e+02    1.789668e-01    1.640915e+08    4.087276e-09    1.675104e-12    3.359069e-09   -4.457690e-02
    2.331030e+01    1.490982e+02    2.012093e-01    1.809413e+08    4.125517e-09    1.743272e-12    3.407903e-09   -3.957690e-02
    2.306544e+01    1.494606e+02    2.259443e-01    1.992386e+08    4.163033e-09    1.813811e-12    3.455799e-09   -3.457690e-02
    2.281120e+01    1.497966e+02    2.534038e-01    2.190543e+08    4.199811e-09    1.886789e-12    3.502743e-09   -2.957690e-02
    2.254694e+01    1.500904e+02    2.838324e-01    2.404529e+08    4.235840e-09    1.962275e-12    3.548723e-09   -2.457690e-02
    2.227215e+01    1.503262e+02    3.174867e-01    2.634916e+08    4.271112e-09    2.040341e-12    3.593732e-09   -1.957690e-02
    2.198655e+01    1.504891e+02    3.546343e-01    2.882187e+08    4.305621e-09    2.121060e-12    3.637763e-09   -1.457690e-02
    2.169000e+01    1.505643e+02    3.955524e-01    3.146718e+08    4.339361e-09    2.204509e-12    3.680812e-09   -9.576900e-03
    2.138258e+01    1.505385e+02    4.405259e-01    3.428773e+08    4.372330e-09    2.290763e-12    3.722878e-09   -4.576900e-03
    2.106455e+01    1.503997e+02    4.898461e-01    3.728487e+08    4.404529e-09    2.379905e-12    3.763963e-09    4.231000e-04
    2.073634e+01    1.501374e+02    5.438090e-01    4.045865e+08    4.435957e-09    2.472017e-12    3.804067e-09    5.423100e-03
    2.039859e+01    1.497429e+02    6.027115e-01    4.380777e+08    4.466616e-09    2.567185e-12    3.843197e-09    1.042310e-02
    2.005201e+01    1.492096e+02    6.668525e-01    4.732953e+08    4.496512e-09    2.665495e-12    3.881358e-09    1.542310e-02
    1.969749e+01    1.485326e+02    7.365270e-01    5.101983e+08    4.525648e-09    2.767040e-12    3.918559e-09    2.042310e-02
    1.933601e+01    1.477092e+02    8.120260e-01    5.487328e+08    4.554031e-09    2.871912e-12    3.954809e-09    2.542310e-02
    1.896863e+01    1.467386e+02    8.936340e-01    5.888327e+08    4.581670e-09    2.980209e-12    3.990117e-09    3.042310e-02
    1.859645e+01    1.456221e+02    9.816260e-01    6.304198e+08    4.608573e-09    3.092030e-12    4.024499e-09    3.542310e-02
    1.822060e+01    1.443627e+02    1.076268e+00    6.734059e+08    4.634748e-09    3.207480e-12    4.057964e-09    4.042310e-02
    1.784222e+01    1.429647e+02    1.177811e+00    7.176938e+08    4.660208e-09    3.326664e-12    4.090529e-09    4.542310e-02
    1.746247e+01    1.414344e+02    1.286492e+00    7.631795e+08    4.684962e-09    3.449692e-12    4.122208e-09    5.042310e-02
    1.708242e+01    1.397790e+02    1.402535e+00    8.097527e+08    4.709024e-09    3.576680e-12    4.153016e-09    5.542310e-02
    1.670316e+01    1.380068e+02    1.526145e+00    8.572994e+08    4.732405e-09    3.707742e-12    4.182971e-09    6.042310e-02
    1.632567e+01    1.361270e+02    1.657509e+00    9.057029e+08    4.755118e-09    3.843004e-12    4.212088e-09    6.542310e-02
    1.595092e+01    1.341493e+02    1.796798e+00    9.548462e+08    4.777179e-09    3.982590e-12    4.240387e-09    7.042310e-02
    1.557975e+01    1.320838e+02    1.944162e+00    1.004613e+09    4.798598e-09    4.126630e-12    4.267884e-09    7.542310e-02
    1.521297e+01    1.299410e+02    2.099734e+00    1.054887e+09    4.819392e-09    4.275259e-12    4.294598e-09    8.042310e-02
    1.485129e+01    1.277312e+02    2.263628e+00    1.105560e+09    4.839574e-09    4.428617e-12    4.320547e-09    8.542310e-02
    1.449534e+01    1.254647e+02    2.435941e+00    1.156523e+09    4.859159e-09    4.586849e-12    4.345751e-09    9.042310e-02
    1.414568e+01    1.231515e+02    2.616750e+00    1.207675e+09    4.878162e-09    4.750102e-12    4.370228e-09    9.542310e-02
    1.380279e+01    1.208015e+02    2.806116e+00    1.258920e+09    4.896598e-09    4.918533e-12    4.393996e-09    1.004231e-01
    1.346707e+01    1.184238e+02    3.004084e+00    1.310170e+09    4.914481e-09    5.092300e-12    4.417074e-09    1.054231e-01
    1.313884e+01    1.160272e+02    3.210686e+00    1.361342e+09    4.931826e-09    5.271575e-12    4.439481e-09    1.104231e-01
    1.281837e+01    1.136198e+02    3.425934e+00    1.412360e+09    4.948648e-09    5.456520e-12    4.461237e-09    1.154231e-01
    1.250587e+01    1.112093e+02    3.649833e+00    1.463157e+09    4.964962e-09    5.647320e-12    4.482358e-09    1.204231e-01
    1.220147e+01    1.088026e+02    3.882373e+00    1.513672e+09    4.980783e-09    5.844155e-12    4.502864e-09    1.254231e-01
    1.190527e+01    1.064060e+02    4.123531e+00    1.563850e+09    4.996125e-09    6.047220e-12    4.522773e-09    1.304231e-01
    1.161731e+01    1.040253e+02    4.373278e+00    1.613646e+09    5.011000e-09    6.256710e-12    4.542102e-09    1.354231e-01
    1.133760e+01    1.016655e+02    4.631573e+00    1.663016e+09    5.025430e-09    6.472830e-12    4.560870e-09    1.404231e-01
    1.106609e+01    9.933114e+01    4.898370e+00    1.711927e+09    5.039420e-09    6.695795e-12    4.579093e-09    1.454231e-01
