# sky130 nfet_01v8 gm/ID Processed Lookup Table
# Corner: ff
# Temperature: 0C
# W = 2.0 um
# L = 5.04 um (5040 nm)
# Columns: gm/id [1/V]  gm/gds [V/V]  id/W [A/m]  ft [Hz]  Cgg/W [F/m]  Cgd/W [F/m]  Cgs/W [F/m]  Vov [V]
#         gm/id          gm/gds            id/W              ft           Cgg/W           Cgd/W           Cgs/W             Vov
    2.911691e+01    2.296223e+02    1.159885e-08    4.898821e+00    1.097207e-08    1.895793e-13    4.864819e-10   -5.451837e-01
    2.911630e+01    2.296175e+02    1.341655e-08    5.676289e+00    1.095299e-08    1.969554e-13    5.064575e-10   -5.401837e-01
    2.911565e+01    2.296123e+02    1.551905e-08    6.576441e+00    1.093505e-08    2.046398e-13    5.274775e-10   -5.351837e-01
    2.911495e+01    2.296068e+02    1.795099e-08    7.618485e+00    1.091832e-08    2.126468e-13    5.496010e-10   -5.301837e-01
    2.911418e+01    2.296008e+02    2.076393e-08    8.824607e+00    1.090283e-08    2.209915e-13    5.728900e-10   -5.251837e-01
    2.911336e+01    2.295944e+02    2.401760e-08    1.022043e+01    1.088862e-08    2.296897e-13    5.974085e-10   -5.201837e-01
    2.911248e+01    2.295874e+02    2.778097e-08    1.183553e+01    1.087575e-08    2.387581e-13    6.232240e-10   -5.151837e-01
    2.911153e+01    2.295800e+02    3.213389e-08    1.370403e+01    1.086427e-08    2.482141e-13    6.504105e-10   -5.101837e-01
    2.911052e+01    2.295720e+02    3.716868e-08    1.586530e+01    1.085423e-08    2.580760e-13    6.790425e-10   -5.051837e-01
    2.910942e+01    2.295634e+02    4.299210e-08    1.836476e+01    1.084569e-08    2.683630e-13    7.091980e-10   -5.001837e-01
    2.910824e+01    2.295540e+02    4.972762e-08    2.125478e+01    1.083870e-08    2.790953e-13    7.409595e-10   -4.951837e-01
    2.910697e+01    2.295440e+02    5.751805e-08    2.459569e+01    1.083334e-08    2.902941e-13    7.744125e-10   -4.901837e-01
    2.910561e+01    2.295333e+02    6.652850e-08    2.845704e+01    1.082966e-08    3.019816e-13    8.096460e-10   -4.851837e-01
    2.910416e+01    2.295219e+02    7.694990e-08    3.291891e+01    1.082774e-08    3.141810e-13    8.467530e-10   -4.801837e-01
    2.910258e+01    2.295096e+02    8.900315e-08    3.807349e+01    1.082765e-08    3.269169e-13    8.858300e-10   -4.751837e-01
    2.910089e+01    2.294962e+02    1.029435e-07    4.402692e+01    1.082946e-08    3.402147e-13    9.269780e-10   -4.701837e-01
    2.909908e+01    2.294820e+02    1.190663e-07    5.090131e+01    1.083326e-08    3.541014e-13    9.703005e-10   -4.651837e-01
    2.909713e+01    2.294667e+02    1.377129e-07    5.883705e+01    1.083912e-08    3.686052e-13    1.015906e-09   -4.601837e-01
    2.909503e+01    2.294503e+02    1.592781e-07    6.799553e+01    1.084712e-08    3.837554e-13    1.063906e-09   -4.551837e-01
    2.909278e+01    2.294326e+02    1.842182e-07    7.856221e+01    1.085736e-08    3.995829e-13    1.114415e-09   -4.501837e-01
    2.909035e+01    2.294135e+02    2.130611e-07    9.075003e+01    1.086992e-08    4.161202e-13    1.167552e-09   -4.451837e-01
    2.908776e+01    2.293932e+02    2.464167e-07    1.048035e+02    1.088491e-08    4.334012e-13    1.223441e-09   -4.401837e-01
    2.908495e+01    2.293712e+02    2.849905e-07    1.210032e+02    1.090240e-08    4.514610e-13    1.282207e-09   -4.351837e-01
    2.908196e+01    2.293477e+02    3.295979e-07    1.396708e+02    1.092251e-08    4.703370e-13    1.343978e-09   -4.301837e-01
    2.907872e+01    2.293224e+02    3.811813e-07    1.611751e+02    1.094534e-08    4.900679e-13    1.408887e-09   -4.251837e-01
    2.907526e+01    2.292954e+02    4.408304e-07    1.859387e+02    1.097098e-08    5.106940e-13    1.477068e-09   -4.201837e-01
    2.907152e+01    2.292661e+02    5.098045e-07    2.144453e+02    1.099955e-08    5.322580e-13    1.548659e-09   -4.151837e-01
    2.906751e+01    2.292347e+02    5.895590e-07    2.472489e+02    1.103116e-08    5.548040e-13    1.623799e-09   -4.101837e-01
    2.906321e+01    2.292011e+02    6.817765e-07    2.849830e+02    1.106590e-08    5.783780e-13    1.702629e-09   -4.051837e-01
    2.905860e+01    2.291651e+02    7.884005e-07    3.283719e+02    1.110391e-08    6.030285e-13    1.785294e-09   -4.001837e-01
    2.905362e+01    2.291263e+02    9.116785e-07    3.782433e+02    1.114528e-08    6.288060e-13    1.871936e-09   -3.951837e-01
    2.904829e+01    2.290847e+02    1.054205e-06    4.355428e+02    1.119013e-08    6.557625e-13    1.962701e-09   -3.901837e-01
    2.904257e+01    2.290401e+02    1.218980e-06    5.013497e+02    1.123856e-08    6.839525e-13    2.057734e-09   -3.851837e-01
    2.903641e+01    2.289923e+02    1.409468e-06    5.768947e+02    1.129072e-08    7.134340e-13    2.157179e-09   -3.801837e-01
    2.902982e+01    2.289409e+02    1.629670e-06    6.635822e+02    1.134670e-08    7.442655e-13    2.261181e-09   -3.751837e-01
    2.902273e+01    2.288859e+02    1.884211e-06    7.630120e+02    1.140661e-08    7.765085e-13    2.369883e-09   -3.701837e-01
    2.901511e+01    2.288268e+02    2.178429e-06    8.770063e+02    1.147057e-08    8.102280e-13    2.483425e-09   -3.651837e-01
    2.900695e+01    2.287636e+02    2.518490e-06    1.007641e+03    1.153869e-08    8.454905e-13    2.601945e-09   -3.601837e-01
    2.899818e+01    2.286958e+02    2.911512e-06    1.157277e+03    1.161106e-08    8.823655e-13    2.725578e-09   -3.551837e-01
    2.898878e+01    2.286233e+02    3.365714e-06    1.328599e+03    1.168782e-08    9.209250e-13    2.854453e-09   -3.501837e-01
    2.897869e+01    2.285454e+02    3.890584e-06    1.524659e+03    1.176904e-08    9.612440e-13    2.988696e-09   -3.451837e-01
    2.896787e+01    2.284622e+02    4.497069e-06    1.748925e+03    1.185482e-08    1.003400e-12    3.128427e-09   -3.401837e-01
    2.895627e+01    2.283731e+02    5.197805e-06    2.005335e+03    1.194527e-08    1.047474e-12    3.273759e-09   -3.351837e-01
    2.894383e+01    2.282777e+02    6.007370e-06    2.298358e+03    1.204046e-08    1.093549e-12    3.424798e-09   -3.301837e-01
    2.893049e+01    2.281757e+02    6.942580e-06    2.633062e+03    1.214048e-08    1.141712e-12    3.581642e-09   -3.251837e-01
    2.891620e+01    2.280666e+02    8.022825e-06    3.015199e+03    1.224539e-08    1.192052e-12    3.744381e-09   -3.201837e-01
    2.890090e+01    2.279502e+02    9.270465e-06    3.451283e+03    1.235528e-08    1.244661e-12    3.913093e-09   -3.151837e-01
    2.888450e+01    2.278258e+02    1.071128e-05    3.948694e+03    1.247018e-08    1.299638e-12    4.087848e-09   -3.101837e-01
    2.886694e+01    2.276929e+02    1.237498e-05    4.515789e+03    1.259018e-08    1.357079e-12    4.268702e-09   -3.051837e-01
    2.884815e+01    2.275512e+02    1.429579e-05    5.162030e+03    1.271528e-08    1.417088e-12    4.455701e-09   -3.001837e-01
    2.882805e+01    2.274002e+02    1.651314e-05    5.898112e+03    1.284553e-08    1.479770e-12    4.648879e-09   -2.951837e-01
    2.880655e+01    2.272392e+02    1.907242e-05    6.736135e+03    1.298095e-08    1.545236e-12    4.848253e-09   -2.901837e-01
    2.878357e+01    2.270679e+02    2.202590e-05    7.689778e+03    1.312154e-08    1.613597e-12    5.053830e-09   -2.851837e-01
    2.875899e+01    2.268856e+02    2.543373e-05    8.774476e+03    1.326731e-08    1.684969e-12    5.265595e-09   -2.801837e-01
    2.873276e+01    2.266919e+02    2.936509e-05    1.000768e+04    1.341824e-08    1.759473e-12    5.483535e-09   -2.751837e-01
    2.870477e+01    2.264863e+02    3.389952e-05    1.140907e+04    1.357430e-08    1.837233e-12    5.707595e-09   -2.701837e-01
    2.867489e+01    2.262681e+02    3.912849e-05    1.300085e+04    1.373546e-08    1.918374e-12    5.937730e-09   -2.651837e-01
    2.864303e+01    2.260371e+02    4.515706e-05    1.480805e+04    1.390167e-08    2.003029e-12    6.173860e-09   -2.601837e-01
    2.860907e+01    2.257925e+02    5.210590e-05    1.685889e+04    1.407284e-08    2.091333e-12    6.415895e-09   -2.551837e-01
    2.857295e+01    2.255342e+02    6.011345e-05    1.918512e+04    1.424893e-08    2.183423e-12    6.663735e-09   -2.501837e-01
    2.853448e+01    2.252614e+02    6.933870e-05    2.182251e+04    1.442983e-08    2.279442e-12    6.917250e-09   -2.451837e-01
    2.849359e+01    2.249742e+02    7.996385e-05    2.481131e+04    1.461542e-08    2.379538e-12    7.176305e-09   -2.401837e-01
    2.845016e+01    2.246720e+02    9.219770e-05    2.819673e+04    1.480561e-08    2.483861e-12    7.440740e-09   -2.351837e-01
    2.840407e+01    2.243548e+02    1.062795e-04    3.202961e+04    1.500025e-08    2.592566e-12    7.710385e-09   -2.301837e-01
    2.835521e+01    2.240227e+02    1.224829e-04    3.636701e+04    1.519920e-08    2.705812e-12    7.985050e-09   -2.251837e-01
    2.830345e+01    2.236756e+02    1.411212e-04    4.127302e+04    1.540230e-08    2.823762e-12    8.264530e-09   -2.201837e-01
    2.824871e+01    2.233137e+02    1.625525e-04    4.681945e+04    1.560939e-08    2.946585e-12    8.548610e-09   -2.151837e-01
    2.819086e+01    2.229376e+02    1.871857e-04    5.308681e+04    1.582029e-08    3.074452e-12    8.837055e-09   -2.101837e-01
    2.812984e+01    2.225480e+02    2.154878e-04    6.016532e+04    1.603480e-08    3.207540e-12    9.129620e-09   -2.051837e-01
    2.806554e+01    2.221457e+02    2.479914e-04    6.815591e+04    1.625274e-08    3.346031e-12    9.426045e-09   -2.001837e-01
    2.799789e+01    2.217320e+02    2.853036e-04    7.717155e+04    1.647386e-08    3.490111e-12    9.726065e-09   -1.951837e-01
    2.792685e+01    2.213085e+02    3.281160e-04    8.733845e+04    1.669798e-08    3.639971e-12    1.002939e-08   -1.901837e-01
    2.785235e+01    2.208770e+02    3.772155e-04    9.879761e+04    1.692486e-08    3.795807e-12    1.033574e-08   -1.851837e-01
    2.777438e+01    2.204399e+02    4.334970e-04    1.117066e+05    1.715425e-08    3.957820e-12    1.064481e-08   -1.801837e-01
    2.769295e+01    2.200004e+02    4.979773e-04    1.262412e+05    1.738593e-08    4.126218e-12    1.095630e-08   -1.751837e-01
    2.760807e+01    2.195616e+02    5.718110e-04    1.425975e+05    1.761964e-08    4.301210e-12    1.126990e-08   -1.701837e-01
    2.751981e+01    2.191275e+02    6.563075e-04    1.609941e+05    1.785513e-08    4.483014e-12    1.158528e-08   -1.651837e-01
    2.742823e+01    2.187029e+02    7.529515e-04    1.816748e+05    1.809216e-08    4.671854e-12    1.190213e-08   -1.601837e-01
    2.733345e+01    2.182930e+02    8.634245e-04    2.049112e+05    1.833045e-08    4.867959e-12    1.222014e-08   -1.551837e-01
    2.723561e+01    2.179039e+02    9.896295e-04    2.310060e+05    1.856978e-08    5.071560e-12    1.253897e-08   -1.501837e-01
    2.713492e+01    2.175425e+02    1.133718e-03    2.602965e+05    1.880985e-08    5.282905e-12    1.285831e-08   -1.451837e-01
    2.703157e+01    2.172164e+02    1.298123e-03    2.931584e+05    1.905044e-08    5.502230e-12    1.317784e-08   -1.401837e-01
    2.692581e+01    2.169343e+02    1.485594e-03    3.300107e+05    1.929127e-08    5.729800e-12    1.349724e-08   -1.351837e-01
    2.681793e+01    2.167055e+02    1.699229e-03    3.713198e+05    1.953210e-08    5.965870e-12    1.381619e-08   -1.301837e-01
    2.670821e+01    2.165404e+02    1.942528e-03    4.176059e+05    1.977268e-08    6.210705e-12    1.413440e-08   -1.251837e-01
    2.659700e+01    2.164502e+02    2.219438e-03    4.694491e+05    2.001277e-08    6.464585e-12    1.445156e-08   -1.201837e-01
    2.648461e+01    2.164466e+02    2.534404e-03    5.274955e+05    2.025214e-08    6.727790e-12    1.476738e-08   -1.151837e-01
    2.637138e+01    2.165426e+02    2.892435e-03    5.924659e+05    2.049053e-08    7.000610e-12    1.508157e-08   -1.101837e-01
    2.625762e+01    2.167515e+02    3.299172e-03    6.651638e+05    2.072774e-08    7.283345e-12    1.539386e-08   -1.051837e-01
    2.614363e+01    2.170872e+02    3.760961e-03    7.464839e+05    2.096354e-08    7.576295e-12    1.570399e-08   -1.001837e-01
    2.602965e+01    2.175641e+02    4.284945e-03    8.374226e+05    2.119772e-08    7.879785e-12    1.601169e-08   -9.518370e-02
    2.591585e+01    2.181965e+02    4.879153e-03    9.390875e+05    2.143009e-08    8.194130e-12    1.631673e-08   -9.018370e-02
    2.580230e+01    2.189986e+02    5.552605e-03    1.052708e+06    2.166045e-08    8.519665e-12    1.661886e-08   -8.518370e-02
    2.568901e+01    2.199849e+02    6.315425e-03    1.179645e+06    2.188863e-08    8.856735e-12    1.691789e-08   -8.018370e-02
    2.557577e+01    2.211683e+02    7.178980e-03    1.321404e+06    2.211445e-08    9.205695e-12    1.721361e-08   -7.518370e-02
    2.546233e+01    2.225615e+02    8.155990e-03    1.479639e+06    2.233773e-08    9.566905e-12    1.750580e-08   -7.018370e-02
    2.534819e+01    2.241753e+02    9.260695e-03    1.656164e+06    2.255835e-08    9.940740e-12    1.779430e-08   -6.518370e-02
    2.523272e+01    2.260192e+02    1.050900e-02    1.852956e+06    2.277616e-08    1.032758e-11    1.807895e-08   -6.018370e-02
    2.511511e+01    2.281004e+02    1.191863e-02    2.072160e+06    2.299102e-08    1.072784e-11    1.835958e-08   -5.518370e-02
    2.499434e+01    2.304235e+02    1.350930e-02    2.316081e+06    2.320281e-08    1.114190e-11    1.863606e-08   -5.018370e-02
    2.486927e+01    2.329905e+02    1.530285e-02    2.587185e+06    2.341144e-08    1.157021e-11    1.890827e-08   -4.518370e-02
    2.473860e+01    2.358000e+02    1.732345e-02    2.888079e+06    2.361678e-08    1.201319e-11    1.917609e-08   -4.018370e-02
    2.460092e+01    2.388475e+02    1.959772e-02    3.221497e+06    2.381878e-08    1.247129e-11    1.943941e-08   -3.518370e-02
    2.445476e+01    2.421246e+02    2.215485e-02    3.590275e+06    2.401733e-08    1.294497e-11    1.969817e-08   -3.018370e-02
    2.429854e+01    2.456190e+02    2.502673e-02    3.997303e+06    2.421237e-08    1.343472e-11    1.995227e-08   -2.518370e-02
    2.413084e+01    2.493150e+02    2.824801e-02    4.445514e+06    2.440385e-08    1.394102e-11    2.020166e-08   -2.018370e-02
    2.395017e+01    2.531928e+02    3.185616e-02    4.937799e+06    2.459172e-08    1.446437e-11    2.044629e-08   -1.518370e-02
    2.375523e+01    2.572290e+02    3.589151e-02    5.476980e+06    2.477593e-08    1.500533e-11    2.068611e-08   -1.018370e-02
    2.354489e+01    2.613970e+02    4.039708e-02    6.065744e+06    2.495645e-08    1.556442e-11    2.092109e-08   -5.183700e-03
    2.331823e+01    2.656671e+02    4.541863e-02    6.706575e+06    2.513327e-08    1.614219e-11    2.115124e-08   -1.837000e-04
    2.307452e+01    2.700069e+02    5.100440e-02    7.401688e+06    2.530636e-08    1.673924e-11    2.137652e-08    4.816300e-03
    2.281340e+01    2.743822e+02    5.720485e-02    8.152982e+06    2.547572e-08    1.735615e-11    2.159694e-08    9.816300e-03
    2.253471e+01    2.787572e+02    6.407255e-02    8.961964e+06    2.564136e-08    1.799357e-11    2.181251e-08    1.481630e-02
    2.223863e+01    2.830953e+02    7.166170e-02    9.829708e+06    2.580327e-08    1.865210e-11    2.202326e-08    1.981630e-02
    2.192558e+01    2.873595e+02    8.002780e-02    1.075680e+07    2.596146e-08    1.933243e-11    2.222920e-08    2.481630e-02
    2.159630e+01    2.915136e+02    8.922715e-02    1.174330e+07    2.611597e-08    2.003524e-11    2.243036e-08    2.981630e-02
    2.125173e+01    2.955224e+02    9.931650e-02    1.278876e+07    2.626681e-08    2.076122e-11    2.262678e-08    3.481630e-02
    2.089305e+01    2.993524e+02    1.103525e-01    1.389215e+07    2.641402e-08    2.151113e-11    2.281853e-08    3.981630e-02
    2.052160e+01    3.029724e+02    1.223910e-01    1.505191e+07    2.655762e-08    2.228571e-11    2.300563e-08    4.481630e-02
    2.013887e+01    3.063537e+02    1.354871e-01    1.626597e+07    2.669766e-08    2.308575e-11    2.318815e-08    4.981630e-02
    1.974644e+01    3.094710e+02    1.496940e-01    1.753174e+07    2.683418e-08    2.391207e-11    2.336614e-08    5.481630e-02
    1.934597e+01    3.123023e+02    1.650630e-01    1.884621e+07    2.696723e-08    2.476550e-11    2.353969e-08    5.981630e-02
    1.893913e+01    3.148292e+02    1.816428e-01    2.020596e+07    2.709686e-08    2.564693e-11    2.370885e-08    6.481630e-02
    1.852760e+01    3.170368e+02    1.994794e-01    2.160725e+07    2.722312e-08    2.655723e-11    2.387369e-08    6.981630e-02
    1.811303e+01    3.189145e+02    2.186153e-01    2.304607e+07    2.734606e-08    2.749738e-11    2.403430e-08    7.481630e-02
    1.769699e+01    3.204549e+02    2.390897e-01    2.451822e+07    2.746575e-08    2.846831e-11    2.419074e-08    7.981630e-02
    1.728100e+01    3.216544e+02    2.609382e-01    2.601937e+07    2.758225e-08    2.947105e-11    2.434310e-08    8.481630e-02
    1.686646e+01    3.225126e+02    2.841923e-01    2.754516e+07    2.769561e-08    3.050663e-11    2.449147e-08    8.981630e-02
    1.645468e+01    3.230320e+02    3.088799e-01    2.909124e+07    2.780590e-08    3.157613e-11    2.463592e-08    9.481630e-02
    1.604686e+01    3.232187e+02    3.350248e-01    3.065333e+07    2.791319e-08    3.268067e-11    2.477653e-08    9.981630e-02
    1.564405e+01    3.230800e+02    3.626469e-01    3.222725e+07    2.801754e-08    3.382142e-11    2.491341e-08    1.048163e-01
    1.524725e+01    3.226270e+02    3.917622e-01    3.380913e+07    2.811902e-08    3.499956e-11    2.504663e-08    1.098163e-01
    1.485725e+01    3.218710e+02    4.223833e-01    3.539517e+07    2.821769e-08    3.621636e-11    2.517627e-08    1.148163e-01
    1.447479e+01    3.208259e+02    4.545192e-01    3.698191e+07    2.831362e-08    3.747310e-11    2.530243e-08    1.198163e-01
    1.410049e+01    3.195064e+02    4.881754e-01    3.856618e+07    2.840688e-08    3.877114e-11    2.542519e-08    1.248163e-01
    1.373484e+01    3.179281e+02    5.233545e-01    4.014509e+07    2.849753e-08    4.011186e-11    2.554464e-08    1.298163e-01
    1.337823e+01    3.161069e+02    5.600570e-01    4.171602e+07    2.858565e-08    4.149670e-11    2.566086e-08    1.348163e-01
    1.303100e+01    3.140595e+02    5.982790e-01    4.327672e+07    2.867130e-08    4.292718e-11    2.577394e-08    1.398163e-01
    1.269336e+01    3.118024e+02    6.380165e-01    4.482520e+07    2.875455e-08    4.440484e-11    2.588397e-08    1.448163e-01
    1.236548e+01    3.093519e+02    6.792620e-01    4.635980e+07    2.883546e-08    4.593131e-11    2.599102e-08    1.498163e-01
    1.204742e+01    3.067242e+02    7.220075e-01    4.787914e+07    2.891410e-08    4.750825e-11    2.609519e-08    1.548163e-01
    1.173924e+01    3.039353e+02    7.662420e-01    4.938211e+07    2.899054e-08    4.913741e-11    2.619654e-08    1.598163e-01
    1.144088e+01    3.010000e+02    8.119545e-01    5.086784e+07    2.906483e-08    5.082060e-11    2.629517e-08    1.648163e-01
    1.115227e+01    2.979330e+02    8.591325e-01    5.233571e+07    2.913704e-08    5.255970e-11    2.639115e-08    1.698163e-01
    1.087331e+01    2.947480e+02    9.077625e-01    5.378530e+07    2.920725e-08    5.435665e-11    2.648456e-08    1.748163e-01
    1.060383e+01    2.914580e+02    9.578315e-01    5.521638e+07    2.927549e-08    5.621350e-11    2.657548e-08    1.798163e-01
    1.034367e+01    2.880753e+02    1.009324e+00    5.662891e+07    2.934185e-08    5.813235e-11    2.666398e-08    1.848163e-01
    1.009261e+01    2.846113e+02    1.062228e+00    5.802299e+07    2.940637e-08    6.011535e-11    2.675013e-08    1.898163e-01
    9.850447e+00    2.810765e+02    1.116526e+00    5.939887e+07    2.946911e-08    6.216485e-11    2.683400e-08    1.948163e-01
    9.616927e+00    2.774807e+02    1.172206e+00    6.075682e+07    2.953013e-08    6.428310e-11    2.691567e-08    1.998163e-01
    9.391809e+00    2.738328e+02    1.229252e+00    6.209732e+07    2.958949e-08    6.647260e-11    2.699522e-08    2.048163e-01
    9.174838e+00    2.701411e+02    1.287650e+00    6.342086e+07    2.964724e-08    6.873595e-11    2.707268e-08    2.098163e-01
