# sky130 nfet_01v8 gm/ID Processed Lookup Table
# Corner: ff
# Temperature: 0C
# W = 2.0 um
# L = 2.52 um (2520 nm)
# Columns: gm/id [1/V]  gm/gds [V/V]  id/W [A/m]  ft [Hz]  Cgg/W [F/m]  Cgd/W [F/m]  Cgs/W [F/m]  Vov [V]
#         gm/id          gm/gds            id/W              ft           Cgg/W           Cgd/W           Cgs/W             Vov
    2.933491e+01    1.632387e+02    1.393481e-08    1.178676e+01    5.519650e-09    8.034140e-14    2.232994e-10   -5.569974e-01
    2.933445e+01    1.632361e+02    1.613617e-08    1.367457e+01    5.509155e-09    8.347290e-14    2.322334e-10   -5.519974e-01
    2.933394e+01    1.632333e+02    1.868525e-08    1.586318e+01    5.499195e-09    8.673435e-14    2.416257e-10   -5.469974e-01
    2.933340e+01    1.632303e+02    2.163695e-08    1.840025e+01    5.489780e-09    9.013185e-14    2.515023e-10   -5.419974e-01
    2.933281e+01    1.632271e+02    2.505488e-08    2.134086e+01    5.480930e-09    9.367165e-14    2.618907e-10   -5.369974e-01
    2.933220e+01    1.632236e+02    2.901262e-08    2.474870e+01    5.472670e-09    9.736040e-14    2.728186e-10   -5.319974e-01
    2.933151e+01    1.632199e+02    3.359544e-08    2.869747e+01    5.465015e-09    1.012051e-13    2.843173e-10   -5.269974e-01
    2.933078e+01    1.632157e+02    3.890202e-08    3.327229e+01    5.457995e-09    1.052129e-13    2.964188e-10   -5.219974e-01
    2.933000e+01    1.632114e+02    4.504663e-08    3.857164e+01    5.451630e-09    1.093916e-13    3.091563e-10   -5.169974e-01
    2.932917e+01    1.632068e+02    5.216155e-08    4.470923e+01    5.445945e-09    1.137492e-13    3.225650e-10   -5.119974e-01
    2.932825e+01    1.632017e+02    6.040005e-08    5.181639e+01    5.440970e-09    1.182941e-13    3.366817e-10   -5.069974e-01
    2.932728e+01    1.631964e+02    6.993935e-08    6.004491e+01    5.436725e-09    1.230352e-13    3.515446e-10   -5.019974e-01
    2.932623e+01    1.631905e+02    8.098485e-08    6.956976e+01    5.433250e-09    1.279819e-13    3.671942e-10   -4.969974e-01
    2.932510e+01    1.631843e+02    9.377430e-08    8.059320e+01    5.430565e-09    1.331437e-13    3.836721e-10   -4.919974e-01
    2.932389e+01    1.631775e+02    1.085828e-07    9.334816e+01    5.428715e-09    1.385311e-13    4.010224e-10   -4.869974e-01
    2.932259e+01    1.631703e+02    1.257290e-07    1.081037e+02    5.427720e-09    1.441547e-13    4.192906e-10   -4.819974e-01
    2.932119e+01    1.631625e+02    1.455819e-07    1.251696e+02    5.427630e-09    1.500258e-13    4.385244e-10   -4.769974e-01
    2.931968e+01    1.631541e+02    1.685683e-07    1.449031e+02    5.428470e-09    1.561562e-13    4.587731e-10   -4.719974e-01
    2.931806e+01    1.631452e+02    1.951826e-07    1.677157e+02    5.430285e-09    1.625582e-13    4.800883e-10   -4.669974e-01
    2.931630e+01    1.631354e+02    2.259970e-07    1.940810e+02    5.433115e-09    1.692449e-13    5.025230e-10   -4.619974e-01
    2.931445e+01    1.631251e+02    2.616737e-07    2.245446e+02    5.437000e-09    1.762298e-13    5.261325e-10   -4.569974e-01
    2.931243e+01    1.631139e+02    3.029796e-07    2.597336e+02    5.441985e-09    1.835271e-13    5.509740e-10   -4.519974e-01
    2.931025e+01    1.631019e+02    3.508022e-07    3.003697e+02    5.448110e-09    1.911518e-13    5.771060e-10   -4.469974e-01
    2.930793e+01    1.630890e+02    4.061684e-07    3.472821e+02    5.455430e-09    1.991194e-13    6.045900e-10   -4.419974e-01
    2.930542e+01    1.630751e+02    4.702673e-07    4.014236e+02    5.463990e-09    2.074464e-13    6.334875e-10   -4.369974e-01
    2.930271e+01    1.630602e+02    5.444750e-07    4.638891e+02    5.473835e-09    2.161497e-13    6.638630e-10   -4.319974e-01
    2.929982e+01    1.630442e+02    6.303835e-07    5.359345e+02    5.485020e-09    2.252473e-13    6.957830e-10   -4.269974e-01
    2.929671e+01    1.630269e+02    7.298360e-07    6.190011e+02    5.497595e-09    2.347578e-13    7.293140e-10   -4.219974e-01
    2.929336e+01    1.630084e+02    8.449650e-07    7.147417e+02    5.511615e-09    2.447007e-13    7.645250e-10   -4.169974e-01
    2.928976e+01    1.629886e+02    9.782380e-07    8.250502e+02    5.527135e-09    2.550965e-13    8.014860e-10   -4.119974e-01
    2.928589e+01    1.629671e+02    1.132511e-06    9.520976e+02    5.544205e-09    2.659664e-13    8.402675e-10   -4.069974e-01
    2.928174e+01    1.629442e+02    1.311086e-06    1.098367e+03    5.562890e-09    2.773327e-13    8.809425e-10   -4.019974e-01
    2.927725e+01    1.629196e+02    1.517788e-06    1.266704e+03    5.583240e-09    2.892185e-13    9.235830e-10   -3.969974e-01
    2.927246e+01    1.628931e+02    1.757036e-06    1.460360e+03    5.605315e-09    3.016481e-13    9.682630e-10   -3.919974e-01
    2.926728e+01    1.628646e+02    2.033946e-06    1.683050e+03    5.629175e-09    3.146466e-13    1.015056e-09   -3.869974e-01
    2.926173e+01    1.628340e+02    2.354434e-06    1.939027e+03    5.654870e-09    3.282404e-13    1.064035e-09   -3.819974e-01
    2.925577e+01    1.628013e+02    2.725342e-06    2.233138e+03    5.682470e-09    3.424567e-13    1.115274e-09   -3.769974e-01
    2.924937e+01    1.627661e+02    3.154586e-06    2.570922e+03    5.712025e-09    3.573240e-13    1.168845e-09   -3.719974e-01
    2.924248e+01    1.627283e+02    3.651313e-06    2.958691e+03    5.743595e-09    3.728720e-13    1.224822e-09   -3.669974e-01
    2.923509e+01    1.626878e+02    4.226107e-06    3.403650e+03    5.777235e-09    3.891314e-13    1.283275e-09   -3.619974e-01
    2.922714e+01    1.626443e+02    4.891197e-06    3.914001e+03    5.813005e-09    4.061342e-13    1.344274e-09   -3.569974e-01
    2.921861e+01    1.625978e+02    5.660725e-06    4.499093e+03    5.850955e-09    4.239138e-13    1.407886e-09   -3.519974e-01
    2.920946e+01    1.625478e+02    6.551030e-06    5.169568e+03    5.891135e-09    4.425044e-13    1.474177e-09   -3.469974e-01
    2.919964e+01    1.624942e+02    7.581000e-06    5.937526e+03    5.933605e-09    4.619421e-13    1.543210e-09   -3.419974e-01
    2.918909e+01    1.624368e+02    8.772460e-06    6.816741e+03    5.978405e-09    4.822638e-13    1.615045e-09   -3.369974e-01
    2.917777e+01    1.623753e+02    1.015062e-05    7.822855e+03    6.025590e-09    5.035080e-13    1.689738e-09   -3.319974e-01
    2.916563e+01    1.623094e+02    1.174460e-05    8.973659e+03    6.075195e-09    5.257145e-13    1.767341e-09   -3.269974e-01
    2.915261e+01    1.622389e+02    1.358804e-05    1.028934e+04    6.127265e-09    5.489245e-13    1.847904e-09   -3.219974e-01
    2.913864e+01    1.621635e+02    1.571975e-05    1.179283e+04    6.181830e-09    5.731810e-13    1.931469e-09   -3.169974e-01
    2.912368e+01    1.620829e+02    1.818459e-05    1.351013e+04    6.238930e-09    5.985275e-13    2.018074e-09   -3.119974e-01
    2.910762e+01    1.619966e+02    2.103427e-05    1.547073e+04    6.298590e-09    6.250100e-13    2.107754e-09   -3.069974e-01
    2.909042e+01    1.619045e+02    2.432851e-05    1.770808e+04    6.360835e-09    6.526755e-13    2.200534e-09   -3.019974e-01
    2.907201e+01    1.618061e+02    2.813615e-05    2.026005e+04    6.425685e-09    6.815725e-13    2.296437e-09   -2.969974e-01
    2.905229e+01    1.617011e+02    3.253663e-05    2.316955e+04    6.493150e-09    7.117510e-13    2.395474e-09   -2.919974e-01
    2.903119e+01    1.615891e+02    3.762150e-05    2.648517e+04    6.563240e-09    7.432630e-13    2.497655e-09   -2.869974e-01
    2.900860e+01    1.614697e+02    4.349630e-05    3.026188e+04    6.635955e-09    7.761620e-13    2.602977e-09   -2.819974e-01
    2.898446e+01    1.613426e+02    5.028260e-05    3.456183e+04    6.711295e-09    8.105020e-13    2.711432e-09   -2.769974e-01
    2.895865e+01    1.612073e+02    5.812045e-05    3.945532e+04    6.789250e-09    8.463405e-13    2.823005e-09   -2.719974e-01
    2.893107e+01    1.610635e+02    6.717105e-05    4.502175e+04    6.869805e-09    8.837345e-13    2.937672e-09   -2.669974e-01
    2.890162e+01    1.609107e+02    7.762000e-05    5.135090e+04    6.952930e-09    9.227450e-13    3.055399e-09   -2.619974e-01
    2.887019e+01    1.607487e+02    8.968070e-05    5.854397e+04    7.038605e-09    9.634325e-13    3.176145e-09   -2.569974e-01
    2.883667e+01    1.605769e+02    1.035986e-04    6.671531e+04    7.126785e-09    1.005861e-12    3.299862e-09   -2.519974e-01
    2.880096e+01    1.603952e+02    1.196558e-04    7.599378e+04    7.217430e-09    1.050094e-12    3.426490e-09   -2.469974e-01
    2.876293e+01    1.602030e+02    1.381761e-04    8.652458e+04    7.310495e-09    1.096200e-12    3.555963e-09   -2.419974e-01
    2.872244e+01    1.600003e+02    1.595319e-04    9.847145e+04    7.405915e-09    1.144246e-12    3.688205e-09   -2.369974e-01
    2.867940e+01    1.597866e+02    1.841498e-04    1.120185e+05    7.503635e-09    1.194303e-12    3.823132e-09   -2.319974e-01
    2.863369e+01    1.595619e+02    2.125195e-04    1.273732e+05    7.603575e-09    1.246441e-12    3.960652e-09   -2.269974e-01
    2.858516e+01    1.593261e+02    2.452019e-04    1.447686e+05    7.705665e-09    1.300737e-12    4.100665e-09   -2.219974e-01
    2.853372e+01    1.590791e+02    2.828397e-04    1.644668e+05    7.809815e-09    1.357265e-12    4.243063e-09   -2.169974e-01
    2.847925e+01    1.588209e+02    3.261685e-04    1.867618e+05    7.915945e-09    1.416102e-12    4.387729e-09   -2.119974e-01
    2.842165e+01    1.585519e+02    3.760296e-04    2.119840e+05    8.023950e-09    1.477329e-12    4.534543e-09   -2.069974e-01
    2.836079e+01    1.582723e+02    4.333844e-04    2.405037e+05    8.133735e-09    1.541025e-12    4.683374e-09   -2.019974e-01
    2.829660e+01    1.579828e+02    4.993314e-04    2.727359e+05    8.245195e-09    1.607276e-12    4.834088e-09   -1.969974e-01
    2.822896e+01    1.576839e+02    5.751240e-04    3.091456e+05    8.358215e-09    1.676166e-12    4.986541e-09   -1.919974e-01
    2.815787e+01    1.573767e+02    6.621910e-04    3.502532e+05    8.472685e-09    1.747781e-12    5.140590e-09   -1.869974e-01
    2.808323e+01    1.570625e+02    7.621610e-04    3.966409e+05    8.588480e-09    1.822214e-12    5.296085e-09   -1.819974e-01
    2.800498e+01    1.567425e+02    8.768890e-04    4.489593e+05    8.705485e-09    1.899554e-12    5.452865e-09   -1.769974e-01
    2.792316e+01    1.564188e+02    1.008482e-03    5.079360e+05    8.823565e-09    1.979896e-12    5.610775e-09   -1.719974e-01
    2.783776e+01    1.560935e+02    1.159340e-03    5.743822e+05    8.942605e-09    2.063335e-12    5.769660e-09   -1.669974e-01
    2.774881e+01    1.557691e+02    1.332182e-03    6.492047e+05    9.062465e-09    2.149969e-12    5.929350e-09   -1.619974e-01
    2.765638e+01    1.554488e+02    1.530099e-03    7.334146e+05    9.183020e-09    2.239901e-12    6.089685e-09   -1.569974e-01
    2.756058e+01    1.551359e+02    1.756594e-03    8.281399e+05    9.304135e-09    2.333232e-12    6.250500e-09   -1.519974e-01
    2.746153e+01    1.548345e+02    2.015633e-03    9.346381e+05    9.425680e-09    2.430068e-12    6.411630e-09   -1.469974e-01
    2.735940e+01    1.545491e+02    2.311708e-03    1.054312e+06    9.547520e-09    2.530517e-12    6.572910e-09   -1.419974e-01
    2.725441e+01    1.542850e+02    2.649902e-03    1.188725e+06    9.669530e-09    2.634689e-12    6.734175e-09   -1.369974e-01
    2.714679e+01    1.540477e+02    3.035956e-03    1.339620e+06    9.791575e-09    2.742699e-12    6.895270e-09   -1.319974e-01
    2.703678e+01    1.538434e+02    3.476362e-03    1.508940e+06    9.913530e-09    2.854662e-12    7.056035e-09   -1.269974e-01
    2.692472e+01    1.536793e+02    3.978445e-03    1.698852e+06    1.003527e-08    2.970698e-12    7.216315e-09   -1.219974e-01
    2.681089e+01    1.535628e+02    4.550470e-03    1.911773e+06    1.015667e-08    3.090927e-12    7.375955e-09   -1.169974e-01
    2.669566e+01    1.535018e+02    5.201760e-03    2.150398e+06    1.027761e-08    3.215476e-12    7.534810e-09   -1.119974e-01
    2.657930e+01    1.535050e+02    5.942830e-03    2.417733e+06    1.039797e-08    3.344471e-12    7.692740e-09   -1.069974e-01
    2.646219e+01    1.535813e+02    6.785510e-03    2.717127e+06    1.051765e-08    3.478045e-12    7.849605e-09   -1.019974e-01
    2.634461e+01    1.537401e+02    7.743135e-03    3.052313e+06    1.063652e-08    3.616334e-12    8.005275e-09   -9.699740e-02
    2.622682e+01    1.539909e+02    8.830705e-03    3.427450e+06    1.075450e-08    3.759473e-12    8.159620e-09   -9.199740e-02
    2.610897e+01    1.543434e+02    1.006510e-02    3.847159e+06    1.087147e-08    3.907607e-12    8.312525e-09   -8.699740e-02
    2.599120e+01    1.548072e+02    1.146530e-02    4.316575e+06    1.098734e-08    4.060880e-12    8.463870e-09   -8.199740e-02
    2.587350e+01    1.553916e+02    1.305259e-02    4.841386e+06    1.110203e-08    4.219442e-12    8.613555e-09   -7.699740e-02
    2.575573e+01    1.561051e+02    1.485089e-02    5.427876e+06    1.121545e-08    4.383448e-12    8.761470e-09   -7.199740e-02
    2.563760e+01    1.569560e+02    1.688699e-02    6.082961e+06    1.132751e-08    4.553053e-12    8.907530e-09   -6.699740e-02
    2.551868e+01    1.579509e+02    1.919087e-02    6.814228e+06    1.143816e-08    4.728422e-12    9.051645e-09   -6.199740e-02
    2.539832e+01    1.590956e+02    2.179603e-02    7.629946e+06    1.154732e-08    4.909722e-12    9.193740e-09   -5.699740e-02
    2.527577e+01    1.603944e+02    2.473982e-02    8.539097e+06    1.165492e-08    5.097125e-12    9.333730e-09   -5.199740e-02
    2.514998e+01    1.618489e+02    2.806379e-02    9.551316e+06    1.176090e-08    5.290800e-12    9.471560e-09   -4.699740e-02
    2.501985e+01    1.634597e+02    3.181400e-02    1.067694e+07    1.186524e-08    5.490940e-12    9.607165e-09   -4.199740e-02
    2.488403e+01    1.652242e+02    3.604143e-02    1.192688e+07    1.196785e-08    5.697725e-12    9.740500e-09   -3.699740e-02
    2.474114e+01    1.671378e+02    4.080217e-02    1.331257e+07    1.206872e-08    5.911350e-12    9.871510e-09   -3.199740e-02
    2.458965e+01    1.691926e+02    4.615780e-02    1.484586e+07    1.216780e-08    6.132015e-12    1.000016e-08   -2.699740e-02
    2.442803e+01    1.713788e+02    5.217560e-02    1.653888e+07    1.226507e-08    6.359920e-12    1.012641e-08   -2.199740e-02
    2.425476e+01    1.736832e+02    5.892860e-02    1.840380e+07    1.236049e-08    6.595275e-12    1.025025e-08   -1.699740e-02
    2.406836e+01    1.760901e+02    6.649590e-02    2.045272e+07    1.245405e-08    6.838295e-12    1.037164e-08   -1.199740e-02
    2.386749e+01    1.785812e+02    7.496235e-02    2.269732e+07    1.254572e-08    7.089215e-12    1.049058e-08   -6.997400e-03
    2.365099e+01    1.811361e+02    8.441870e-02    2.514870e+07    1.263551e-08    7.348250e-12    1.060704e-08   -1.997400e-03
    2.341789e+01    1.837319e+02    9.496120e-02    2.781707e+07    1.272338e-08    7.615650e-12    1.072103e-08    3.002600e-03
    2.316749e+01    1.863447e+02    1.066913e-01    3.071147e+07    1.280936e-08    7.891655e-12    1.083255e-08    8.002600e-03
    2.289937e+01    1.889489e+02    1.197150e-01    3.383949e+07    1.289343e-08    8.176515e-12    1.094160e-08    1.300260e-02
    2.261341e+01    1.915184e+02    1.341425e-01    3.720706e+07    1.297559e-08    8.470495e-12    1.104819e-08    1.800260e-02
    2.230974e+01    1.940267e+02    1.500875e-01    4.081817e+07    1.305587e-08    8.773860e-12    1.115233e-08    2.300260e-02
    2.198886e+01    1.964475e+02    1.676656e-01    4.467471e+07    1.313425e-08    9.086895e-12    1.125404e-08    2.800260e-02
    2.165148e+01    1.987557e+02    1.869946e-01    4.877632e+07    1.321075e-08    9.409880e-12    1.135334e-08    3.300260e-02
    2.129861e+01    2.009270e+02    2.081921e-01    5.312034e+07    1.328540e-08    9.743120e-12    1.145025e-08    3.800260e-02
    2.093145e+01    2.029390e+02    2.313755e-01    5.770168e+07    1.335821e-08    1.008691e-11    1.154479e-08    4.300260e-02
    2.055140e+01    2.047712e+02    2.566604e-01    6.251303e+07    1.342919e-08    1.044157e-11    1.163700e-08    4.800260e-02
    2.015999e+01    2.064059e+02    2.841598e-01    6.754476e+07    1.349837e-08    1.080744e-11    1.172690e-08    5.300260e-02
    1.975888e+01    2.078276e+02    3.139826e-01    7.278521e+07    1.356578e-08    1.118485e-11    1.181454e-08    5.800260e-02
    1.934975e+01    2.090239e+02    3.462331e-01    7.822083e+07    1.363144e-08    1.157414e-11    1.189994e-08    6.300260e-02
    1.893437e+01    2.099852e+02    3.810097e-01    8.383651e+07    1.369538e-08    1.197568e-11    1.198314e-08    6.800260e-02
    1.851443e+01    2.107047e+02    4.184044e-01    8.961560e+07    1.375762e-08    1.238984e-11    1.206418e-08    7.300260e-02
    1.809166e+01    2.111790e+02    4.585019e-01    9.554072e+07    1.381819e-08    1.281702e-11    1.214310e-08    7.800260e-02
    1.766765e+01    2.114068e+02    5.013795e-01    1.015935e+08    1.387713e-08    1.325760e-11    1.221995e-08    8.300260e-02
    1.724399e+01    2.113898e+02    5.471055e-01    1.077552e+08    1.393447e-08    1.371201e-11    1.229475e-08    8.800260e-02
    1.682209e+01    2.111321e+02    5.957410e-01    1.140072e+08    1.399024e-08    1.418067e-11    1.236757e-08    9.300260e-02
    1.640331e+01    2.106398e+02    6.473375e-01    1.203308e+08    1.404448e-08    1.466401e-11    1.243843e-08    9.800260e-02
    1.598887e+01    2.099209e+02    7.019385e-01    1.267079e+08    1.409720e-08    1.516252e-11    1.250738e-08    1.030026e-01
    1.557982e+01    2.089852e+02    7.595800e-01    1.331211e+08    1.414847e-08    1.567664e-11    1.257448e-08    1.080026e-01
    1.517718e+01    2.078433e+02    8.202875e-01    1.395537e+08    1.419829e-08    1.620688e-11    1.263976e-08    1.130026e-01
    1.478176e+01    2.065075e+02    8.840815e-01    1.459902e+08    1.424672e-08    1.675375e-11    1.270325e-08    1.180026e-01
    1.439430e+01    2.049905e+02    9.509730e-01    1.524164e+08    1.429378e-08    1.731778e-11    1.276503e-08    1.230026e-01
    1.401539e+01    2.033056e+02    1.020968e+00    1.588193e+08    1.433951e-08    1.789950e-11    1.282512e-08    1.280026e-01
    1.364555e+01    2.014664e+02    1.094064e+00    1.651871e+08    1.438395e-08    1.849948e-11    1.288357e-08    1.330026e-01
    1.328515e+01    1.994865e+02    1.170256e+00    1.715095e+08    1.442712e-08    1.911831e-11    1.294042e-08    1.380026e-01
    1.293452e+01    1.973796e+02    1.249530e+00    1.777775e+08    1.446906e-08    1.975659e-11    1.299572e-08    1.430026e-01
    1.259385e+01    1.951589e+02    1.331871e+00    1.839835e+08    1.450981e-08    2.041495e-11    1.304951e-08    1.480026e-01
    1.226329e+01    1.928373e+02    1.417256e+00    1.901212e+08    1.454940e-08    2.109404e-11    1.310183e-08    1.530026e-01
    1.194291e+01    1.904273e+02    1.505664e+00    1.961854e+08    1.458786e-08    2.179454e-11    1.315272e-08    1.580026e-01
    1.163271e+01    1.879407e+02    1.597067e+00    2.021722e+08    1.462523e-08    2.251714e-11    1.320223e-08    1.630026e-01
    1.133264e+01    1.853889e+02    1.691437e+00    2.080786e+08    1.466153e-08    2.326256e-11    1.325040e-08    1.680026e-01
    1.104261e+01    1.827823e+02    1.788741e+00    2.139028e+08    1.469681e-08    2.403156e-11    1.329725e-08    1.730026e-01
    1.076249e+01    1.801305e+02    1.888949e+00    2.196435e+08    1.473109e-08    2.482492e-11    1.334285e-08    1.780026e-01
    1.049210e+01    1.774430e+02    1.992028e+00    2.253006e+08    1.476439e-08    2.564343e-11    1.338721e-08    1.830026e-01
    1.023125e+01    1.747279e+02    2.097944e+00    2.308745e+08    1.479676e-08    2.648794e-11    1.343039e-08    1.880026e-01
    9.979721e+00    1.719928e+02    2.206663e+00    2.363661e+08    1.482822e-08    2.735932e-11    1.347241e-08    1.930026e-01
    9.737267e+00    1.692448e+02    2.318151e+00    2.417770e+08    1.485880e-08    2.825846e-11    1.351332e-08    1.980026e-01
