# sky130 nfet_01v8 gm/ID Processed Lookup Table
# Corner: ff
# Temperature: 0C
# W = 2.0 um
# L = 3.24 um (3240 nm)
# Columns: gm/id [1/V]  gm/gds [V/V]  id/W [A/m]  ft [Hz]  Cgg/W [F/m]  Cgd/W [F/m]  Cgs/W [F/m]  Vov [V]
#         gm/id          gm/gds            id/W              ft           Cgg/W           Cgd/W           Cgs/W             Vov
    2.904407e+01    1.817961e+02    1.489826e-08    9.732967e+00    7.075675e-09    1.148865e-13    3.020806e-10   -5.517764e-01
    2.904352e+01    1.817927e+02    1.722675e-08    1.127442e+01    7.062825e-09    1.193375e-13    3.143150e-10   -5.467764e-01
    2.904296e+01    1.817892e+02    1.991912e-08    1.305867e+01    7.050695e-09    1.239732e-13    3.271816e-10   -5.417764e-01
    2.904233e+01    1.817853e+02    2.303219e-08    1.512367e+01    7.039305e-09    1.288021e-13    3.407160e-10   -5.367764e-01
    2.904167e+01    1.817811e+02    2.663172e-08    1.751326e+01    7.028680e-09    1.338331e-13    3.549556e-10   -5.317764e-01
    2.904095e+01    1.817767e+02    3.079368e-08    2.027809e+01    7.018845e-09    1.390757e-13    3.699390e-10   -5.267764e-01
    2.904017e+01    1.817718e+02    3.560594e-08    2.347655e+01    7.009830e-09    1.445398e-13    3.857074e-10   -5.217764e-01
    2.903934e+01    1.817666e+02    4.117006e-08    2.717608e+01    7.001670e-09    1.502356e-13    4.023048e-10   -5.167764e-01
    2.903845e+01    1.817611e+02    4.760348e-08    3.145442e+01    6.994400e-09    1.561741e-13    4.197766e-10   -5.117764e-01
    2.903748e+01    1.817550e+02    5.504195e-08    3.640132e+01    6.988045e-09    1.623666e-13    4.381701e-10   -5.067764e-01
    2.903645e+01    1.817486e+02    6.364245e-08    4.212021e+01    6.982645e-09    1.688252e-13    4.575350e-10   -5.017764e-01
    2.903533e+01    1.817416e+02    7.358640e-08    4.873021e+01    6.978245e-09    1.755624e-13    4.779231e-10   -4.967764e-01
    2.903414e+01    1.817342e+02    8.508355e-08    5.636874e+01    6.974875e-09    1.825913e-13    4.993886e-10   -4.917764e-01
    2.903285e+01    1.817261e+02    9.837645e-08    6.519398e+01    6.972580e-09    1.899257e-13    5.219880e-10   -4.867764e-01
    2.903148e+01    1.817176e+02    1.137454e-07    7.538808e+01    6.971405e-09    1.975803e-13    5.457795e-10   -4.817764e-01
    2.903000e+01    1.817083e+02    1.315143e-07    8.716067e+01    6.971395e-09    2.055701e-13    5.708245e-10   -4.767764e-01
    2.902841e+01    1.816984e+02    1.520580e-07    1.007530e+02    6.972600e-09    2.139111e-13    5.971870e-10   -4.717764e-01
    2.902671e+01    1.816878e+02    1.758093e-07    1.164425e+02    6.975065e-09    2.226199e-13    6.249320e-10   -4.667764e-01
    2.902486e+01    1.816762e+02    2.032687e-07    1.345481e+02    6.978840e-09    2.317139e-13    6.541285e-10   -4.617764e-01
    2.902289e+01    1.816639e+02    2.350147e-07    1.554363e+02    6.983985e-09    2.412118e-13    6.848460e-10   -4.567764e-01
    2.902077e+01    1.816507e+02    2.717160e-07    1.795281e+02    6.990555e-09    2.511323e-13    7.171585e-10   -4.517764e-01
    2.901847e+01    1.816364e+02    3.141453e-07    2.073070e+02    6.998600e-09    2.614958e-13    7.511405e-10   -4.467764e-01
    2.901602e+01    1.816212e+02    3.631957e-07    2.393278e+02    7.008185e-09    2.723231e-13    7.868690e-10   -4.417764e-01
    2.901339e+01    1.816048e+02    4.198995e-07    2.762269e+02    7.019370e-09    2.836363e-13    8.244245e-10   -4.367764e-01
    2.901056e+01    1.815872e+02    4.854496e-07    3.187339e+02    7.032215e-09    2.954583e-13    8.638875e-10   -4.317764e-01
    2.900752e+01    1.815683e+02    5.612245e-07    3.676851e+02    7.046790e-09    3.078133e-13    9.053420e-10   -4.267764e-01
    2.900426e+01    1.815480e+02    6.488165e-07    4.240383e+02    7.063155e-09    3.207262e-13    9.488735e-10   -4.217764e-01
    2.900076e+01    1.815262e+02    7.500670e-07    4.888905e+02    7.081380e-09    3.342235e-13    9.945680e-10   -4.167764e-01
    2.899698e+01    1.815028e+02    8.671025e-07    5.634968e+02    7.101530e-09    3.483324e-13    1.042514e-09   -4.117764e-01
    2.899293e+01    1.814777e+02    1.002380e-06    6.492922e+02    7.123680e-09    3.630816e-13    1.092802e-09   -4.067764e-01
    2.898858e+01    1.814507e+02    1.158737e-06    7.479173e+02    7.147900e-09    3.785009e-13    1.145521e-09   -4.017764e-01
    2.898392e+01    1.814218e+02    1.339454e-06    8.612474e+02    7.174260e-09    3.946215e-13    1.200763e-09   -3.967764e-01
    2.897890e+01    1.813907e+02    1.548319e-06    9.914232e+02    7.202830e-09    4.114759e-13    1.258621e-09   -3.917764e-01
    2.897353e+01    1.813575e+02    1.789705e-06    1.140889e+03    7.233685e-09    4.290978e-13    1.319186e-09   -3.867764e-01
    2.896773e+01    1.813216e+02    2.068666e-06    1.312429e+03    7.266900e-09    4.475226e-13    1.382550e-09   -3.817764e-01
    2.896153e+01    1.812833e+02    2.391037e-06    1.509225e+03    7.302540e-09    4.667870e-13    1.448804e-09   -3.767764e-01
    2.895486e+01    1.812422e+02    2.763557e-06    1.734896e+03    7.340685e-09    4.869290e-13    1.518040e-09   -3.717764e-01
    2.894770e+01    1.811981e+02    3.194003e-06    1.993567e+03    7.381400e-09    5.079885e-13    1.590347e-09   -3.667764e-01
    2.894004e+01    1.811509e+02    3.691358e-06    2.289934e+03    7.424760e-09    5.300070e-13    1.665813e-09   -3.617764e-01
    2.893179e+01    1.811002e+02    4.265991e-06    2.629338e+03    7.470830e-09    5.530270e-13    1.744523e-09   -3.567764e-01
    2.892296e+01    1.810459e+02    4.929865e-06    3.017857e+03    7.519675e-09    5.770930e-13    1.826561e-09   -3.517764e-01
    2.891348e+01    1.809878e+02    5.696790e-06    3.462392e+03    7.571370e-09    6.022515e-13    1.912007e-09   -3.467764e-01
    2.890331e+01    1.809256e+02    6.582700e-06    3.970791e+03    7.625965e-09    6.285505e-13    2.000938e-09   -3.417764e-01
    2.889240e+01    1.808590e+02    7.605980e-06    4.551961e+03    7.683525e-09    6.560400e-13    2.093426e-09   -3.367764e-01
    2.888071e+01    1.807877e+02    8.787830e-06    5.216007e+03    7.744110e-09    6.847710e-13    2.189541e-09   -3.317764e-01
    2.886818e+01    1.807114e+02    1.015271e-05    5.974410e+03    7.807760e-09    7.147970e-13    2.289345e-09   -3.267764e-01
    2.885476e+01    1.806299e+02    1.172881e-05    6.840161e+03    7.874540e-09    7.461735e-13    2.392896e-09   -3.217764e-01
    2.884036e+01    1.805427e+02    1.354865e-05    7.828008e+03    7.944480e-09    7.789580e-13    2.500246e-09   -3.167764e-01
    2.882496e+01    1.804496e+02    1.564967e-05    8.954652e+03    8.017620e-09    8.132090e-13    2.611440e-09   -3.117764e-01
    2.880845e+01    1.803501e+02    1.807508e-05    1.023899e+04    8.094000e-09    8.489880e-13    2.726518e-09   -3.067764e-01
    2.879081e+01    1.802442e+02    2.087460e-05    1.170244e+04    8.173645e-09    8.863585e-13    2.845507e-09   -3.017764e-01
    2.877190e+01    1.801309e+02    2.410550e-05    1.336919e+04    8.256570e-09    9.253850e-13    2.968433e-09   -2.967764e-01
    2.875169e+01    1.800103e+02    2.783376e-05    1.526665e+04    8.342795e-09    9.661350e-13    3.095308e-09   -2.917764e-01
    2.873007e+01    1.798819e+02    3.213528e-05    1.742575e+04    8.432330e-09    1.008679e-12    3.226139e-09   -2.867764e-01
    2.870697e+01    1.797450e+02    3.709744e-05    1.988146e+04    8.525170e-09    1.053087e-12    3.360921e-09   -2.817764e-01
    2.868229e+01    1.795997e+02    4.282071e-05    2.267328e+04    8.621315e-09    1.099433e-12    3.499641e-09   -2.767764e-01
    2.865595e+01    1.794451e+02    4.942064e-05    2.584579e+04    8.720740e-09    1.147794e-12    3.642275e-09   -2.717764e-01
    2.862782e+01    1.792810e+02    5.703005e-05    2.944927e+04    8.823435e-09    1.198248e-12    3.788791e-09   -2.667764e-01
    2.859782e+01    1.791070e+02    6.580155e-05    3.354047e+04    8.929355e-09    1.250875e-12    3.939143e-09   -2.617764e-01
    2.856586e+01    1.789228e+02    7.591035e-05    3.818328e+04    9.038475e-09    1.305758e-12    4.093279e-09   -2.567764e-01
    2.853180e+01    1.787278e+02    8.755770e-05    4.344979e+04    9.150735e-09    1.362982e-12    4.251132e-09   -2.517764e-01
    2.849554e+01    1.785219e+02    1.009745e-04    4.942105e+04    9.266090e-09    1.422636e-12    4.412627e-09   -2.467764e-01
    2.845698e+01    1.783045e+02    1.164253e-04    5.618841e+04    9.384465e-09    1.484807e-12    4.577679e-09   -2.417764e-01
    2.841599e+01    1.780756e+02    1.342137e-04    6.385447e+04    9.505795e-09    1.549591e-12    4.746189e-09   -2.367764e-01
    2.837247e+01    1.778349e+02    1.546872e-04    7.253469e+04    9.629995e-09    1.617082e-12    4.918053e-09   -2.317764e-01
    2.832631e+01    1.775824e+02    1.782440e-04    8.235878e+04    9.756975e-09    1.687377e-12    5.093150e-09   -2.267764e-01
    2.827737e+01    1.773178e+02    2.053393e-04    9.347216e+04    9.886645e-09    1.760575e-12    5.271355e-09   -2.217764e-01
    2.822555e+01    1.770414e+02    2.364939e-04    1.060383e+05    1.001889e-08    1.836781e-12    5.452535e-09   -2.167764e-01
    2.817076e+01    1.767532e+02    2.723027e-04    1.202405e+05    1.015360e-08    1.916099e-12    5.636540e-09   -2.117764e-01
    2.811291e+01    1.764539e+02    3.134453e-04    1.362839e+05    1.029066e-08    1.998637e-12    5.823215e-09   -2.067764e-01
    2.805189e+01    1.761437e+02    3.606970e-04    1.543985e+05    1.042994e-08    2.084506e-12    6.012395e-09   -2.017764e-01
    2.798761e+01    1.758235e+02    4.149418e-04    1.748417e+05    1.057130e-08    2.173821e-12    6.203920e-09   -1.967764e-01
    2.792002e+01    1.754942e+02    4.771872e-04    1.979011e+05    1.071461e-08    2.266698e-12    6.397605e-09   -1.917764e-01
    2.784905e+01    1.751570e+02    5.485800e-04    2.238986e+05    1.085973e-08    2.363257e-12    6.593270e-09   -1.867764e-01
    2.777468e+01    1.748135e+02    6.304245e-04    2.531937e+05    1.100650e-08    2.463618e-12    6.790730e-09   -1.817764e-01
    2.769688e+01    1.744657e+02    7.242045e-04    2.861877e+05    1.115479e-08    2.567911e-12    6.989785e-09   -1.767764e-01
    2.761565e+01    1.741155e+02    8.316040e-04    3.233286e+05    1.130441e-08    2.676262e-12    7.190240e-09   -1.717764e-01
    2.753101e+01    1.737658e+02    9.545355e-04    3.651158e+05    1.145523e-08    2.788803e-12    7.391895e-09   -1.667764e-01
    2.744305e+01    1.734198e+02    1.095166e-03    4.121067e+05    1.160708e-08    2.905672e-12    7.594550e-09   -1.617764e-01
    2.735182e+01    1.730810e+02    1.255953e-03    4.649223e+05    1.175979e-08    3.027005e-12    7.798000e-09   -1.567764e-01
    2.725746e+01    1.727536e+02    1.439677e-03    5.242548e+05    1.191320e-08    3.152946e-12    8.002035e-09   -1.517764e-01
    2.716011e+01    1.724422e+02    1.649487e-03    5.908753e+05    1.206715e-08    3.283641e-12    8.206455e-09   -1.467764e-01
    2.705995e+01    1.721524e+02    1.888939e-03    6.656437e+05    1.222147e-08    3.419239e-12    8.411055e-09   -1.417764e-01
    2.695720e+01    1.718899e+02    2.162055e-03    7.495168e+05    1.237600e-08    3.559894e-12    8.615635e-09   -1.367764e-01
    2.685210e+01    1.716614e+02    2.473375e-03    8.435622e+05    1.253058e-08    3.705765e-12    8.819990e-09   -1.317764e-01
    2.674495e+01    1.714744e+02    2.828020e-03    9.489690e+05    1.268506e-08    3.857012e-12    9.023930e-09   -1.267764e-01
    2.663604e+01    1.713367e+02    3.231770e-03    1.067063e+06    1.283927e-08    4.013802e-12    9.227255e-09   -1.217764e-01
    2.652568e+01    1.712569e+02    3.691138e-03    1.199322e+06    1.299305e-08    4.176305e-12    9.429780e-09   -1.167764e-01
    2.641420e+01    1.712441e+02    4.213463e-03    1.347393e+06    1.314627e-08    4.344695e-12    9.631320e-09   -1.117764e-01
    2.630193e+01    1.713083e+02    4.807011e-03    1.513112e+06    1.329878e-08    4.519154e-12    9.831705e-09   -1.067764e-01
    2.618918e+01    1.714594e+02    5.481085e-03    1.698527e+06    1.345042e-08    4.699864e-12    1.003076e-08   -1.017764e-01
    2.607620e+01    1.717080e+02    6.246160e-03    1.905916e+06    1.360109e-08    4.887015e-12    1.022831e-08   -9.677640e-02
    2.596324e+01    1.720649e+02    7.114005e-03    2.137817e+06    1.375063e-08    5.080805e-12    1.042421e-08   -9.177640e-02
    2.585046e+01    1.725410e+02    8.097855e-03    2.397049e+06    1.389893e-08    5.281430e-12    1.061831e-08   -8.677640e-02
    2.573788e+01    1.731468e+02    9.212585e-03    2.686742e+06    1.404587e-08    5.489095e-12    1.081045e-08   -8.177640e-02
    2.562551e+01    1.738926e+02    1.047486e-02    3.010357e+06    1.419133e-08    5.704015e-12    1.100053e-08   -7.677640e-02
    2.551313e+01    1.747881e+02    1.190342e-02    3.371719e+06    1.433521e-08    5.926410e-12    1.118839e-08   -7.177640e-02
    2.540042e+01    1.758420e+02    1.351918e-02    3.775030e+06    1.447742e-08    6.156495e-12    1.137393e-08   -6.677640e-02
    2.528689e+01    1.770620e+02    1.534559e-02    4.224892e+06    1.461785e-08    6.394510e-12    1.155704e-08   -6.177640e-02
    2.517186e+01    1.784540e+02    1.740880e-02    4.726321e+06    1.475643e-08    6.640690e-12    1.173762e-08   -5.677640e-02
    2.505450e+01    1.800224e+02    1.973794e-02    5.284742e+06    1.489307e-08    6.895275e-12    1.191557e-08   -5.177640e-02
    2.493378e+01    1.817694e+02    2.236541e-02    5.905986e+06    1.502770e-08    7.158520e-12    1.209082e-08   -4.677640e-02
    2.480853e+01    1.836949e+02    2.532706e-02    6.596282e+06    1.516026e-08    7.430685e-12    1.226328e-08   -4.177640e-02
    2.467741e+01    1.857960e+02    2.866253e-02    7.362192e+06    1.529069e-08    7.712035e-12    1.243290e-08   -3.677640e-02
    2.453902e+01    1.880674e+02    3.241545e-02    8.210604e+06    1.541894e-08    8.002845e-12    1.259961e-08   -3.177640e-02
    2.439186e+01    1.905005e+02    3.663362e-02    9.148621e+06    1.554495e-08    8.303400e-12    1.276336e-08   -2.677640e-02
    2.423439e+01    1.930836e+02    4.136920e-02    1.018349e+07    1.566869e-08    8.613995e-12    1.292410e-08   -2.177640e-02
    2.406515e+01    1.958024e+02    4.667883e-02    1.132252e+07    1.579013e-08    8.934935e-12    1.308182e-08   -1.677640e-02
    2.388268e+01    1.986393e+02    5.262365e-02    1.257288e+07    1.590924e-08    9.266520e-12    1.323647e-08   -1.177640e-02
    2.368570e+01    2.015741e+02    5.926940e-02    1.394158e+07    1.602600e-08    9.609085e-12    1.338804e-08   -6.776400e-03
    2.347310e+01    2.045839e+02    6.668615e-02    1.543521e+07    1.614038e-08    9.962955e-12    1.353651e-08   -1.776400e-03
    2.324398e+01    2.076437e+02    7.494815e-02    1.705982e+07    1.625238e-08    1.032847e-11    1.368187e-08    3.223600e-03
    2.299765e+01    2.107267e+02    8.413380e-02    1.882078e+07    1.636200e-08    1.070599e-11    1.382412e-08    8.223600e-03
    2.273377e+01    2.138047e+02    9.432480e-02    2.072260e+07    1.646923e-08    1.109589e-11    1.396327e-08    1.322360e-02
    2.245223e+01    2.168486e+02    1.056062e-01    2.276879e+07    1.657407e-08    1.149853e-11    1.409933e-08    1.822360e-02
    2.215324e+01    2.198291e+02    1.180653e-01    2.496169e+07    1.667652e-08    1.191431e-11    1.423230e-08    2.322360e-02
    2.183727e+01    2.227172e+02    1.317915e-01    2.730243e+07    1.677662e-08    1.234362e-11    1.436220e-08    2.822360e-02
    2.150508e+01    2.254844e+02    1.468752e-01    2.979082e+07    1.687435e-08    1.278690e-11    1.448908e-08    3.322360e-02
    2.115764e+01    2.281037e+02    1.634073e-01    3.242526e+07    1.696975e-08    1.324457e-11    1.461294e-08    3.822360e-02
    2.079616e+01    2.305500e+02    1.814783e-01    3.520279e+07    1.706282e-08    1.371708e-11    1.473383e-08    4.322360e-02
    2.042201e+01    2.328001e+02    2.011773e-01    3.811903e+07    1.715361e-08    1.420488e-11    1.485176e-08    4.822360e-02
    2.003670e+01    2.348335e+02    2.225913e-01    4.116835e+07    1.724213e-08    1.470846e-11    1.496679e-08    5.322360e-02
    1.964183e+01    2.366326e+02    2.458047e-01    4.434386e+07    1.732841e-08    1.522832e-11    1.507895e-08    5.822360e-02
    1.923906e+01    2.381826e+02    2.708981e-01    4.763751e+07    1.741249e-08    1.576496e-11    1.518829e-08    6.322360e-02
    1.883012e+01    2.394723e+02    2.979477e-01    5.104044e+07    1.749439e-08    1.631890e-11    1.529485e-08    6.822360e-02
    1.841666e+01    2.404931e+02    3.270249e-01    5.454276e+07    1.757416e-08    1.689071e-11    1.539868e-08    7.322360e-02
    1.800033e+01    2.412398e+02    3.581958e-01    5.813416e+07    1.765182e-08    1.748094e-11    1.549983e-08    7.822360e-02
    1.758273e+01    2.417106e+02    3.915204e-01    6.180380e+07    1.772742e-08    1.809019e-11    1.559834e-08    8.322360e-02
    1.716535e+01    2.419058e+02    4.270526e-01    6.554053e+07    1.780100e-08    1.871907e-11    1.569428e-08    8.822360e-02
    1.674963e+01    2.418291e+02    4.648403e-01    6.933323e+07    1.787259e-08    1.936819e-11    1.578768e-08    9.322360e-02
    1.633683e+01    2.414859e+02    5.049245e-01    7.317080e+07    1.794223e-08    2.003822e-11    1.587862e-08    9.822360e-02
    1.592819e+01    2.408846e+02    5.473395e-01    7.704243e+07    1.800998e-08    2.072984e-11    1.596713e-08    1.032236e-01
    1.552474e+01    2.400346e+02    5.921140e-01    8.093766e+07    1.807587e-08    2.144374e-11    1.605328e-08    1.082236e-01
    1.512744e+01    2.389472e+02    6.392700e-01    8.484656e+07    1.813994e-08    2.218064e-11    1.613713e-08    1.132236e-01
    1.473714e+01    2.376351e+02    6.888235e-01    8.875987e+07    1.820223e-08    2.294132e-11    1.621871e-08    1.182236e-01
    1.435451e+01    2.361117e+02    7.407855e-01    9.266884e+07    1.826279e-08    2.372654e-11    1.629811e-08    1.232236e-01
    1.398018e+01    2.343911e+02    7.951605e-01    9.656568e+07    1.832166e-08    2.453711e-11    1.637536e-08    1.282236e-01
    1.361463e+01    2.324879e+02    8.519495e-01    1.004432e+08    1.837889e-08    2.537387e-11    1.645052e-08    1.332236e-01
    1.325826e+01    2.304168e+02    9.111485e-01    1.042952e+08    1.843452e-08    2.623771e-11    1.652364e-08    1.382236e-01
    1.291139e+01    2.281928e+02    9.727485e-01    1.081160e+08    1.848858e-08    2.712950e-11    1.659479e-08    1.432236e-01
    1.257422e+01    2.258304e+02    1.036739e+00    1.119011e+08    1.854113e-08    2.805019e-11    1.666402e-08    1.482236e-01
    1.224690e+01    2.233437e+02    1.103105e+00    1.156465e+08    1.859220e-08    2.900076e-11    1.673136e-08    1.532236e-01
    1.192950e+01    2.207467e+02    1.171829e+00    1.193487e+08    1.864184e-08    2.998220e-11    1.679690e-08    1.582236e-01
    1.162205e+01    2.180524e+02    1.242892e+00    1.230056e+08    1.869009e-08    3.099557e-11    1.686066e-08    1.632236e-01
    1.132451e+01    2.152737e+02    1.316271e+00    1.266150e+08    1.873698e-08    3.204194e-11    1.692271e-08    1.682236e-01
    1.103678e+01    2.124220e+02    1.391945e+00    1.301756e+08    1.878257e-08    3.312245e-11    1.698309e-08    1.732236e-01
    1.075876e+01    2.095087e+02    1.469889e+00    1.336868e+08    1.882688e-08    3.423827e-11    1.704185e-08    1.782236e-01
    1.049028e+01    2.065443e+02    1.550078e+00    1.371482e+08    1.886995e-08    3.539059e-11    1.709904e-08    1.832236e-01
    1.023116e+01    2.035382e+02    1.632488e+00    1.405599e+08    1.891183e-08    3.658069e-11    1.715471e-08    1.882236e-01
    9.981183e+00    2.004992e+02    1.717092e+00    1.439223e+08    1.895256e-08    3.780986e-11    1.720890e-08    1.932236e-01
    9.740133e+00    1.974357e+02    1.803866e+00    1.472363e+08    1.899216e-08    3.907947e-11    1.726167e-08    1.982236e-01
    9.507757e+00    1.943546e+02    1.892783e+00    1.505029e+08    1.903068e-08    4.039092e-11    1.731304e-08    2.032236e-01
