# sky130 nfet_01v8 gm/ID Processed Lookup Table
# Corner: sf
# Temperature: 85C
# W = 2.0 um
# L = 4.5 um (4500 nm)
# Columns: gm/id [1/V]  gm/gds [V/V]  id/W [A/m]  ft [Hz]  Cgg/W [F/m]  Cgd/W [F/m]  Cgs/W [F/m]  Cdb/W [F/m]  vgs [V]  vth [V]  vdsat [V]
# vdsat = BSIM4 saturation voltage (|VDS|_sat, positive); use for headroom / saturation / cascode-bias calculations
#           gm/id          gm/gds            id/W              ft           Cgg/W           Cgd/W           Cgs/W           Cdb/W             vgs             vth           vdsat
    2.144175e+01    2.013772e+02    4.643767e-05    1.304000e+04    1.215271e-08    2.044106e-12    4.782847e-09    6.719790e-10    1.300000e-01    4.470989e-01    4.651457e-02
    2.143554e+01    2.010900e+02    5.754140e-05    1.589612e+04    1.234935e-08    2.186066e-12    5.087040e-09    7.063290e-10    1.400000e-01    4.470989e-01    4.652201e-02
    2.142067e+01    2.007786e+02    7.129260e-05    1.935583e+04    1.255700e-08    2.337942e-12    5.404015e-09    7.417405e-10    1.500000e-01    4.470989e-01    4.653123e-02
    2.139790e+01    2.004418e+02    8.831340e-05    2.354180e+04    1.277551e-08    2.500386e-12    5.733555e-09    7.781720e-10    1.600000e-01    4.470989e-01    4.654263e-02
    2.136782e+01    2.000791e+02    1.093689e-04    2.860054e+04    1.300469e-08    2.674085e-12    6.075380e-09    8.155740e-10    1.700000e-01    4.470989e-01    4.655672e-02
    2.133088e+01    1.996904e+02    1.353990e-04    3.470696e+04    1.324425e-08    2.859769e-12    6.429125e-09    8.538905e-10    1.800000e-01    4.470989e-01    4.657413e-02
    2.128735e+01    1.992762e+02    1.675568e-04    4.206945e+04    1.349388e-08    3.058208e-12    6.794350e-09    8.930580e-10    1.900000e-01    4.470989e-01    4.659563e-02
    2.123747e+01    1.988376e+02    2.072553e-04    5.093608e+04    1.375318e-08    3.270217e-12    7.170525e-09    9.330075e-10    2.000000e-01    4.470989e-01    4.662214e-02
    2.118138e+01    1.983768e+02    2.562236e-04    6.160179e+04    1.402169e-08    3.496658e-12    7.557070e-09    9.736635e-10    2.100000e-01    4.470989e-01    4.665480e-02
    2.111924e+01    1.978974e+02    3.165746e-04    7.441695e+04    1.429890e-08    3.738440e-12    7.953305e-09    1.014946e-09    2.200000e-01    4.470989e-01    4.669499e-02
    2.105117e+01    1.974039e+02    3.908859e-04    8.979706e+04    1.458426e-08    3.996526e-12    8.358510e-09    1.056769e-09    2.300000e-01    4.470989e-01    4.674439e-02
    2.097731e+01    1.969030e+02    4.822983e-04    1.082346e+05    1.487714e-08    4.271936e-12    8.771885e-09    1.099042e-09    2.400000e-01    4.470989e-01    4.680503e-02
    2.089787e+01    1.964033e+02    5.946325e-04    1.303131e+05    1.517689e-08    4.565745e-12    9.192580e-09    1.141675e-09    2.500000e-01    4.470989e-01    4.687934e-02
    2.081316e+01    1.959164e+02    7.325290e-04    1.567232e+05    1.548280e-08    4.879092e-12    9.619705e-09    1.184570e-09    2.600000e-01    4.470989e-01    4.697027e-02
    2.072351e+01    1.954562e+02    9.016175e-04    1.882823e+05    1.579415e-08    5.213180e-12    1.005232e-08    1.227631e-09    2.700000e-01    4.470989e-01    4.708131e-02
    2.062942e+01    1.950402e+02    1.108716e-03    2.259579e+05    1.611016e-08    5.569290e-12    1.048945e-08    1.270762e-09    2.800000e-01    4.470989e-01    4.721665e-02
    2.053149e+01    1.946896e+02    1.362076e-03    2.708961e+05    1.643007e-08    5.948765e-12    1.093013e-08    1.313863e-09    2.900000e-01    4.470989e-01    4.738126e-02
    2.043048e+01    1.944296e+02    1.671669e-03    3.244553e+05    1.675306e-08    6.353035e-12    1.137334e-08    1.356838e-09    3.000000e-01    4.470989e-01    4.758097e-02
    2.032725e+01    1.942900e+02    2.049534e-03    3.882474e+05    1.707834e-08    6.783615e-12    1.181807e-08    1.399593e-09    3.100000e-01    4.470989e-01    4.782264e-02
    2.022279e+01    1.943047e+02    2.510202e-03    4.641876e+05    1.740510e-08    7.242110e-12    1.226332e-08    1.442036e-09    3.200000e-01    4.470989e-01    4.811426e-02
    2.011814e+01    1.945123e+02    3.071198e-03    5.545555e+05    1.773253e-08    7.730215e-12    1.270811e-08    1.484077e-09    3.300000e-01    4.470989e-01    4.846509e-02
    2.001436e+01    1.949554e+02    3.753652e-03    6.620658e+05    1.805988e-08    8.249745e-12    1.315146e-08    1.525634e-09    3.400000e-01    4.470989e-01    4.888575e-02
    1.991244e+01    1.956803e+02    4.583035e-03    7.899548e+05    1.838635e-08    8.802605e-12    1.359246e-08    1.566626e-09    3.500000e-01    4.470989e-01    4.938833e-02
    1.981317e+01    1.967357e+02    5.590045e-03    9.420783e+05    1.871123e-08    9.390830e-12    1.403018e-08    1.606978e-09    3.600000e-01    4.470989e-01    4.998649e-02
    1.971704e+01    1.981716e+02    6.811655e-03    1.123023e+06    1.903381e-08    1.001658e-11    1.446378e-08    1.646622e-09    3.700000e-01    4.470989e-01    5.069550e-02
    1.962405e+01    2.000372e+02    8.292390e-03    1.338231e+06    1.935341e-08    1.068215e-11    1.489244e-08    1.685495e-09    3.800000e-01    4.470989e-01    5.153223e-02
    1.953361e+01    2.023784e+02    1.008576e-02    1.594116e+06    1.966940e-08    1.138997e-11    1.531542e-08    1.723540e-09    3.900000e-01    4.470989e-01    5.251509e-02
    1.944436e+01    2.052351e+02    1.225599e-02    1.898192e+06    1.998122e-08    1.214265e-11    1.573201e-08    1.760708e-09    4.000000e-01    4.470989e-01    5.366392e-02
    1.935413e+01    2.086386e+02    1.487987e-02    2.259161e+06    2.028830e-08    1.294295e-11    1.614158e-08    1.796955e-09    4.100000e-01    4.470989e-01    5.499981e-02
    1.925986e+01    2.126070e+02    1.804888e-02    2.686977e+06    2.059016e-08    1.379381e-11    1.654354e-08    1.832245e-09    4.200000e-01    4.470989e-01    5.654477e-02
    1.915766e+01    2.171428e+02    2.187140e-02    3.192836e+06    2.088635e-08    1.469837e-11    1.693740e-08    1.866546e-09    4.300000e-01    4.470989e-01    5.832136e-02
    1.904296e+01    2.222294e+02    2.647485e-02    3.789085e+06    2.117648e-08    1.565997e-11    1.732269e-08    1.899837e-09    4.400000e-01    4.470989e-01    6.035228e-02
    1.891078e+01    2.278289e+02    3.200784e-02    4.489023e+06    2.146021e-08    1.668218e-11    1.769902e-08    1.932097e-09    4.500000e-01    4.470989e-01    6.265976e-02
    1.875598e+01    2.338797e+02    3.864183e-02    5.306562e+06    2.173724e-08    1.776881e-11    1.806609e-08    1.963316e-09    4.600000e-01    4.470989e-01    6.526500e-02
    1.857366e+01    2.402964e+02    4.657242e-02    6.255750e+06    2.200732e-08    1.892392e-11    1.842360e-08    1.993487e-09    4.700000e-01    4.470989e-01    6.818757e-02
    1.835958e+01    2.469710e+02    5.601965e-02    7.350182e+06    2.227025e-08    2.015187e-11    1.877137e-08    2.022608e-09    4.800000e-01    4.470989e-01    7.144470e-02
    1.811037e+01    2.537751e+02    6.722755e-02    8.602268e+06    2.252588e-08    2.145729e-11    1.910923e-08    2.050685e-09    4.900000e-01    4.470989e-01    7.505073e-02
    1.782395e+01    2.605634e+02    8.046210e-02    1.002247e+07    2.277408e-08    2.284516e-11    1.943708e-08    2.077724e-09    5.000000e-01    4.470989e-01    7.901652e-02
    1.749956e+01    2.671795e+02    9.600835e-02    1.161848e+07    2.301479e-08    2.432079e-11    1.975487e-08    2.103737e-09    5.100000e-01    4.470989e-01    8.334906e-02
    1.713785e+01    2.734618e+02    1.141659e-01    1.339454e+07    2.324796e-08    2.588989e-11    2.006260e-08    2.128741e-09    5.200000e-01    4.470989e-01    8.805108e-02
    1.674079e+01    2.792506e+02    1.352432e-01    1.535083e+07    2.347360e-08    2.755855e-11    2.036028e-08    2.152755e-09    5.300000e-01    4.470989e-01    9.312096e-02
    1.631158e+01    2.843948e+02    1.595506e-01    1.748308e+07    2.369172e-08    2.933333e-11    2.064801e-08    2.175800e-09    5.400000e-01    4.470989e-01    9.855265e-02
    1.585428e+01    2.887584e+02    1.873938e-01    1.978247e+07    2.390239e-08    3.122122e-11    2.092588e-08    2.197901e-09    5.500000e-01    4.470989e-01    1.043359e-01
    1.537370e+01    2.922262e+02    2.190652e-01    2.223577e+07    2.410569e-08    3.322976e-11    2.119401e-08    2.219084e-09    5.600000e-01    4.470989e-01    1.104565e-01
    1.487500e+01    2.947080e+02    2.548374e-01    2.482578e+07    2.430174e-08    3.536704e-11    2.145259e-08    2.239378e-09    5.700000e-01    4.470989e-01    1.168968e-01
    1.436352e+01    2.961413e+02    2.949561e-01    2.753203e+07    2.449064e-08    3.764171e-11    2.170178e-08    2.258812e-09    5.800000e-01    4.470989e-01    1.236363e-01
    1.384449e+01    2.964921e+02    3.396348e-01    3.033159e+07    2.467255e-08    4.006312e-11    2.194181e-08    2.277417e-09    5.900000e-01    4.470989e-01    1.306519e-01
    1.332290e+01    2.957545e+02    3.890500e-01    3.320011e+07    2.484763e-08    4.264128e-11    2.217288e-08    2.295226e-09    6.000000e-01    4.470989e-01    1.379192e-01
    1.280334e+01    2.939492e+02    4.433394e-01    3.611279e+07    2.501605e-08    4.538698e-11    2.239524e-08    2.312271e-09    6.100000e-01    4.470989e-01    1.454126e-01
    1.228988e+01    2.911198e+02    5.026005e-01    3.904537e+07    2.517800e-08    4.831180e-11    2.260912e-08    2.328584e-09    6.200000e-01    4.470989e-01    1.531062e-01
    1.178606e+01    2.873289e+02    5.668900e-01    4.197488e+07    2.533367e-08    5.142825e-11    2.281478e-08    2.344198e-09    6.300000e-01    4.470989e-01    1.609742e-01
    1.129481e+01    2.826543e+02    6.362290e-01    4.488048e+07    2.548326e-08    5.474975e-11    2.301249e-08    2.359146e-09    6.400000e-01    4.470989e-01    1.689916e-01
    1.081855e+01    2.771849e+02    7.106015e-01    4.774390e+07    2.562699e-08    5.829075e-11    2.320251e-08    2.373462e-09    6.500000e-01    4.470989e-01    1.771344e-01
    1.035914e+01    2.710156e+02    7.899625e-01    5.054977e+07    2.576505e-08    6.206695e-11    2.338511e-08    2.387178e-09    6.600000e-01    4.470989e-01    1.853801e-01
    9.917923e+00    2.642440e+02    8.742400e-01    5.328572e+07    2.589767e-08    6.609510e-11    2.356054e-08    2.400327e-09    6.700000e-01    4.470989e-01    1.937080e-01
    9.495828e+00    2.569676e+02    9.633415e-01    5.594245e+07    2.602506e-08    7.039335e-11    2.372910e-08    2.412939e-09    6.800000e-01    4.470989e-01    2.020989e-01
    9.093393e+00    2.492801e+02    1.057156e+00    5.851350e+07    2.614743e-08    7.498130e-11    2.389103e-08    2.425048e-09    6.900000e-01    4.470989e-01    2.105359e-01
    8.710817e+00    2.412705e+02    1.155562e+00    6.099503e+07    2.626502e-08    7.988010e-11    2.404661e-08    2.436682e-09    7.000000e-01    4.470989e-01    2.190038e-01
    8.348020e+00    2.330208e+02    1.258430e+00    6.338558e+07    2.637801e-08    8.511245e-11    2.419608e-08    2.447874e-09    7.100000e-01    4.470989e-01    2.274893e-01
    8.004711e+00    2.246056e+02    1.365625e+00    6.568564e+07    2.648663e-08    9.070310e-11    2.433969e-08    2.458652e-09    7.200000e-01    4.470989e-01    2.359811e-01
    7.680400e+00    2.160913e+02    1.477013e+00    6.789723e+07    2.659110e-08    9.667850e-11    2.447770e-08    2.469045e-09    7.300000e-01    4.470989e-01    2.444694e-01
    7.374468e+00    2.075362e+02    1.592462e+00    7.002373e+07    2.669161e-08    1.030675e-10    2.461033e-08    2.479081e-09    7.400000e-01    4.470989e-01    2.529462e-01
    7.086198e+00    1.989909e+02    1.711843e+00    7.206940e+07    2.678837e-08    1.099011e-10    2.473783e-08    2.488787e-09    7.500000e-01    4.470989e-01    2.614048e-01
    6.814800e+00    1.904984e+02    1.835031e+00    7.403920e+07    2.688159e-08    1.172127e-10    2.486041e-08    2.498191e-09    7.600000e-01    4.470989e-01    2.698400e-01
    6.559430e+00    1.820948e+02    1.961912e+00    7.593838e+07    2.697146e-08    1.250386e-10    2.497830e-08    2.507319e-09    7.700000e-01    4.470989e-01    2.782476e-01
    6.319232e+00    1.738105e+02    2.092377e+00    7.777246e+07    2.705818e-08    1.334181e-10    2.509169e-08    2.516196e-09    7.800000e-01    4.470989e-01    2.866244e-01
    6.093339e+00    1.656699e+02    2.226325e+00    7.954689e+07    2.714193e-08    1.423933e-10    2.520079e-08    2.524848e-09    7.900000e-01    4.470989e-01    2.949684e-01
    5.880888e+00    1.576930e+02    2.363662e+00    8.126695e+07    2.722291e-08    1.520100e-10    2.530578e-08    2.533298e-09    8.000000e-01    4.470989e-01    3.032780e-01
    5.681041e+00    1.498957e+02    2.504306e+00    8.293773e+07    2.730130e-08    1.623176e-10    2.540686e-08    2.541572e-09    8.100000e-01    4.470989e-01    3.115525e-01
    5.492976e+00    1.422903e+02    2.648179e+00    8.456390e+07    2.737728e-08    1.733693e-10    2.550418e-08    2.549693e-09    8.200000e-01    4.470989e-01    3.197916e-01
    5.315908e+00    1.348866e+02    2.795212e+00    8.614970e+07    2.745103e-08    1.852228e-10    2.559792e-08    2.557684e-09    8.300000e-01    4.470989e-01    3.279955e-01
    5.149091e+00    1.276919e+02    2.945341e+00    8.769908e+07    2.752271e-08    1.979402e-10    2.568822e-08    2.565568e-09    8.400000e-01    4.470989e-01    3.361648e-01
    4.991810e+00    1.207115e+02    3.098511e+00    8.921539e+07    2.759252e-08    2.115886e-10    2.577523e-08    2.573368e-09    8.500000e-01    4.470989e-01    3.443003e-01
    4.843392e+00    1.139496e+02    3.254669e+00    9.070156e+07    2.766061e-08    2.262403e-10    2.585910e-08    2.581105e-09    8.600000e-01    4.470989e-01    3.524032e-01
    4.703201e+00    1.074090e+02    3.413769e+00    9.216000e+07    2.772716e-08    2.419732e-10    2.593994e-08    2.588803e-09    8.700000e-01    4.470989e-01    3.604748e-01
    4.570647e+00    1.010916e+02    3.575767e+00    9.359274e+07    2.779232e-08    2.588712e-10    2.601788e-08    2.596484e-09    8.800000e-01    4.470989e-01    3.685163e-01
    4.445169e+00    9.499880e+01    3.740627e+00    9.500135e+07    2.785627e-08    2.770243e-10    2.609303e-08    2.604170e-09    8.900000e-01    4.470989e-01    3.765295e-01
    4.326248e+00    8.913131e+01    3.908310e+00    9.638688e+07    2.791918e-08    2.965296e-10    2.616548e-08    2.611883e-09    9.000000e-01    4.470989e-01    3.845157e-01
    4.213399e+00    8.348957e+01    4.078783e+00    9.775005e+07    2.798120e-08    3.174910e-10    2.623535e-08    2.619644e-09    9.100000e-01    4.470989e-01    3.924765e-01
    4.106171e+00    7.807368e+01    4.252010e+00    9.909111e+07    2.804250e-08    3.400198e-10    2.630270e-08    2.627477e-09    9.200000e-01    4.470989e-01    4.004137e-01
    4.004141e+00    7.288343e+01    4.427961e+00    1.004100e+08    2.810324e-08    3.642353e-10    2.636762e-08    2.635404e-09    9.300000e-01    4.470989e-01    4.083286e-01
    3.906919e+00    6.791844e+01    4.606603e+00    1.017062e+08    2.816359e-08    3.902645e-10    2.643017e-08    2.643446e-09    9.400000e-01    4.470989e-01    4.162230e-01
    3.814138e+00    6.317800e+01    4.787902e+00    1.029788e+08    2.822371e-08    4.182428e-10    2.649041e-08    2.651627e-09    9.500000e-01    4.470989e-01    4.240982e-01
    3.725461e+00    5.866122e+01    4.971826e+00    1.042266e+08    2.828377e-08    4.483141e-10    2.654839e-08    2.659970e-09    9.600000e-01    4.470989e-01    4.319558e-01
    3.640571e+00    5.436690e+01    5.158335e+00    1.054482e+08    2.834393e-08    4.806310e-10    2.660417e-08    2.668496e-09    9.700000e-01    4.470989e-01    4.397972e-01
    3.559168e+00    5.029347e+01    5.347400e+00    1.066415e+08    2.840435e-08    5.153545e-10    2.665776e-08    2.677230e-09    9.800000e-01    4.470989e-01    4.476238e-01
    3.480983e+00    4.643900e+01    5.538970e+00    1.078044e+08    2.846522e-08    5.526535e-10    2.670920e-08    2.686194e-09    9.900000e-01    4.470989e-01    4.554367e-01
    3.405755e+00    4.280114e+01    5.733005e+00    1.089343e+08    2.852669e-08    5.927070e-10    2.675850e-08    2.695411e-09    1.000000e+00    4.470989e-01    4.632374e-01
    3.333244e+00    3.937704e+01    5.929455e+00    1.100282e+08    2.858894e-08    6.356995e-10    2.680569e-08    2.704905e-09    1.010000e+00    4.470989e-01    4.710269e-01
    3.263222e+00    3.616333e+01    6.128270e+00    1.110830e+08    2.865213e-08    6.818235e-10    2.685076e-08    2.714698e-09    1.020000e+00    4.470989e-01    4.788063e-01
    3.195477e+00    3.315604e+01    6.329395e+00    1.120953e+08    2.871645e-08    7.312790e-10    2.689369e-08    2.724814e-09    1.030000e+00    4.470989e-01    4.865768e-01
    3.129813e+00    3.035062e+01    6.532760e+00    1.130613e+08    2.878204e-08    7.842690e-10    2.693449e-08    2.735273e-09    1.040000e+00    4.470989e-01    4.943393e-01
    3.066047e+00    2.774188e+01    6.738295e+00    1.139770e+08    2.884908e-08    8.410025e-10    2.697314e-08    2.746099e-09    1.050000e+00    4.470989e-01    5.020947e-01
    3.004002e+00    2.532393e+01    6.945930e+00    1.148383e+08    2.891772e-08    9.016895e-10    2.700960e-08    2.757312e-09    1.060000e+00    4.470989e-01    5.098439e-01
    2.943521e+00    2.309031e+01    7.155580e+00    1.156410e+08    2.898814e-08    9.665405e-10    2.704385e-08    2.768933e-09    1.070000e+00    4.470989e-01    5.175878e-01
    2.884459e+00    2.103390e+01    7.367150e+00    1.163808e+08    2.906048e-08    1.035764e-09    2.707585e-08    2.780979e-09    1.080000e+00    4.470989e-01    5.253271e-01
    2.826681e+00    1.914702e+01    7.580550e+00    1.170534e+08    2.913490e-08    1.109563e-09    2.710556e-08    2.793470e-09    1.090000e+00    4.470989e-01    5.330626e-01
    2.770071e+00    1.742144e+01    7.795670e+00    1.176550e+08    2.921151e-08    1.188135e-09    2.713293e-08    2.806420e-09    1.100000e+00    4.470989e-01    5.407949e-01
    2.714525e+00    1.584851e+01    8.012405e+00    1.181819e+08    2.929045e-08    1.271665e-09    2.715792e-08    2.819843e-09    1.110000e+00    4.470989e-01    5.485246e-01
    2.659959e+00    1.441920e+01    8.230630e+00    1.186307e+08    2.937184e-08    1.360325e-09    2.718049e-08    2.833753e-09    1.120000e+00    4.470989e-01    5.562525e-01
    2.606302e+00    1.312423e+01    8.450225e+00    1.189989e+08    2.945577e-08    1.454268e-09    2.720058e-08    2.848156e-09    1.130000e+00    4.470989e-01    5.639789e-01
    2.553502e+00    1.195416e+01    8.671060e+00    1.192845e+08    2.954231e-08    1.553630e-09    2.721816e-08    2.863062e-09    1.140000e+00    4.470989e-01    5.717046e-01
    2.501520e+00    1.089954e+01    8.893010e+00    1.194865e+08    2.963154e-08    1.658515e-09    2.723316e-08    2.878473e-09    1.150000e+00    4.470989e-01    5.794298e-01
    2.450340e+00    9.951027e+00    9.115940e+00    1.196046e+08    2.972350e-08    1.769006e-09    2.724557e-08    2.894389e-09    1.160000e+00    4.470989e-01    5.871552e-01
    2.399956e+00    9.099460e+00    9.339710e+00    1.196397e+08    2.981819e-08    1.885150e-09    2.725533e-08    2.910809e-09    1.170000e+00    4.470989e-01    5.948812e-01
    2.350376e+00    8.336004e+00    9.564190e+00    1.195935e+08    2.991562e-08    2.006962e-09    2.726244e-08    2.927727e-09    1.180000e+00    4.470989e-01    6.026081e-01
    2.301616e+00    7.652219e+00    9.789255e+00    1.194685e+08    3.001575e-08    2.134419e-09    2.726687e-08    2.945134e-09    1.190000e+00    4.470989e-01    6.103363e-01
    2.253704e+00    7.040140e+00    1.001478e+01    1.192681e+08    3.011854e-08    2.267461e-09    2.726861e-08    2.963016e-09    1.200000e+00    4.470989e-01    6.180663e-01
    2.206671e+00    6.492332e+00    1.024062e+01    1.189964e+08    3.022388e-08    2.405987e-09    2.726767e-08    2.981360e-09    1.210000e+00    4.470989e-01    6.257982e-01
