# sky130 nfet_01v8 gm/ID Processed Lookup Table
# Corner: sf
# Temperature: 85C
# W = 2.0 um
# L = 3 um (3000 nm)
# Columns: gm/id [1/V]  gm/gds [V/V]  id/W [A/m]  ft [Hz]  Cgg/W [F/m]  Cgd/W [F/m]  Cgs/W [F/m]  Cdb/W [F/m]  vgs [V]  vth [V]  vdsat [V]
# vdsat = BSIM4 saturation voltage (|VDS|_sat, positive); use for headroom / saturation / cascode-bias calculations
#           gm/id          gm/gds            id/W              ft           Cgg/W           Cgd/W           Cgs/W           Cdb/W             vgs             vth           vdsat
    2.165536e+01    1.653134e+02    4.662779e-05    2.032875e+04    7.905325e-09    1.165865e-12    2.867733e-09    4.042594e-10    1.200000e-01    4.534036e-01    4.629615e-02
    2.165489e+01    1.651125e+02    5.790220e-05    2.486693e+04    8.025075e-09    1.246910e-12    3.056811e-09    4.257042e-10    1.300000e-01    4.534036e-01    4.630101e-02
    2.164606e+01    1.648930e+02    7.189930e-05    3.038375e+04    8.152340e-09    1.333650e-12    3.254639e-09    4.478948e-10    1.400000e-01    4.534036e-01    4.630703e-02
    2.162965e+01    1.646536e+02    8.926875e-05    3.708233e+04    8.287090e-09    1.426459e-12    3.461165e-09    4.708114e-10    1.500000e-01    4.534036e-01    4.631450e-02
    2.160629e+01    1.643934e+02    1.108122e-04    4.520629e+04    8.429250e-09    1.525738e-12    3.676288e-09    4.944297e-10    1.600000e-01    4.534036e-01    4.632376e-02
    2.157639e+01    1.641117e+02    1.375181e-04    5.504740e+04    8.578710e-09    1.631905e-12    3.899852e-09    5.187200e-10    1.700000e-01    4.534036e-01    4.633524e-02
    2.154026e+01    1.638079e+02    1.706038e-04    6.695462e+04    8.735325e-09    1.745406e-12    4.131651e-09    5.436485e-10    1.800000e-01    4.534036e-01    4.634946e-02
    2.149807e+01    1.634818e+02    2.115667e-04    8.134498e+04    8.898895e-09    1.866712e-12    4.371424e-09    5.691765e-10    1.900000e-01    4.534036e-01    4.636704e-02
    2.144993e+01    1.631336e+02    2.622466e-04    9.871599e+04    9.069185e-09    1.996316e-12    4.618853e-09    5.952600e-10    2.000000e-01    4.534036e-01    4.638879e-02
    2.139590e+01    1.627643e+02    3.249006e-04    1.196606e+05    9.245915e-09    2.134745e-12    4.873573e-09    6.218520e-10    2.100000e-01    4.534036e-01    4.641564e-02
    2.133602e+01    1.623754e+02    4.022943e-04    1.448847e+05    9.428765e-09    2.282549e-12    5.135165e-09    6.489010e-10    2.200000e-01    4.534036e-01    4.644877e-02
    2.127032e+01    1.619698e+02    4.978109e-04    1.752272e+05    9.617385e-09    2.440312e-12    5.403160e-09    6.763520e-10    2.300000e-01    4.534036e-01    4.648960e-02
    2.119882e+01    1.615511e+02    6.155835e-04    2.116847e+05    9.811365e-09    2.608651e-12    5.677050e-09    7.041465e-10    2.400000e-01    4.534036e-01    4.653984e-02
    2.112161e+01    1.611246e+02    7.606535e-04    2.554391e+05    1.001029e-08    2.788216e-12    5.956285e-09    7.322240e-10    2.500000e-01    4.534036e-01    4.660160e-02
    2.103888e+01    1.606974e+02    9.391590e-04    3.078924e+05    1.021370e-08    2.979693e-12    6.240270e-09    7.605215e-10    2.600000e-01    4.534036e-01    4.667739e-02
    2.095082e+01    1.602787e+02    1.158565e-03    3.707048e+05    1.042109e-08    3.183807e-12    6.528390e-09    7.889750e-10    2.700000e-01    4.534036e-01    4.677022e-02
    2.085779e+01    1.598799e+02    1.427935e-03    4.458438e+05    1.063198e-08    3.401323e-12    6.820000e-09    8.175190e-10    2.800000e-01    4.534036e-01    4.688374e-02
    2.076026e+01    1.595153e+02    1.758257e-03    5.356395e+05    1.084583e-08    3.633050e-12    7.114435e-09    8.460885e-10    2.900000e-01    4.534036e-01    4.702225e-02
    2.065883e+01    1.592022e+02    2.162838e-03    6.428540e+05    1.106210e-08    3.879842e-12    7.411015e-09    8.746170e-10    3.000000e-01    4.534036e-01    4.719088e-02
    2.055425e+01    1.589612e+02    2.657775e-03    7.707631e+05    1.128026e-08    4.142602e-12    7.709065e-09    9.030410e-10    3.100000e-01    4.534036e-01    4.739568e-02
    2.044738e+01    1.588162e+02    3.262516e-03    9.232570e+05    1.149974e-08    4.422285e-12    8.007890e-09    9.312975e-10    3.200000e-01    4.534036e-01    4.764374e-02
    2.033922e+01    1.587951e+02    4.000552e-03    1.104961e+06    1.172000e-08    4.719901e-12    8.306815e-09    9.593245e-10    3.300000e-01    4.534036e-01    4.794332e-02
    2.023084e+01    1.589290e+02    4.900231e-03    1.321381e+06    1.194050e-08    5.036520e-12    8.605170e-09    9.870645e-10    3.400000e-01    4.534036e-01    4.830400e-02
    2.012330e+01    1.592523e+02    5.995755e-03    1.579079e+06    1.216072e-08    5.373270e-12    8.902305e-09    1.014461e-09    3.500000e-01    4.534036e-01    4.873673e-02
    2.001756e+01    1.598022e+02    7.328380e-03    1.885879e+06    1.238014e-08    5.731355e-12    9.197590e-09    1.041462e-09    3.600000e-01    4.534036e-01    4.925404e-02
    1.991441e+01    1.606169e+02    8.947835e-03    2.251102e+06    1.259825e-08    6.112045e-12    9.490430e-09    1.068019e-09    3.700000e-01    4.534036e-01    4.986999e-02
    1.981427e+01    1.617360e+02    1.091407e-02    2.685835e+06    1.281461e-08    6.516680e-12    9.780240e-09    1.094088e-09    3.800000e-01    4.534036e-01    5.060032e-02
    1.971707e+01    1.631968e+02    1.329924e-02    3.203218e+06    1.302876e-08    6.946700e-12    1.006649e-08    1.119627e-09    3.900000e-01    4.534036e-01    5.146236e-02
    1.962211e+01    1.650338e+02    1.619013e-02    3.818732e+06    1.324027e-08    7.403610e-12    1.034869e-08    1.144600e-09    4.000000e-01    4.534036e-01    5.247502e-02
    1.952789e+01    1.672755e+02    1.969081e-02    4.550471e+06    1.344877e-08    7.889030e-12    1.062638e-08    1.168976e-09    4.100000e-01    4.534036e-01    5.365859e-02
    1.943205e+01    1.699418e+02    2.392572e-02    5.419346e+06    1.365391e-08    8.404665e-12    1.089914e-08    1.192727e-09    4.200000e-01    4.534036e-01    5.503457e-02
    1.933135e+01    1.730410e+02    2.904298e-02    6.449204e+06    1.385535e-08    8.952340e-12    1.116659e-08    1.215831e-09    4.300000e-01    4.534036e-01    5.662529e-02
    1.922171e+01    1.765673e+02    3.521779e-02    7.666744e+06    1.405281e-08    9.533990e-12    1.142840e-08    1.238268e-09    4.400000e-01    4.534036e-01    5.845357e-02
    1.909842e+01    1.804985e+02    4.265589e-02    9.101278e+06    1.424604e-08    1.015167e-11    1.168429e-08    1.260025e-09    4.500000e-01    4.534036e-01    6.054215e-02
    1.895637e+01    1.847936e+02    5.159665e-02    1.078413e+07    1.443483e-08    1.080758e-11    1.193402e-08    1.281090e-09    4.600000e-01    4.534036e-01    6.291320e-02
    1.879036e+01    1.893922e+02    6.231565e-02    1.274781e+07    1.461897e-08    1.150405e-11    1.217737e-08    1.301458e-09    4.700000e-01    4.534036e-01    6.558761e-02
    1.859556e+01    1.942150e+02    7.512610e-02    1.502476e+07    1.479833e-08    1.224358e-11    1.241419e-08    1.321126e-09    4.800000e-01    4.534036e-01    6.858442e-02
    1.836781e+01    1.991644e+02    9.037920e-02    1.764590e+07    1.497278e-08    1.302883e-11    1.264436e-08    1.340094e-09    4.900000e-01    4.534036e-01    7.192007e-02
    1.810401e+01    2.041277e+02    1.084625e-01    2.063882e+07    1.514222e-08    1.386262e-11    1.286778e-08    1.358366e-09    5.000000e-01    4.534036e-01    7.560789e-02
    1.780231e+01    2.089813e+02    1.297965e-01    2.402598e+07    1.530658e-08    1.474799e-11    1.308441e-08    1.375949e-09    5.100000e-01    4.534036e-01    7.965747e-02
    1.746230e+01    2.135953e+02    1.548292e-01    2.782280e+07    1.546585e-08    1.568818e-11    1.329423e-08    1.392852e-09    5.200000e-01    4.534036e-01    8.407430e-02
    1.708499e+01    2.178395e+02    1.840283e-01    3.203602e+07    1.561999e-08    1.668663e-11    1.349724e-08    1.409086e-09    5.300000e-01    4.534036e-01    8.885949e-02
    1.667271e+01    2.215891e+02    2.178715e-01    3.666251e+07    1.576902e-08    1.774705e-11    1.369348e-08    1.424666e-09    5.400000e-01    4.534036e-01    9.400959e-02
    1.622897e+01    2.247310e+02    2.568362e-01    4.168849e+07    1.591297e-08    1.887340e-11    1.388301e-08    1.439605e-09    5.500000e-01    4.534036e-01    9.951673e-02
    1.575815e+01    2.271683e+02    3.013868e-01    4.708948e+07    1.605188e-08    2.006989e-11    1.406591e-08    1.453923e-09    5.600000e-01    4.534036e-01    1.053688e-01
    1.526527e+01    2.288248e+02    3.519637e-01    5.283085e+07    1.618583e-08    2.134109e-11    1.424229e-08    1.467637e-09    5.700000e-01    4.534036e-01    1.115497e-01
    1.475567e+01    2.296475e+02    4.089711e-01    5.886911e+07    1.631489e-08    2.269182e-11    1.441226e-08    1.480765e-09    5.800000e-01    4.534036e-01    1.180402e-01
    1.423479e+01    2.296081e+02    4.727675e-01    6.515376e+07    1.643914e-08    2.412731e-11    1.457596e-08    1.493328e-09    5.900000e-01    4.534036e-01    1.248182e-01
    1.370792e+01    2.287022e+02    5.436580e-01    7.162930e+07    1.655872e-08    2.565314e-11    1.473353e-08    1.505349e-09    6.000000e-01    4.534036e-01    1.318594e-01
    1.318004e+01    2.269483e+02    6.218875e-01    7.823777e+07    1.667371e-08    2.727530e-11    1.488514e-08    1.516846e-09    6.100000e-01    4.534036e-01    1.391382e-01
    1.265571e+01    2.243852e+02    7.076380e-01    8.492111e+07    1.678426e-08    2.900021e-11    1.503094e-08    1.527842e-09    6.200000e-01    4.534036e-01    1.466282e-01
    1.213888e+01    2.210681e+02    8.010295e-01    9.162321e+07    1.689047e-08    3.083479e-11    1.517111e-08    1.538361e-09    6.300000e-01    4.534036e-01    1.543029e-01
    1.163299e+01    2.170651e+02    9.021195e-01    9.829203e+07    1.699250e-08    3.278643e-11    1.530582e-08    1.548422e-09    6.400000e-01    4.534036e-01    1.621364e-01
    1.114087e+01    2.124534e+02    1.010908e+00    1.048810e+08    1.709047e-08    3.486312e-11    1.543526e-08    1.558048e-09    6.500000e-01    4.534036e-01    1.701034e-01
    1.066478e+01    2.073156e+02    1.127342e+00    1.113499e+08    1.718454e-08    3.707342e-11    1.555959e-08    1.567261e-09    6.600000e-01    4.534036e-01    1.781802e-01
    1.020645e+01    2.017359e+02    1.251326e+00    1.176660e+08    1.727483e-08    3.942654e-11    1.567903e-08    1.576082e-09    6.700000e-01    4.534036e-01    1.863447e-01
    9.767079e+00    1.957968e+02    1.382723e+00    1.238034e+08    1.736151e-08    4.193239e-11    1.579373e-08    1.584532e-09    6.800000e-01    4.534036e-01    1.945764e-01
    9.347479e+00    1.895784e+02    1.521370e+00    1.297435e+08    1.744472e-08    4.460165e-11    1.590388e-08    1.592633e-09    6.900000e-01    4.534036e-01    2.028570e-01
    8.948054e+00    1.831545e+02    1.667077e+00    1.354742e+08    1.752458e-08    4.744579e-11    1.600965e-08    1.600404e-09    7.000000e-01    4.534036e-01    2.111702e-01
    8.568894e+00    1.765929e+02    1.819642e+00    1.409894e+08    1.760128e-08    5.047715e-11    1.611124e-08    1.607867e-09    7.100000e-01    4.534036e-01    2.195015e-01
    8.209818e+00    1.699542e+02    1.978852e+00    1.462882e+08    1.767493e-08    5.370910e-11    1.620881e-08    1.615038e-09    7.200000e-01    4.534036e-01    2.278384e-01
    7.870440e+00    1.632912e+02    2.144490e+00    1.513738e+08    1.774567e-08    5.715600e-11    1.630253e-08    1.621940e-09    7.300000e-01    4.534036e-01    2.361704e-01
    7.550198e+00    1.566496e+02    2.316342e+00    1.562529e+08    1.781366e-08    6.083320e-11    1.639256e-08    1.628590e-09    7.400000e-01    4.534036e-01    2.444886e-01
    7.248412e+00    1.500676e+02    2.494198e+00    1.609348e+08    1.787903e-08    6.475750e-11    1.647907e-08    1.635005e-09    7.500000e-01    4.534036e-01    2.527856e-01
    6.964300e+00    1.435768e+02    2.677856e+00    1.654307e+08    1.794191e-08    6.894685e-11    1.656220e-08    1.641204e-09    7.600000e-01    4.534036e-01    2.610556e-01
    6.697028e+00    1.372029e+02    2.867124e+00    1.697530e+08    1.800243e-08    7.342055e-11    1.664211e-08    1.647203e-09    7.700000e-01    4.534036e-01    2.692939e-01
    6.445720e+00    1.309659e+02    3.061822e+00    1.739146e+08    1.806073e-08    7.819960e-11    1.671894e-08    1.653019e-09    7.800000e-01    4.534036e-01    2.774970e-01
    6.209484e+00    1.248814e+02    3.261783e+00    1.779287e+08    1.811693e-08    8.330645e-11    1.679283e-08    1.658669e-09    7.900000e-01    4.534036e-01    2.856625e-01
    5.987430e+00    1.189607e+02    3.466852e+00    1.818082e+08    1.817116e-08    8.876550e-11    1.686391e-08    1.664168e-09    8.000000e-01    4.534036e-01    2.937885e-01
    5.778681e+00    1.132118e+02    3.676889e+00    1.855653e+08    1.822353e-08    9.460285e-11    1.693230e-08    1.669532e-09    8.100000e-01    4.534036e-01    3.018743e-01
    5.582381e+00    1.076396e+02    3.891763e+00    1.892118e+08    1.827417e-08    1.008469e-10    1.699813e-08    1.674775e-09    8.200000e-01    4.534036e-01    3.099193e-01
    5.397704e+00    1.022472e+02    4.111357e+00    1.927584e+08    1.832320e-08    1.075280e-10    1.706151e-08    1.679913e-09    8.300000e-01    4.534036e-01    3.179237e-01
    5.223862e+00    9.703552e+01    4.335566e+00    1.962147e+08    1.837072e-08    1.146790e-10    1.712255e-08    1.684959e-09    8.400000e-01    4.534036e-01    3.258881e-01
    5.060099e+00    9.200408e+01    4.564295e+00    1.995895e+08    1.841684e-08    1.223354e-10    1.718136e-08    1.689928e-09    8.500000e-01    4.534036e-01    3.338134e-01
    4.905707e+00    8.715144e+01    4.797455e+00    2.028903e+08    1.846169e-08    1.305353e-10    1.723802e-08    1.694834e-09    8.600000e-01    4.534036e-01    3.417005e-01
    4.760011e+00    8.247530e+01    5.034970e+00    2.061235e+08    1.850536e-08    1.393197e-10    1.729263e-08    1.699690e-09    8.700000e-01    4.534036e-01    3.495510e-01
    4.622390e+00    7.797288e+01    5.276760e+00    2.092947e+08    1.854795e-08    1.487329e-10    1.734527e-08    1.704511e-09    8.800000e-01    4.534036e-01    3.573662e-01
    4.492244e+00    7.364096e+01    5.522770e+00    2.124079e+08    1.858958e-08    1.588223e-10    1.739603e-08    1.709309e-09    8.900000e-01    4.534036e-01    3.651476e-01
    4.369025e+00    6.947621e+01    5.772935e+00    2.154667e+08    1.863036e-08    1.696391e-10    1.744497e-08    1.714097e-09    9.000000e-01    4.534036e-01    3.728970e-01
    4.252221e+00    6.547519e+01    6.027195e+00    2.184734e+08    1.867036e-08    1.812379e-10    1.749217e-08    1.718889e-09    9.100000e-01    4.534036e-01    3.806159e-01
    4.141356e+00    6.163448e+01    6.285495e+00    2.214293e+08    1.870971e-08    1.936778e-10    1.753769e-08    1.723698e-09    9.200000e-01    4.534036e-01    3.883060e-01
    4.035983e+00    5.795073e+01    6.547785e+00    2.243352e+08    1.874850e-08    2.070214e-10    1.758158e-08    1.728537e-09    9.300000e-01    4.534036e-01    3.959691e-01
    3.935689e+00    5.442073e+01    6.814015e+00    2.271907e+08    1.878682e-08    2.213365e-10    1.762390e-08    1.733420e-09    9.400000e-01    4.534036e-01    4.036067e-01
    3.840096e+00    5.104136e+01    7.084125e+00    2.299949e+08    1.882479e-08    2.366948e-10    1.766469e-08    1.738359e-09    9.500000e-01    4.534036e-01    4.112204e-01
    3.748843e+00    4.780976e+01    7.358070e+00    2.327460e+08    1.886249e-08    2.531731e-10    1.770399e-08    1.743368e-09    9.600000e-01    4.534036e-01    4.188117e-01
    3.661601e+00    4.472311e+01    7.635795e+00    2.354413e+08    1.890004e-08    2.708530e-10    1.774185e-08    1.748459e-09    9.700000e-01    4.534036e-01    4.263823e-01
    3.578067e+00    4.177872e+01    7.917235e+00    2.380779e+08    1.893751e-08    2.898211e-10    1.777829e-08    1.753648e-09    9.800000e-01    4.534036e-01    4.339334e-01
    3.497951e+00    3.897412e+01    8.202340e+00    2.406517e+08    1.897504e-08    3.101694e-10    1.781332e-08    1.758945e-09    9.900000e-01    4.534036e-01    4.414665e-01
    3.420990e+00    3.630677e+01    8.491040e+00    2.431584e+08    1.901269e-08    3.319944e-10    1.784699e-08    1.764366e-09    1.000000e+00    4.534036e-01    4.489829e-01
    3.346935e+00    3.377430e+01    8.783270e+00    2.455927e+08    1.905058e-08    3.553985e-10    1.787931e-08    1.769924e-09    1.010000e+00    4.534036e-01    4.564839e-01
    3.275557e+00    3.137432e+01    9.078955e+00    2.479490e+08    1.908881e-08    3.804885e-10    1.791027e-08    1.775632e-09    1.020000e+00    4.534036e-01    4.639705e-01
    3.206640e+00    2.910435e+01    9.378015e+00    2.502208e+08    1.912749e-08    4.073760e-10    1.793988e-08    1.781504e-09    1.030000e+00    4.534036e-01    4.714440e-01
    3.139984e+00    2.696190e+01    9.680365e+00    2.524015e+08    1.916670e-08    4.361774e-10    1.796815e-08    1.787553e-09    1.040000e+00    4.534036e-01    4.789053e-01
    3.075402e+00    2.494435e+01    9.985910e+00    2.544838e+08    1.920656e-08    4.670128e-10    1.799508e-08    1.793792e-09    1.050000e+00    4.534036e-01    4.863555e-01
    3.012721e+00    2.304896e+01    1.029454e+01    2.564600e+08    1.924716e-08    5.000060e-10    1.802064e-08    1.800235e-09    1.060000e+00    4.534036e-01    4.937955e-01
    2.951778e+00    2.127275e+01    1.060616e+01    2.583218e+08    1.928861e-08    5.352835e-10    1.804484e-08    1.806893e-09    1.070000e+00    4.534036e-01    5.012262e-01
    2.892423e+00    1.961257e+01    1.092065e+01    2.600614e+08    1.933100e-08    5.729730e-10    1.806764e-08    1.813781e-09    1.080000e+00    4.534036e-01    5.086483e-01
    2.834519e+00    1.806503e+01    1.123786e+01    2.616702e+08    1.937442e-08    6.132045e-10    1.808905e-08    1.820909e-09    1.090000e+00    4.534036e-01    5.160628e-01
    2.777940e+00    1.662647e+01    1.155767e+01    2.631400e+08    1.941899e-08    6.561065e-10    1.810901e-08    1.828290e-09    1.100000e+00    4.534036e-01    5.234703e-01
    2.722573e+00    1.529298e+01    1.187994e+01    2.644629e+08    1.946477e-08    7.018060e-10    1.812752e-08    1.835933e-09    1.110000e+00    4.534036e-01    5.308715e-01
    2.668318e+00    1.406037e+01    1.220450e+01    2.656313e+08    1.951186e-08    7.504265e-10    1.814454e-08    1.843848e-09    1.120000e+00    4.534036e-01    5.382670e-01
    2.615088e+00    1.292422e+01    1.253120e+01    2.666384e+08    1.956033e-08    8.020865e-10    1.816004e-08    1.852044e-09    1.130000e+00    4.534036e-01    5.456575e-01
    2.562811e+00    1.187984e+01    1.285984e+01    2.674786e+08    1.961026e-08    8.568980e-10    1.817398e-08    1.860530e-09    1.140000e+00    4.534036e-01    5.530435e-01
    2.511426e+00    1.092239e+01    1.319028e+01    2.681471e+08    1.966171e-08    9.149635e-10    1.818635e-08    1.869310e-09    1.150000e+00    4.534036e-01    5.604255e-01
    2.460889e+00    1.004684e+01    1.352232e+01    2.686407e+08    1.971475e-08    9.763745e-10    1.819710e-08    1.878390e-09    1.160000e+00    4.534036e-01    5.678042e-01
    2.411169e+00    9.248051e+00    1.385576e+01    2.689579e+08    1.976941e-08    1.041210e-09    1.820621e-08    1.887774e-09    1.170000e+00    4.534036e-01    5.751798e-01
    2.362247e+00    8.520835e+00    1.419042e+01    2.690987e+08    1.982573e-08    1.109533e-09    1.821364e-08    1.897462e-09    1.180000e+00    4.534036e-01    5.825529e-01
    2.314117e+00    7.860007e+00    1.452612e+01    2.690650e+08    1.988373e-08    1.181390e-09    1.821937e-08    1.907456e-09    1.190000e+00    4.534036e-01    5.899239e-01
    2.266783e+00    7.260444e+00    1.486266e+01    2.688606e+08    1.994341e-08    1.256807e-09    1.822338e-08    1.917752e-09    1.200000e+00    4.534036e-01    5.972932e-01
