# sky130 nfet_01v8 gm/ID Processed Lookup Table
# Corner: sf
# Temperature: 85C
# W = 2.0 um
# L = 4 um (4000 nm)
# Columns: gm/id [1/V]  gm/gds [V/V]  id/W [A/m]  ft [Hz]  Cgg/W [F/m]  Cgd/W [F/m]  Cgs/W [F/m]  Cdb/W [F/m]  vgs [V]  vth [V]  vdsat [V]
# vdsat = BSIM4 saturation voltage (|VDS|_sat, positive); use for headroom / saturation / cascode-bias calculations
#           gm/id          gm/gds            id/W              ft           Cgg/W           Cgd/W           Cgs/W           Cdb/W             vgs             vth           vdsat
    2.132960e+01    1.849848e+02    4.228715e-05    1.350006e+04    1.063348e-08    1.710384e-12    3.986188e-09    5.681570e-10    1.200000e-01    4.482478e-01    4.684790e-02
    2.132944e+01    1.847457e+02    5.234135e-05    1.645687e+04    1.079685e-08    1.828457e-12    4.243070e-09    5.975015e-10    1.300000e-01    4.482478e-01    4.685385e-02
    2.132051e+01    1.844852e+02    6.478300e-05    2.003889e+04    1.096996e-08    1.954768e-12    4.511259e-09    6.278055e-10    1.400000e-01    4.482478e-01    4.686122e-02
    2.130368e+01    1.842027e+02    8.017165e-05    2.437329e+04    1.115274e-08    2.089861e-12    4.790640e-09    6.590370e-10    1.500000e-01    4.482478e-01    4.687033e-02
    2.127958e+01    1.838971e+02    9.919545e-05    2.961205e+04    1.134506e-08    2.234310e-12    5.081030e-09    6.911595e-10    1.600000e-01    4.482478e-01    4.688159e-02
    2.124872e+01    1.835680e+02    1.226996e-04    3.593660e+04    1.154673e-08    2.388723e-12    5.382190e-09    7.241305e-10    1.700000e-01    4.482478e-01    4.689549e-02
    2.121141e+01    1.832153e+02    1.517213e-04    4.356323e+04    1.175753e-08    2.553743e-12    5.693795e-09    7.579000e-10    1.800000e-01    4.482478e-01    4.691264e-02
    2.116791e+01    1.828391e+02    1.875315e-04    5.274948e+04    1.197717e-08    2.730051e-12    6.015460e-09    7.924140e-10    1.900000e-01    4.482478e-01    4.693379e-02
    2.111839e+01    1.824406e+02    2.316861e-04    6.380169e+04    1.220531e-08    2.918366e-12    6.346740e-09    8.276115e-10    2.000000e-01    4.482478e-01    4.695984e-02
    2.106296e+01    1.820214e+02    2.860867e-04    7.708373e+04    1.244156e-08    3.119449e-12    6.687120e-09    8.634270e-10    2.100000e-01    4.482478e-01    4.699191e-02
    2.100175e+01    1.815846e+02    3.530549e-04    9.302748e+04    1.268547e-08    3.334104e-12    7.036020e-09    8.997905e-10    2.200000e-01    4.482478e-01    4.703132e-02
    2.093481e+01    1.811340e+02    4.354200e-04    1.121447e+05    1.293656e-08    3.563181e-12    7.392805e-09    9.366275e-10    2.300000e-01    4.482478e-01    4.707971e-02
    2.086229e+01    1.806756e+02    5.366260e-04    1.350416e+05    1.319429e-08    3.807579e-12    7.756790e-09    9.738605e-10    2.400000e-01    4.482478e-01    4.713904e-02
    2.078437e+01    1.802164e+02    6.608580e-04    1.624357e+05    1.345810e-08    4.068251e-12    8.127235e-09    1.011409e-09    2.500000e-01    4.482478e-01    4.721168e-02
    2.070131e+01    1.797667e+02    8.131955e-04    1.951756e+05    1.372737e-08    4.346202e-12    8.503365e-09    1.049189e-09    2.600000e-01    4.482478e-01    4.730048e-02
    2.061342e+01    1.793382e+02    9.997935e-04    2.342647e+05    1.400147e-08    4.642495e-12    8.884365e-09    1.087117e-09    2.700000e-01    4.482478e-01    4.740882e-02
    2.052117e+01    1.789463e+02    1.228102e-03    2.808902e+05    1.427973e-08    4.958260e-12    9.269400e-09    1.125107e-09    2.800000e-01    4.482478e-01    4.754075e-02
    2.042512e+01    1.786091e+02    1.507125e-03    3.364564e+05    1.456147e-08    5.294685e-12    9.657600e-09    1.163076e-09    2.900000e-01    4.482478e-01    4.770108e-02
    2.032599e+01    1.783487e+02    1.847738e-03    4.026264e+05    1.484601e-08    5.653040e-12    1.004811e-08    1.200938e-09    3.000000e-01    4.482478e-01    4.789545e-02
    2.022459e+01    1.781907e+02    2.263057e-03    4.813719e+05    1.513264e-08    6.034660e-12    1.044002e-08    1.238611e-09    3.100000e-01    4.482478e-01    4.813051e-02
    2.012189e+01    1.781647e+02    2.768898e-03    5.750336e+05    1.542064e-08    6.440960e-12    1.083250e-08    1.276015e-09    3.200000e-01    4.482478e-01    4.841398e-02
    2.001889e+01    1.783044e+02    3.384320e-03    6.863940e+05    1.570935e-08    6.873445e-12    1.122466e-08    1.313073e-09    3.300000e-01    4.482478e-01    4.875483e-02
    1.991666e+01    1.786471e+02    4.132282e-03    8.187649e+05    1.599806e-08    7.333715e-12    1.161566e-08    1.349710e-09    3.400000e-01    4.482478e-01    4.916335e-02
    1.981617e+01    1.792331e+02    5.040435e-03    9.760913e+05    1.628611e-08    7.823460e-12    1.200468e-08    1.385857e-09    3.500000e-01    4.482478e-01    4.965128e-02
    1.971825e+01    1.801053e+02    6.142070e-03    1.163070e+06    1.657285e-08    8.344480e-12    1.239094e-08    1.421447e-09    3.600000e-01    4.482478e-01    5.023188e-02
    1.962347e+01    1.813077e+02    7.477270e-03    1.385292e+06    1.685768e-08    8.898685e-12    1.277367e-08    1.456423e-09    3.700000e-01    4.482478e-01    5.092000e-02
    1.953194e+01    1.828839e+02    9.094250e-03    1.649384e+06    1.713999e-08    9.488105e-12    1.315218e-08    1.490727e-09    3.800000e-01    4.482478e-01    5.173210e-02
    1.944324e+01    1.848749e+02    1.105094e-02    1.963177e+06    1.741923e-08    1.011489e-11    1.352580e-08    1.524310e-09    3.900000e-01    4.482478e-01    5.268616e-02
    1.935623e+01    1.873167e+02    1.341687e-02    2.335846e+06    1.769489e-08    1.078136e-11    1.389390e-08    1.557129e-09    4.000000e-01    4.482478e-01    5.380164e-02
    1.926895e+01    1.902375e+02    1.627516e-02    2.778052e+06    1.796648e-08    1.148994e-11    1.425594e-08    1.589143e-09    4.100000e-01    4.482478e-01    5.509926e-02
    1.917863e+01    1.936549e+02    1.972489e-02    3.302027e+06    1.823357e-08    1.224323e-11    1.461138e-08    1.620322e-09    4.200000e-01    4.482478e-01    5.660077e-02
    1.908164e+01    1.975723e+02    2.388356e-02    3.921591e+06    1.849578e-08    1.304402e-11    1.495979e-08    1.650638e-09    4.300000e-01    4.482478e-01    5.832857e-02
    1.897365e+01    2.019767e+02    2.888949e-02    4.652071e+06    1.875273e-08    1.389528e-11    1.530075e-08    1.680069e-09    4.400000e-01    4.482478e-01    6.030528e-02
    1.884983e+01    2.068357e+02    3.490431e-02    5.510091e+06    1.900413e-08    1.480015e-11    1.563392e-08    1.708598e-09    4.500000e-01    4.482478e-01    6.255326e-02
    1.870513e+01    2.120965e+02    4.211504e-02    6.513194e+06    1.924971e-08    1.576200e-11    1.595900e-08    1.736216e-09    4.600000e-01    4.482478e-01    6.509401e-02
    1.853465e+01    2.176843e+02    5.073555e-02    7.679305e+06    1.948924e-08    1.678445e-11    1.627576e-08    1.762916e-09    4.700000e-01    4.482478e-01    6.794754e-02
    1.833393e+01    2.235041e+02    6.100750e-02    9.026016e+06    1.972255e-08    1.787133e-11    1.658399e-08    1.788694e-09    4.800000e-01    4.482478e-01    7.113179e-02
    1.809941e+01    2.294415e+02    7.319980e-02    1.056971e+07    1.994947e-08    1.902676e-11    1.688357e-08    1.813557e-09    4.900000e-01    4.482478e-01    7.466194e-02
    1.782859e+01    2.353670e+02    8.760725e-02    1.232461e+07    2.016992e-08    2.025513e-11    1.717439e-08    1.837507e-09    5.000000e-01    4.482478e-01    7.854989e-02
    1.752030e+01    2.411396e+02    1.045473e-01    1.430175e+07    2.038380e-08    2.156118e-11    1.745639e-08    1.860558e-09    5.100000e-01    4.482478e-01    8.280379e-02
    1.717472e+01    2.466134e+02    1.243557e-01    1.650806e+07    2.059109e-08    2.294992e-11    1.772956e-08    1.882721e-09    5.200000e-01    4.482478e-01    8.742766e-02
    1.679337e+01    2.516434e+02    1.473801e-01    1.894547e+07    2.079176e-08    2.442677e-11    1.799392e-08    1.904011e-09    5.300000e-01    4.482478e-01    9.242117e-02
    1.637899e+01    2.560914e+02    1.739735e-01    2.161044e+07    2.098585e-08    2.599753e-11    1.824952e-08    1.924451e-09    5.400000e-01    4.482478e-01    9.777960e-02
    1.593530e+01    2.598332e+02    2.044855e-01    2.449358e+07    2.117339e-08    2.766839e-11    1.849645e-08    1.944058e-09    5.500000e-01    4.482478e-01    1.034939e-01
    1.546679e+01    2.627626e+02    2.392540e-01    2.757980e+07    2.135445e-08    2.944604e-11    1.873482e-08    1.962856e-09    5.600000e-01    4.482478e-01    1.095511e-01
    1.497842e+01    2.647965e+02    2.785970e-01    3.084867e+07    2.152912e-08    3.133761e-11    1.896476e-08    1.980869e-09    5.700000e-01    4.482478e-01    1.159343e-01
    1.447542e+01    2.658771e+02    3.228041e-01    3.427526e+07    2.169750e-08    3.335081e-11    1.918644e-08    1.998125e-09    5.800000e-01    4.482478e-01    1.226239e-01
    1.396298e+01    2.659734e+02    3.721300e-01    3.783107e+07    2.185971e-08    3.549390e-11    1.940002e-08    2.014649e-09    5.900000e-01    4.482478e-01    1.295974e-01
    1.344611e+01    2.650801e+02    4.267893e-01    4.148526e+07    2.201590e-08    3.777573e-11    1.960569e-08    2.030468e-09    6.000000e-01    4.482478e-01    1.368305e-01
    1.292949e+01    2.632175e+02    4.869524e-01    4.520606e+07    2.216621e-08    4.020587e-11    1.980366e-08    2.045612e-09    6.100000e-01    4.482478e-01    1.442979e-01
    1.241731e+01    2.604264e+02    5.527440e-01    4.896174e+07    2.231079e-08    4.279459e-11    1.999414e-08    2.060109e-09    6.200000e-01    4.482478e-01    1.519733e-01
    1.191329e+01    2.567668e+02    6.242430e-01    5.272207e+07    2.244982e-08    4.555294e-11    2.017735e-08    2.073987e-09    6.300000e-01    4.482478e-01    1.598308e-01
    1.142054e+01    2.523122e+02    7.014840e-01    5.645908e+07    2.258347e-08    4.849284e-11    2.035350e-08    2.087277e-09    6.400000e-01    4.482478e-01    1.678447e-01
    1.094165e+01    2.471465e+02    7.844610e-01    6.014791e+07    2.271192e-08    5.162710e-11    2.052285e-08    2.100005e-09    6.500000e-01    4.482478e-01    1.759904e-01
    1.047868e+01    2.413595e+02    8.731300e-01    6.376728e+07    2.283536e-08    5.496960e-11    2.068562e-08    2.112202e-09    6.600000e-01    4.482478e-01    1.842447e-01
    1.003316e+01    2.350436e+02    9.674160e-01    6.729978e+07    2.295396e-08    5.853515e-11    2.084203e-08    2.123896e-09    6.700000e-01    4.482478e-01    1.925860e-01
    9.606186e+00    2.282903e+02    1.067217e+00    7.073195e+07    2.306791e-08    6.233990e-11    2.099232e-08    2.135115e-09    6.800000e-01    4.482478e-01    2.009943e-01
    9.198441e+00    2.211879e+02    1.172409e+00    7.405405e+07    2.317741e-08    6.640120e-11    2.113674e-08    2.145887e-09    6.900000e-01    4.482478e-01    2.094517e-01
    8.810260e+00    2.138196e+02    1.282855e+00    7.725990e+07    2.328265e-08    7.073775e-11    2.127551e-08    2.156237e-09    7.000000e-01    4.482478e-01    2.179422e-01
    8.441685e+00    2.062615e+02    1.398405e+00    8.034649e+07    2.338381e-08    7.536975e-11    2.140884e-08    2.166194e-09    7.100000e-01    4.482478e-01    2.264518e-01
    8.092525e+00    1.985828e+02    1.518901e+00    8.331354e+07    2.348107e-08    8.031900e-11    2.153696e-08    2.175783e-09    7.200000e-01    4.482478e-01    2.349682e-01
    7.762371e+00    1.908447e+02    1.644186e+00    8.616298e+07    2.357463e-08    8.560905e-11    2.166009e-08    2.185030e-09    7.300000e-01    4.482478e-01    2.434811e-01
    7.450683e+00    1.831004e+02    1.774104e+00    8.889863e+07    2.366466e-08    9.126545e-11    2.177843e-08    2.193959e-09    7.400000e-01    4.482478e-01    2.519818e-01
    7.156791e+00    1.753952e+02    1.908502e+00    9.152560e+07    2.375136e-08    9.731560e-11    2.189220e-08    2.202595e-09    7.500000e-01    4.482478e-01    2.604630e-01
    6.879942e+00    1.677674e+02    2.047232e+00    9.405001e+07    2.383489e-08    1.037893e-10    2.200158e-08    2.210962e-09    7.600000e-01    4.482478e-01    2.689189e-01
    6.619340e+00    1.602490e+02    2.190154e+00    9.647866e+07    2.391543e-08    1.107186e-10    2.210677e-08    2.219083e-09    7.700000e-01    4.482478e-01    2.773449e-01
    6.374138e+00    1.528653e+02    2.337137e+00    9.881857e+07    2.399314e-08    1.181383e-10    2.220795e-08    2.226981e-09    7.800000e-01    4.482478e-01    2.857376e-01
    6.143486e+00    1.456369e+02    2.488059e+00    1.010769e+08    2.406821e-08    1.260857e-10    2.230530e-08    2.234678e-09    7.900000e-01    4.482478e-01    2.940944e-01
    5.926532e+00    1.385799e+02    2.642808e+00    1.032606e+08    2.414080e-08    1.346016e-10    2.239898e-08    2.242196e-09    8.000000e-01    4.482478e-01    3.024137e-01
    5.722439e+00    1.317061e+02    2.801280e+00    1.053766e+08    2.421106e-08    1.437296e-10    2.248916e-08    2.249555e-09    8.100000e-01    4.482478e-01    3.106944e-01
    5.530386e+00    1.250243e+02    2.963381e+00    1.074309e+08    2.427916e-08    1.535170e-10    2.257598e-08    2.256779e-09    8.200000e-01    4.482478e-01    3.189361e-01
    5.349582e+00    1.185407e+02    3.129026e+00    1.094296e+08    2.434526e-08    1.640151e-10    2.265960e-08    2.263885e-09    8.300000e-01    4.482478e-01    3.271389e-01
    5.179274e+00    1.122593e+02    3.298136e+00    1.113778e+08    2.440951e-08    1.752787e-10    2.274015e-08    2.270897e-09    8.400000e-01    4.482478e-01    3.353034e-01
    5.018736e+00    1.061822e+02    3.470642e+00    1.132801e+08    2.447207e-08    1.873676e-10    2.281776e-08    2.277834e-09    8.500000e-01    4.482478e-01    3.434303e-01
    4.867286e+00    1.003106e+02    3.646481e+00    1.151407e+08    2.453309e-08    2.003457e-10    2.289255e-08    2.284715e-09    8.600000e-01    4.482478e-01    3.515207e-01
    4.724282e+00    9.464420e+01    3.825593e+00    1.169630e+08    2.459271e-08    2.142822e-10    2.296464e-08    2.291561e-09    8.700000e-01    4.482478e-01    3.595758e-01
    4.589112e+00    8.918231e+01    4.007928e+00    1.187497e+08    2.465109e-08    2.292515e-10    2.303412e-08    2.298391e-09    8.800000e-01    4.482478e-01    3.675972e-01
    4.461214e+00    8.392359e+01    4.193434e+00    1.205033e+08    2.470837e-08    2.453338e-10    2.310111e-08    2.305225e-09    8.900000e-01    4.482478e-01    3.755863e-01
    4.340049e+00    7.886638e+01    4.382069e+00    1.222252e+08    2.476470e-08    2.626150e-10    2.316569e-08    2.312084e-09    9.000000e-01    4.482478e-01    3.835446e-01
    4.225125e+00    7.400880e+01    4.573789e+00    1.239168e+08    2.482022e-08    2.811872e-10    2.322796e-08    2.318986e-09    9.100000e-01    4.482478e-01    3.914739e-01
    4.115979e+00    6.934884e+01    4.768552e+00    1.255785e+08    2.487509e-08    3.011496e-10    2.328797e-08    2.325952e-09    9.200000e-01    4.482478e-01    3.993758e-01
    4.012177e+00    6.488439e+01    4.966321e+00    1.272103e+08    2.492945e-08    3.226079e-10    2.334581e-08    2.333003e-09    9.300000e-01    4.482478e-01    4.072520e-01
    3.913318e+00    6.061339e+01    5.167055e+00    1.288120e+08    2.498344e-08    3.456750e-10    2.340152e-08    2.340156e-09    9.400000e-01    4.482478e-01    4.151039e-01
    3.819029e+00    5.653370e+01    5.370715e+00    1.303825e+08    2.503720e-08    3.704710e-10    2.345518e-08    2.347435e-09    9.500000e-01    4.482478e-01    4.229333e-01
    3.728960e+00    5.264318e+01    5.577260e+00    1.319206e+08    2.509090e-08    3.971240e-10    2.350681e-08    2.354857e-09    9.600000e-01    4.482478e-01    4.307416e-01
    3.642791e+00    4.893969e+01    5.786645e+00    1.334244e+08    2.514467e-08    4.257693e-10    2.355646e-08    2.362445e-09    9.700000e-01    4.482478e-01    4.385304e-01
    3.560212e+00    4.542098e+01    5.998835e+00    1.348917e+08    2.519867e-08    4.565501e-10    2.360418e-08    2.370219e-09    9.800000e-01    4.482478e-01    4.463010e-01
    3.480947e+00    4.208472e+01    6.213775e+00    1.363200e+08    2.525303e-08    4.896172e-10    2.364997e-08    2.378199e-09    9.900000e-01    4.482478e-01    4.540549e-01
    3.404731e+00    3.892843e+01    6.431415e+00    1.377060e+08    2.530794e-08    5.251285e-10    2.369386e-08    2.386407e-09    1.000000e+00    4.482478e-01    4.617933e-01
    3.331319e+00    3.594942e+01    6.651700e+00    1.390464e+08    2.536350e-08    5.632485e-10    2.373584e-08    2.394863e-09    1.010000e+00    4.482478e-01    4.695174e-01
    3.260480e+00    3.314474e+01    6.874570e+00    1.403373e+08    2.541990e-08    6.041495e-10    2.377594e-08    2.403588e-09    1.020000e+00    4.482478e-01    4.772286e-01
    3.191997e+00    3.051118e+01    7.099965e+00    1.415747e+08    2.547728e-08    6.480075e-10    2.381415e-08    2.412603e-09    1.030000e+00    4.482478e-01    4.849278e-01
    3.125671e+00    2.804514e+01    7.327810e+00    1.427540e+08    2.553580e-08    6.950050e-10    2.385045e-08    2.421928e-09    1.040000e+00    4.482478e-01    4.926161e-01
    3.061317e+00    2.574263e+01    7.558025e+00    1.438705e+08    2.559558e-08    7.453270e-10    2.388483e-08    2.431582e-09    1.050000e+00    4.482478e-01    5.002945e-01
    2.998757e+00    2.359927e+01    7.790530e+00    1.449193e+08    2.565679e-08    7.991600e-10    2.391727e-08    2.441584e-09    1.060000e+00    4.482478e-01    5.079639e-01
    2.937834e+00    2.161022e+01    8.025230e+00    1.458953e+08    2.571956e-08    8.566925e-10    2.394775e-08    2.451952e-09    1.070000e+00    4.482478e-01    5.156253e-01
    2.878398e+00    1.977017e+01    8.262030e+00    1.467935e+08    2.578403e-08    9.181100e-10    2.397622e-08    2.462706e-09    1.080000e+00    4.482478e-01    5.232794e-01
    2.820316e+00    1.807338e+01    8.500820e+00    1.476089e+08    2.585033e-08    9.835935e-10    2.400265e-08    2.473858e-09    1.090000e+00    4.482478e-01    5.309270e-01
    2.763469e+00    1.651367e+01    8.741490e+00    1.483368e+08    2.591859e-08    1.053318e-09    2.402702e-08    2.485425e-09    1.100000e+00    4.482478e-01    5.385688e-01
    2.707752e+00    1.508446e+01    8.983915e+00    1.489727e+08    2.598891e-08    1.127451e-09    2.404927e-08    2.497420e-09    1.110000e+00    4.482478e-01    5.462056e-01
    2.653077e+00    1.377883e+01    9.227970e+00    1.495128e+08    2.606140e-08    1.206143e-09    2.406936e-08    2.509852e-09    1.120000e+00    4.482478e-01    5.538379e-01
    2.599371e+00    1.258958e+01    9.473520e+00    1.499541e+08    2.613614e-08    1.289533e-09    2.408727e-08    2.522731e-09    1.130000e+00    4.482478e-01    5.614664e-01
    2.546577e+00    1.150930e+01    9.720430e+00    1.502942e+08    2.621321e-08    1.377739e-09    2.410293e-08    2.536062e-09    1.140000e+00    4.482478e-01    5.690915e-01
    2.494656e+00    1.053047e+01    9.968550e+00    1.505318e+08    2.629266e-08    1.470859e-09    2.411632e-08    2.549849e-09    1.150000e+00    4.482478e-01    5.767139e-01
    2.443581e+00    9.645555e+00    1.021774e+01    1.506667e+08    2.637452e-08    1.568963e-09    2.412739e-08    2.564094e-09    1.160000e+00    4.482478e-01    5.843341e-01
    2.393343e+00    8.847074e+00    1.046786e+01    1.506997e+08    2.645882e-08    1.672096e-09    2.413613e-08    2.578793e-09    1.170000e+00    4.482478e-01    5.919524e-01
    2.343941e+00    8.127722e+00    1.071876e+01    1.506328e+08    2.654556e-08    1.780272e-09    2.414251e-08    2.593940e-09    1.180000e+00    4.482478e-01    5.995694e-01
    2.295390e+00    7.480432e+00    1.097030e+01    1.504691e+08    2.663470e-08    1.893469e-09    2.414652e-08    2.609530e-09    1.190000e+00    4.482478e-01    6.071854e-01
    2.247707e+00    6.898452e+00    1.122234e+01    1.502125e+08    2.672620e-08    2.011635e-09    2.414814e-08    2.625551e-09    1.200000e+00    4.482478e-01    6.148008e-01
