# sky130 nfet_01v8 gm/ID Processed Lookup Table
# Corner: sf
# Temperature: 85C
# W = 2.0 um
# L = 2.5 um (2500 nm)
# Columns: gm/id [1/V]  gm/gds [V/V]  id/W [A/m]  ft [Hz]  Cgg/W [F/m]  Cgd/W [F/m]  Cgs/W [F/m]  Cdb/W [F/m]  vgs [V]  vth [V]  vdsat [V]
# vdsat = BSIM4 saturation voltage (|VDS|_sat, positive); use for headroom / saturation / cascode-bias calculations
#           gm/id          gm/gds            id/W              ft           Cgg/W           Cgd/W           Cgs/W           Cdb/W             vgs             vth           vdsat
    2.191582e+01    1.525867e+02    5.953730e-05    3.129220e+04    6.636375e-09    9.638600e-13    2.459995e-09    3.399291e-10    1.300000e-01    4.575793e-01    4.588277e-02
    2.190831e+01    1.523939e+02    7.412335e-05    3.834398e+04    6.740420e-09    1.031323e-12    2.622253e-09    3.580424e-10    1.400000e-01    4.575793e-01    4.588787e-02
    2.189330e+01    1.521829e+02    9.227235e-05    4.693092e+04    6.850840e-09    1.103537e-12    2.791946e-09    3.767799e-10    1.500000e-01    4.575793e-01    4.589422e-02
    2.187138e+01    1.519528e+02    1.148439e-04    5.737477e+04    6.967600e-09    1.180815e-12    2.969015e-09    3.961234e-10    1.600000e-01    4.575793e-01    4.590210e-02
    2.184299e+01    1.517027e+02    1.429008e-04    7.006190e+04    7.090630e-09    1.263488e-12    3.153354e-09    4.160505e-10    1.700000e-01    4.575793e-01    4.591190e-02
    2.180839e+01    1.514317e+02    1.777561e-04    8.545594e+04    7.219815e-09    1.351905e-12    3.344814e-09    4.365348e-10    1.800000e-01    4.575793e-01    4.592407e-02
    2.176777e+01    1.511393e+02    2.210299e-04    1.041123e+05    7.355010e-09    1.446432e-12    3.543196e-09    4.575459e-10    1.900000e-01    4.575793e-01    4.593917e-02
    2.172121e+01    1.508255e+02    2.747188e-04    1.266954e+05    7.496035e-09    1.547461e-12    3.748256e-09    4.790491e-10    2.000000e-01    4.575793e-01    4.595789e-02
    2.166874e+01    1.504905e+02    3.412799e-04    1.539995e+05    7.642670e-09    1.655400e-12    3.959701e-09    5.010060e-10    2.100000e-01    4.575793e-01    4.598108e-02
    2.161037e+01    1.501355e+02    4.237329e-04    1.869725e+05    7.794655e-09    1.770681e-12    4.177199e-09    5.233750e-10    2.200000e-01    4.575793e-01    4.600977e-02
    2.154604e+01    1.497618e+02    5.257840e-04    2.267436e+05    7.951700e-09    1.893759e-12    4.400366e-09    5.461105e-10    2.300000e-01    4.575793e-01    4.604524e-02
    2.147576e+01    1.493724e+02    6.519740e-04    2.746576e+05    8.113485e-09    2.025115e-12    4.628785e-09    5.691650e-10    2.400000e-01    4.575793e-01    4.608903e-02
    2.139958e+01    1.489714e+02    8.078580e-04    3.323138e+05    8.279650e-09    2.165256e-12    4.861997e-09    5.924875e-10    2.500000e-01    4.575793e-01    4.614302e-02
    2.131754e+01    1.485638e+02    1.000222e-03    4.016115e+05    8.449815e-09    2.314715e-12    5.099510e-09    6.160255e-10    2.600000e-01    4.575793e-01    4.620948e-02
    2.122981e+01    1.481572e+02    1.237338e-03    4.848054e+05    8.623575e-09    2.474055e-12    5.340810e-09    6.397250e-10    2.700000e-01    4.575793e-01    4.629117e-02
    2.113666e+01    1.477606e+02    1.529284e-03    5.845711e+05    8.800495e-09    2.643867e-12    5.585340e-09    6.635310e-10    2.800000e-01    4.575793e-01    4.639138e-02
    2.103845e+01    1.473856e+02    1.888304e-03    7.040815e+05    8.980130e-09    2.824781e-12    5.832550e-09    6.873870e-10    2.900000e-01    4.575793e-01    4.651406e-02
    2.093569e+01    1.470467e+02    2.329266e-03    8.471008e+05    9.162025e-09    3.017453e-12    6.081850e-09    7.112375e-10    3.000000e-01    4.575793e-01    4.666394e-02
    2.082907e+01    1.467610e+02    2.870195e-03    1.018097e+06    9.345710e-09    3.222581e-12    6.332655e-09    7.350270e-10    3.100000e-01    4.575793e-01    4.684661e-02
    2.071940e+01    1.465492e+02    3.532919e-03    1.222378e+06    9.530715e-09    3.440901e-12    6.584380e-09    7.587015e-10    3.200000e-01    4.575793e-01    4.706865e-02
    2.060759e+01    1.464349e+02    4.343849e-03    1.466255e+06    9.716560e-09    3.673188e-12    6.836430e-09    7.822075e-10    3.300000e-01    4.575793e-01    4.733778e-02
    2.049471e+01    1.464454e+02    5.334915e-03    1.757244e+06    9.902785e-09    3.920262e-12    7.088225e-09    8.054945e-10    3.400000e-01    4.575793e-01    4.766299e-02
    2.038187e+01    1.466110e+02    6.544695e-03    2.104306e+06    1.008892e-08    4.182989e-12    7.339205e-09    8.285135e-10    3.500000e-01    4.575793e-01    4.805463e-02
    2.027009e+01    1.469650e+02    8.019800e-03    2.518125e+06    1.027453e-08    4.462287e-12    7.588815e-09    8.512190e-10    3.600000e-01    4.575793e-01    4.852457e-02
    2.016031e+01    1.475422e+02    9.816490e-03    3.011454e+06    1.045918e-08    4.759124e-12    7.836530e-09    8.735680e-10    3.700000e-01    4.575793e-01    4.908628e-02
    2.005318e+01    1.483789e+02    1.200267e-02    3.599481e+06    1.064244e-08    5.074525e-12    8.081845e-09    8.955205e-10    3.800000e-01    4.575793e-01    4.975487e-02
    1.994890e+01    1.495106e+02    1.466021e-02    4.300253e+06    1.082394e-08    5.409575e-12    8.324285e-09    9.170410e-10    3.900000e-01    4.575793e-01    5.054712e-02
    1.984710e+01    1.509705e+02    1.788773e-02    5.135108e+06    1.100330e-08    5.765430e-12    8.563415e-09    9.380965e-10    4.000000e-01    4.575793e-01    5.148143e-02
    1.974665e+01    1.527872e+02    2.180378e-02    6.129100e+06    1.118017e-08    6.143305e-12    8.798825e-09    9.586590e-10    4.100000e-01    4.575793e-01    5.257772e-02
    1.964558e+01    1.549825e+02    2.655043e-02    7.311351e+06    1.135426e-08    6.544495e-12    9.030145e-09    9.787030e-10    4.200000e-01    4.575793e-01    5.385719e-02
    1.954096e+01    1.575680e+02    3.229728e-02    8.715272e+06    1.152527e-08    6.970370e-12    9.257045e-09    9.982080e-10    4.300000e-01    4.575793e-01    5.534211e-02
    1.942905e+01    1.605435e+02    3.924567e-02    1.037862e+07    1.169294e-08    7.422395e-12    9.479220e-09    1.017157e-09    4.400000e-01    4.575793e-01    5.705535e-02
    1.930525e+01    1.638934e+02    4.763294e-02    1.234315e+07    1.185706e-08    7.902110e-12    9.696415e-09    1.035536e-09    4.500000e-01    4.575793e-01    5.901993e-02
    1.916445e+01    1.675853e+02    5.773650e-02    1.465400e+07    1.201741e-08    8.411170e-12    9.908415e-09    1.053334e-09    4.600000e-01    4.575793e-01    6.125851e-02
    1.900138e+01    1.715691e+02    6.987720e-02    1.735854e+07    1.217384e-08    8.951320e-12    1.011503e-08    1.070546e-09    4.700000e-01    4.575793e-01    6.379266e-02
    1.881086e+01    1.757761e+02    8.442180e-02    2.050473e+07    1.232620e-08    9.524420e-12    1.031611e-08    1.087168e-09    4.800000e-01    4.575793e-01    6.664227e-02
    1.858834e+01    1.801205e+02    1.017837e-01    2.413902e+07    1.247439e-08    1.013246e-11    1.051155e-08    1.103199e-09    4.900000e-01    4.575793e-01    6.982485e-02
    1.833018e+01    1.845014e+02    1.224219e-01    2.830377e+07    1.261832e-08    1.077755e-11    1.070125e-08    1.118642e-09    5.000000e-01    4.575793e-01    7.335486e-02
    1.803398e+01    1.888066e+02    1.468375e-01    3.303459e+07    1.275792e-08    1.146194e-11    1.088517e-08    1.133501e-09    5.100000e-01    4.575793e-01    7.724312e-02
    1.769882e+01    1.929168e+02    1.755674e-01    3.835737e+07    1.289317e-08    1.218805e-11    1.106329e-08    1.147785e-09    5.200000e-01    4.575793e-01    8.149639e-02
    1.732523e+01    1.967111e+02    2.091757e-01    4.428584e+07    1.302404e-08    1.295841e-11    1.123561e-08    1.161500e-09    5.300000e-01    4.575793e-01    8.611697e-02
    1.691519e+01    2.000731e+02    2.482425e-01    5.081942e+07    1.315053e-08    1.377578e-11    1.140215e-08    1.174660e-09    5.400000e-01    4.575793e-01    9.110257e-02
    1.647193e+01    2.028959e+02    2.933504e-01    5.794187e+07    1.327268e-08    1.464306e-11    1.156295e-08    1.187277e-09    5.500000e-01    4.575793e-01    9.644630e-02
    1.599972e+01    2.050874e+02    3.450702e-01    6.562096e+07    1.339052e-08    1.556340e-11    1.171810e-08    1.199363e-09    5.600000e-01    4.575793e-01    1.021369e-01
    1.550358e+01    2.065748e+02    4.039464e-01    7.380915e+07    1.350410e-08    1.654012e-11    1.186768e-08    1.210937e-09    5.700000e-01    4.575793e-01    1.081590e-01
    1.498895e+01    2.073065e+02    4.704820e-01    8.244506e+07    1.361350e-08    1.757677e-11    1.201178e-08    1.222011e-09    5.800000e-01    4.575793e-01    1.144936e-01
    1.446142e+01    2.072541e+02    5.451265e-01    9.145616e+07    1.371878e-08    1.867721e-11    1.215053e-08    1.232605e-09    5.900000e-01    4.575793e-01    1.211191e-01
    1.392654e+01    2.064124e+02    6.282650e-01    1.007621e+08    1.382004e-08    1.984549e-11    1.228404e-08    1.242735e-09    6.000000e-01    4.575793e-01    1.280111e-01
    1.338954e+01    2.047975e+02    7.202095e-01    1.102776e+08    1.391738e-08    2.108600e-11    1.241244e-08    1.252419e-09    6.100000e-01    4.575793e-01    1.351439e-01
    1.285521e+01    2.024449e+02    8.211960e-01    1.199169e+08    1.401090e-08    2.240343e-11    1.253588e-08    1.261675e-09    6.200000e-01    4.575793e-01    1.424911e-01
    1.232782e+01    1.994059e+02    9.313820e-01    1.295965e+08    1.410072e-08    2.380280e-11    1.265451e-08    1.270523e-09    6.300000e-01    4.575793e-01    1.500257e-01
    1.181103e+01    1.957441e+02    1.050849e+00    1.392386e+08    1.418693e-08    2.528951e-11    1.276847e-08    1.278980e-09    6.400000e-01    4.575793e-01    1.577213e-01
    1.130789e+01    1.915317e+02    1.179606e+00    1.487731e+08    1.426967e-08    2.686933e-11    1.287793e-08    1.287065e-09    6.500000e-01    4.575793e-01    1.655524e-01
    1.082084e+01    1.868458e+02    1.317597e+00    1.581394e+08    1.434906e-08    2.854846e-11    1.298303e-08    1.294796e-09    6.600000e-01    4.575793e-01    1.734947e-01
    1.035176e+01    1.817648e+02    1.464710e+00    1.672874e+08    1.442522e-08    3.033357e-11    1.308394e-08    1.302192e-09    6.700000e-01    4.575793e-01    1.815256e-01
    9.902001e+00    1.763660e+02    1.620783e+00    1.761780e+08    1.449827e-08    3.223181e-11    1.318082e-08    1.309269e-09    6.800000e-01    4.575793e-01    1.896243e-01
    9.472437e+00    1.707232e+02    1.785618e+00    1.847822e+08    1.456834e-08    3.425085e-11    1.327380e-08    1.316046e-09    6.900000e-01    4.575793e-01    1.977721e-01
    9.063556e+00    1.649052e+02    1.958986e+00    1.930817e+08    1.463555e-08    3.639896e-11    1.336307e-08    1.322541e-09    7.000000e-01    4.575793e-01    2.059523e-01
    8.675485e+00    1.589743e+02    2.140640e+00    2.010663e+08    1.470003e-08    3.868500e-11    1.344877e-08    1.328768e-09    7.100000e-01    4.575793e-01    2.141500e-01
    8.308067e+00    1.529859e+02    2.330320e+00    2.087342e+08    1.476190e-08    4.111851e-11    1.353104e-08    1.334746e-09    7.200000e-01    4.575793e-01    2.223527e-01
    7.960926e+00    1.469882e+02    2.527761e+00    2.160898e+08    1.482127e-08    4.370976e-11    1.361003e-08    1.340490e-09    7.300000e-01    4.575793e-01    2.305496e-01
    7.633493e+00    1.410223e+02    2.732699e+00    2.231427e+08    1.487828e-08    4.646979e-11    1.368588e-08    1.346014e-09    7.400000e-01    4.575793e-01    2.387315e-01
    7.325068e+00    1.351225e+02    2.944877e+00    2.299065e+08    1.493302e-08    4.941048e-11    1.375873e-08    1.351336e-09    7.500000e-01    4.575793e-01    2.468911e-01
    7.034854e+00    1.293169e+02    3.164047e+00    2.363977e+08    1.498562e-08    5.254460e-11    1.382871e-08    1.356469e-09    7.600000e-01    4.575793e-01    2.550224e-01
    6.761983e+00    1.236276e+02    3.389973e+00    2.426343e+08    1.503621e-08    5.588595e-11    1.389596e-08    1.361426e-09    7.700000e-01    4.575793e-01    2.631206e-01
    6.505550e+00    1.180719e+02    3.622435e+00    2.486357e+08    1.508486e-08    5.944930e-11    1.396059e-08    1.366223e-09    7.800000e-01    4.575793e-01    2.711824e-01
    6.264634e+00    1.126628e+02    3.861226e+00    2.544211e+08    1.513171e-08    6.325065e-11    1.402273e-08    1.370871e-09    7.900000e-01    4.575793e-01    2.792051e-01
    6.038310e+00    1.074093e+02    4.106158e+00    2.600098e+08    1.517684e-08    6.730710e-11    1.408249e-08    1.375385e-09    8.000000e-01    4.575793e-01    2.871871e-01
    5.825666e+00    1.023173e+02    4.357056e+00    2.654201e+08    1.522037e-08    7.163730e-11    1.413997e-08    1.379777e-09    8.100000e-01    4.575793e-01    2.951274e-01
    5.625817e+00    9.739043e+01    4.613762e+00    2.706691e+08    1.526238e-08    7.626100e-11    1.419528e-08    1.384058e-09    8.200000e-01    4.575793e-01    3.030257e-01
    5.437908e+00    9.262991e+01    4.876133e+00    2.757728e+08    1.530298e-08    8.119980e-11    1.424852e-08    1.388242e-09    8.300000e-01    4.575793e-01    3.108822e-01
    5.261120e+00    8.803550e+01    5.144040e+00    2.807456e+08    1.534227e-08    8.647675e-11    1.429979e-08    1.392338e-09    8.400000e-01    4.575793e-01    3.186974e-01
    5.094673e+00    8.360566e+01    5.417365e+00    2.856005e+08    1.538033e-08    9.211665e-11    1.434918e-08    1.396359e-09    8.500000e-01    4.575793e-01    3.264723e-01
    4.937834e+00    7.933791e+01    5.696000e+00    2.903484e+08    1.541726e-08    9.814635e-11    1.439675e-08    1.400317e-09    8.600000e-01    4.575793e-01    3.342079e-01
    4.789908e+00    7.522914e+01    5.979850e+00    2.949995e+08    1.545312e-08    1.045946e-10    1.444260e-08    1.404220e-09    8.700000e-01    4.575793e-01    3.419057e-01
    4.650243e+00    7.127577e+01    6.268830e+00    2.995614e+08    1.548804e-08    1.114924e-10    1.448680e-08    1.408080e-09    8.800000e-01    4.575793e-01    3.495671e-01
    4.518231e+00    6.747396e+01    6.562860e+00    3.040411e+08    1.552206e-08    1.188729e-10    1.452942e-08    1.411909e-09    8.900000e-01    4.575793e-01    3.571937e-01
    4.393309e+00    6.381976e+01    6.861860e+00    3.084435e+08    1.555529e-08    1.267720e-10    1.457052e-08    1.415715e-09    9.000000e-01    4.575793e-01    3.647872e-01
    4.274949e+00    6.030917e+01    7.165760e+00    3.127724e+08    1.558781e-08    1.352280e-10    1.461016e-08    1.419509e-09    9.100000e-01    4.575793e-01    3.723493e-01
    4.162658e+00    5.693835e+01    7.474500e+00    3.170303e+08    1.561969e-08    1.442820e-10    1.464841e-08    1.423302e-09    9.200000e-01    4.575793e-01    3.798816e-01
    4.055982e+00    5.370345e+01    7.788015e+00    3.212186e+08    1.565101e-08    1.539783e-10    1.468530e-08    1.427102e-09    9.300000e-01    4.575793e-01    3.873858e-01
    3.954499e+00    5.060088e+01    8.106240e+00    3.253373e+08    1.568185e-08    1.643640e-10    1.472089e-08    1.430921e-09    9.400000e-01    4.575793e-01    3.948636e-01
    3.857817e+00    4.762726e+01    8.429115e+00    3.293854e+08    1.571229e-08    1.754896e-10    1.475521e-08    1.434768e-09    9.500000e-01    4.575793e-01    4.023165e-01
    3.765574e+00    4.477930e+01    8.756580e+00    3.333611e+08    1.574240e-08    1.874091e-10    1.478832e-08    1.438653e-09    9.600000e-01    4.575793e-01    4.097462e-01
    3.677436e+00    4.205404e+01    9.088565e+00    3.372612e+08    1.577227e-08    2.001799e-10    1.482023e-08    1.442586e-09    9.700000e-01    4.575793e-01    4.171541e-01
    3.593088e+00    3.944865e+01    9.425010e+00    3.410819e+08    1.580197e-08    2.138631e-10    1.485098e-08    1.446577e-09    9.800000e-01    4.575793e-01    4.245418e-01
    3.512244e+00    3.696045e+01    9.765840e+00    3.448184e+08    1.583157e-08    2.285239e-10    1.488059e-08    1.450636e-09    9.900000e-01    4.575793e-01    4.319104e-01
    3.434635e+00    3.458696e+01    1.011098e+01    3.484651e+08    1.586115e-08    2.442310e-10    1.490909e-08    1.454773e-09    1.000000e+00    4.575793e-01    4.392615e-01
    3.360011e+00    3.232585e+01    1.046037e+01    3.520155e+08    1.589081e-08    2.610571e-10    1.493649e-08    1.458998e-09    1.010000e+00    4.575793e-01    4.465961e-01
    3.288141e+00    3.017482e+01    1.081390e+01    3.554624e+08    1.592059e-08    2.790789e-10    1.496281e-08    1.463322e-09    1.020000e+00    4.575793e-01    4.539156e-01
    3.218809e+00    2.813171e+01    1.117149e+01    3.587977e+08    1.595059e-08    2.983772e-10    1.498804e-08    1.467752e-09    1.030000e+00    4.575793e-01    4.612210e-01
    3.151815e+00    2.619437e+01    1.153304e+01    3.620130e+08    1.598087e-08    3.190362e-10    1.501220e-08    1.472302e-09    1.040000e+00    4.575793e-01    4.685134e-01
    3.086970e+00    2.436067e+01    1.189845e+01    3.650986e+08    1.601153e-08    3.411439e-10    1.503530e-08    1.476980e-09    1.050000e+00    4.575793e-01    4.757937e-01
    3.024102e+00    2.262842e+01    1.226760e+01    3.680446e+08    1.604263e-08    3.647916e-10    1.505731e-08    1.481795e-09    1.060000e+00    4.575793e-01    4.830629e-01
    2.963047e+00    2.099542e+01    1.264038e+01    3.708407e+08    1.607427e-08    3.900740e-10    1.507825e-08    1.486759e-09    1.070000e+00    4.575793e-01    4.903220e-01
    2.903654e+00    1.945937e+01    1.301664e+01    3.734759e+08    1.610650e-08    4.170879e-10    1.509809e-08    1.491880e-09    1.080000e+00    4.575793e-01    4.975717e-01
    2.845785e+00    1.801782e+01    1.339625e+01    3.759393e+08    1.613941e-08    4.459324e-10    1.511682e-08    1.497168e-09    1.090000e+00    4.575793e-01    5.048127e-01
    2.789311e+00    1.666821e+01    1.377904e+01    3.782192e+08    1.617307e-08    4.767080e-10    1.513445e-08    1.502632e-09    1.100000e+00    4.575793e-01    5.120459e-01
    2.734116e+00    1.540783e+01    1.416487e+01    3.803048e+08    1.620756e-08    5.095155e-10    1.515093e-08    1.508280e-09    1.110000e+00    4.575793e-01    5.192720e-01
    2.680091e+00    1.423376e+01    1.455355e+01    3.821852e+08    1.624295e-08    5.444565e-10    1.516625e-08    1.514122e-09    1.120000e+00    4.575793e-01    5.264915e-01
    2.627146e+00    1.314292e+01    1.494490e+01    3.838501e+08    1.627929e-08    5.816290e-10    1.518038e-08    1.520165e-09    1.130000e+00    4.575793e-01    5.337051e-01
    2.575195e+00    1.213205e+01    1.533873e+01    3.852902e+08    1.631667e-08    6.211305e-10    1.519330e-08    1.526415e-09    1.140000e+00    4.575793e-01    5.409134e-01
    2.524170e+00    1.119769e+01    1.573484e+01    3.864972e+08    1.635515e-08    6.630545e-10    1.520499e-08    1.532880e-09    1.150000e+00    4.575793e-01    5.481169e-01
    2.474012e+00    1.033623e+01    1.613301e+01    3.874646e+08    1.639477e-08    7.074875e-10    1.521541e-08    1.539564e-09    1.160000e+00    4.575793e-01    5.553161e-01
    2.424677e+00    9.543913e+00    1.653303e+01    3.881874e+08    1.643559e-08    7.545110e-10    1.522454e-08    1.546473e-09    1.170000e+00    4.575793e-01    5.625115e-01
    2.376133e+00    8.816862e+00    1.693468e+01    3.886627e+08    1.647764e-08    8.041980e-10    1.523235e-08    1.553609e-09    1.180000e+00    4.575793e-01    5.697036e-01
    2.328358e+00    8.151125e+00    1.733774e+01    3.888898e+08    1.652098e-08    8.566105e-10    1.523883e-08    1.560977e-09    1.190000e+00    4.575793e-01    5.768928e-01
    2.281343e+00    7.542707e+00    1.774198e+01    3.888708e+08    1.656561e-08    9.118000e-10    1.524392e-08    1.568575e-09    1.200000e+00    4.575793e-01    5.840794e-01
    2.235088e+00    6.987604e+00    1.814718e+01    3.886094e+08    1.661156e-08    9.698050e-10    1.524765e-08    1.576406e-09    1.210000e+00    4.575793e-01    5.912640e-01
