# sky130 nfet_01v8 gm/ID Processed Lookup Table
# Corner: sf
# Temperature: 85C
# W = 2.0 um
# L = 1 um (1000 nm)
# Columns: gm/id [1/V]  gm/gds [V/V]  id/W [A/m]  ft [Hz]  Cgg/W [F/m]  Cgd/W [F/m]  Cgs/W [F/m]  Cdb/W [F/m]  vgs [V]  vth [V]  vdsat [V]
# vdsat = BSIM4 saturation voltage (|VDS|_sat, positive); use for headroom / saturation / cascode-bias calculations
#           gm/id          gm/gds            id/W              ft           Cgg/W           Cgd/W           Cgs/W           Cdb/W             vgs             vth           vdsat
    2.381095e+01    1.443309e+02    7.522170e-05    1.294573e+05    2.201980e-09    2.122639e-13    5.652910e-10    7.748295e-11    1.500000e-01    5.261525e-01    5.081233e-02
    2.380503e+01    1.441748e+02    9.544275e-05    1.622183e+05    2.229113e-09    2.282446e-13    6.116925e-10    8.259755e-11    1.600000e-01    5.261525e-01    5.081479e-02
    2.379159e+01    1.440007e+02    1.210877e-04    2.029709e+05    2.258968e-09    2.454867e-13    6.612465e-10    8.798790e-11    1.700000e-01    5.261525e-01    5.081791e-02
    2.377119e+01    1.438068e+02    1.535975e-04    2.535789e+05    2.291617e-09    2.640862e-13    7.140430e-10    9.365755e-11    1.800000e-01    5.261525e-01    5.082187e-02
    2.374423e+01    1.435914e+02    1.947891e-04    3.163183e+05    2.327119e-09    2.841448e-13    7.701560e-10    9.960845e-11    1.900000e-01    5.261525e-01    5.082688e-02
    2.371086e+01    1.433525e+02    2.469531e-04    3.939623e+05    2.365524e-09    3.057706e-13    8.296425e-10    1.058411e-10    2.000000e-01    5.261525e-01    5.083322e-02
    2.367115e+01    1.430880e+02    3.129719e-04    4.898843e+05    2.406863e-09    3.290786e-13    8.925430e-10    1.123541e-10    2.100000e-01    5.261525e-01    5.084125e-02
    2.362499e+01    1.427961e+02    3.964698e-04    6.081784e+05    2.451156e-09    3.541905e-13    9.588755e-10    1.191441e-10    2.200000e-01    5.261525e-01    5.085139e-02
    2.357223e+01    1.424748e+02    5.019955e-04    7.538042e+05    2.498401e-09    3.812354e-13    1.028637e-09    1.262058e-10    2.300000e-01    5.261525e-01    5.086421e-02
    2.351260e+01    1.421222e+02    6.352515e-04    9.327555e+05    2.548583e-09    4.103499e-13    1.101803e-09    1.335321e-10    2.400000e-01    5.261525e-01    5.088039e-02
    2.344581e+01    1.417369e+02    8.033730e-04    1.152263e+06    2.601663e-09    4.416781e-13    1.178321e-09    1.411133e-10    2.500000e-01    5.261525e-01    5.090079e-02
    2.337151e+01    1.413176e+02    1.015272e-03    1.421027e+06    2.657585e-09    4.753729e-13    1.258118e-09    1.489383e-10    2.600000e-01    5.261525e-01    5.092648e-02
    2.328938e+01    1.408634e+02    1.282060e-03    1.749496e+06    2.716274e-09    5.115950e-13    1.341092e-09    1.569933e-10    2.700000e-01    5.261525e-01    5.095878e-02
    2.319908e+01    1.403744e+02    1.617558e-03    2.150187e+06    2.777629e-09    5.505150e-13    1.427117e-09    1.652629e-10    2.800000e-01    5.261525e-01    5.099935e-02
    2.310031e+01    1.398514e+02    2.038923e-03    2.638066e+06    2.841534e-09    5.923120e-13    1.516043e-09    1.737296e-10    2.900000e-01    5.261525e-01    5.105021e-02
    2.299285e+01    1.392960e+02    2.567402e-03    3.230981e+06    2.907853e-09    6.371745e-13    1.607694e-09    1.823743e-10    3.000000e-01    5.261525e-01    5.111387e-02
    2.287657e+01    1.387117e+02    3.229247e-03    3.950177e+06    2.976430e-09    6.853030e-13    1.701874e-09    1.911762e-10    3.100000e-01    5.261525e-01    5.119338e-02
    2.275145e+01    1.381031e+02    4.056808e-03    4.820898e+06    3.047093e-09    7.369065e-13    1.798364e-09    2.001132e-10    3.200000e-01    5.261525e-01    5.129246e-02
    2.261762e+01    1.374771e+02    5.089855e-03    5.873086e+06    3.119652e-09    7.922075e-13    1.896927e-09    2.091618e-10    3.300000e-01    5.261525e-01    5.141563e-02
    2.247542e+01    1.368428e+02    6.377150e-03    7.142212e+06    3.193905e-09    8.514385e-13    1.997309e-09    2.182979e-10    3.400000e-01    5.261525e-01    5.156832e-02
    2.232534e+01    1.362113e+02    7.978350e-03    8.670253e+06    3.269638e-09    9.148455e-13    2.099244e-09    2.274964e-10    3.500000e-01    5.261525e-01    5.175706e-02
    2.216811e+01    1.355965e+02    9.966250e-03    1.050686e+07    3.346628e-09    9.826885e-13    2.202452e-09    2.367321e-10    3.600000e-01    5.261525e-01    5.198957e-02
    2.200459e+01    1.350147e+02    1.242950e-02    1.271077e+07    3.424644e-09    1.055241e-12    2.306649e-09    2.459794e-10    3.700000e-01    5.261525e-01    5.227497e-02
    2.183584e+01    1.344845e+02    1.547582e-02    1.535139e+07    3.503451e-09    1.132789e-12    2.411545e-09    2.552133e-10    3.800000e-01    5.261525e-01    5.262390e-02
    2.166298e+01    1.340263e+02    1.923585e-02    1.851081e+07    3.582813e-09    1.215640e-12    2.516847e-09    2.644086e-10    3.900000e-01    5.261525e-01    5.304867e-02
    2.148709e+01    1.336615e+02    2.386775e-02    2.228601e+07    3.662493e-09    1.304114e-12    2.622266e-09    2.735414e-10    4.000000e-01    5.261525e-01    5.356336e-02
    2.130912e+01    1.334111e+02    2.956262e-02    2.679137e+07    3.742259e-09    1.398550e-12    2.727517e-09    2.825882e-10    4.100000e-01    5.261525e-01    5.418387e-02
    2.112965e+01    1.332945e+02    3.655089e-02    3.216127e+07    3.821881e-09    1.499306e-12    2.832323e-09    2.915271e-10    4.200000e-01    5.261525e-01    5.492790e-02
    2.094876e+01    1.333274e+02    4.510978e-02    3.855294e+07    3.901142e-09    1.606760e-12    2.936419e-09    3.003374e-10    4.300000e-01    5.261525e-01    5.581488e-02
    2.076584e+01    1.335197e+02    5.557170e-02    4.614864e+07    3.979829e-09    1.721316e-12    3.039549e-09    3.089997e-10    4.400000e-01    5.261525e-01    5.686577e-02
    2.057938e+01    1.338726e+02    6.833375e-02    5.515731e+07    4.057745e-09    1.843396e-12    3.141476e-09    3.174966e-10    4.500000e-01    5.261525e-01    5.810275e-02
    2.038697e+01    1.343777e+02    8.386780e-02    6.581484e+07    4.134701e-09    1.973450e-12    3.241976e-09    3.258119e-10    4.600000e-01    5.261525e-01    5.954880e-02
    2.018522e+01    1.350136e+02    1.027308e-01    7.838230e+07    4.210528e-09    2.111955e-12    3.340845e-09    3.339318e-10    4.700000e-01    5.261525e-01    6.122718e-02
    1.997003e+01    1.357462e+02    1.255748e-01    9.314162e+07    4.285066e-09    2.259415e-12    3.437899e-09    3.418438e-10    4.800000e-01    5.261525e-01    6.316071e-02
    1.973670e+01    1.365280e+02    1.531553e-01    1.103881e+08    4.358175e-09    2.416369e-12    3.532970e-09    3.495378e-10    4.900000e-01    5.261525e-01    6.537113e-02
    1.948042e+01    1.372997e+02    1.863375e-01    1.304192e+08    4.429727e-09    2.583384e-12    3.625914e-09    3.570049e-10    5.000000e-01    5.261525e-01    6.787825e-02
    1.919667e+01    1.379924e+02    2.260982e-01    1.535210e+08    4.499613e-09    2.761067e-12    3.716604e-09    3.642387e-10    5.100000e-01    5.261525e-01    7.069920e-02
    1.888162e+01    1.385317e+02    2.735237e-01    1.799504e+08    4.567740e-09    2.950061e-12    3.804934e-09    3.712339e-10    5.200000e-01    5.261525e-01    7.384772e-02
    1.853265e+01    1.388424e+02    3.298007e-01    2.099184e+08    4.634028e-09    3.151052e-12    3.890818e-09    3.779872e-10    5.300000e-01    5.261525e-01    7.733350e-02
    1.814848e+01    1.388531e+02    3.962018e-01    2.435710e+08    4.698413e-09    3.364768e-12    3.974186e-09    3.844967e-10    5.400000e-01    5.261525e-01    8.116176e-02
    1.772942e+01    1.385019e+02    4.740637e-01    2.809746e+08    4.760847e-09    3.591989e-12    4.054991e-09    3.907620e-10    5.500000e-01    5.261525e-01    8.533294e-02
    1.727731e+01    1.377397e+02    5.647605e-01    3.221046e+08    4.821296e-09    3.833542e-12    4.133195e-09    3.967839e-10    5.600000e-01    5.261525e-01    8.984263e-02
    1.679539e+01    1.365343e+02    6.696720e-01    3.668394e+08    4.879736e-09    4.090311e-12    4.208783e-09    4.025647e-10    5.700000e-01    5.261525e-01    9.468174e-02
    1.628795e+01    1.348709e+02    7.901510e-01    4.149614e+08    4.936157e-09    4.363241e-12    4.281750e-09    4.081075e-10    5.800000e-01    5.261525e-01    9.983683e-02
    1.576013e+01    1.327529e+02    9.274875e-01    4.661639e+08    4.990560e-09    4.653339e-12    4.352104e-09    4.134165e-10    5.900000e-01    5.261525e-01    1.052906e-01
    1.521749e+01    1.302004e+02    1.082878e+00    5.200648e+08    5.042955e-09    4.961683e-12    4.419868e-09    4.184966e-10    6.000000e-01    5.261525e-01    1.110226e-01
    1.466572e+01    1.272476e+02    1.257397e+00    5.762239e+08    5.093360e-09    5.289425e-12    4.485072e-09    4.233536e-10    6.100000e-01    5.261525e-01    1.170099e-01
    1.411034e+01    1.239398e+02    1.451975e+00    6.341632e+08    5.141805e-09    5.637795e-12    4.547757e-09    4.279937e-10    6.200000e-01    5.261525e-01    1.232278e-01
    1.355653e+01    1.203300e+02    1.667383e+00    6.933893e+08    5.188320e-09    6.008120e-12    4.607972e-09    4.324240e-10    6.300000e-01    5.261525e-01    1.296507e-01
    1.300889e+01    1.164753e+02    1.904226e+00    7.534117e+08    5.232950e-09    6.401800e-12    4.665772e-09    4.366513e-10    6.400000e-01    5.261525e-01    1.362526e-01
    1.247145e+01    1.124340e+02    2.162938e+00    8.137634e+08    5.275735e-09    6.820355e-12    4.721219e-09    4.406835e-10    6.500000e-01    5.261525e-01    1.430080e-01
    1.194754e+01    1.082627e+02    2.443789e+00    8.740126e+08    5.316730e-09    7.265410e-12    4.774378e-09    4.445281e-10    6.600000e-01    5.261525e-01    1.498921e-01
    1.143983e+01    1.040144e+02    2.746898e+00    9.337762e+08    5.355985e-09    7.738700e-12    4.825319e-09    4.481932e-10    6.700000e-01    5.261525e-01    1.568813e-01
    1.095037e+01    9.973741e+01    3.072241e+00    9.927259e+08    5.393550e-09    8.242090e-12    4.874115e-09    4.516866e-10    6.800000e-01    5.261525e-01    1.639538e-01
    1.048061e+01    9.547387e+01    3.419674e+00    1.050587e+09    5.429495e-09    8.777590e-12    4.920839e-09    4.550166e-10    6.900000e-01    5.261525e-01    1.710894e-01
    1.003152e+01    9.125986e+01    3.788948e+00    1.107145e+09    5.463875e-09    9.347345e-12    4.965567e-09    4.581910e-10    7.000000e-01    5.261525e-01    1.782699e-01
    9.603583e+00    8.712518e+01    4.179728e+00    1.162240e+09    5.496745e-09    9.953670e-12    5.008375e-09    4.612178e-10    7.100000e-01    5.261525e-01    1.854789e-01
    9.196945e+00    8.309370e+01    4.591611e+00    1.215759e+09    5.528170e-09    1.059905e-11    5.049345e-09    4.641048e-10    7.200000e-01    5.261525e-01    1.927019e-01
    8.811433e+00    7.918372e+01    5.024145e+00    1.267634e+09    5.558210e-09    1.128615e-11    5.088545e-09    4.668598e-10    7.300000e-01    5.261525e-01    1.999265e-01
    8.446624e+00    7.540880e+01    5.476845e+00    1.317833e+09    5.586930e-09    1.201785e-11    5.126055e-09    4.694902e-10    7.400000e-01    5.261525e-01    2.071417e-01
    8.101938e+00    7.177811e+01    5.949190e+00    1.366359e+09    5.614385e-09    1.279724e-11    5.161950e-09    4.720034e-10    7.500000e-01    5.261525e-01    2.143385e-01
    7.776627e+00    6.829726e+01    6.440665e+00    1.413234e+09    5.640635e-09    1.362764e-11    5.196300e-09    4.744066e-10    7.600000e-01    5.261525e-01    2.215090e-01
    7.469849e+00    6.496880e+01    6.950750e+00    1.458500e+09    5.665745e-09    1.451265e-11    5.229180e-09    4.767067e-10    7.700000e-01    5.261525e-01    2.286469e-01
    7.180727e+00    6.179293e+01    7.478915e+00    1.502218e+09    5.689765e-09    1.545611e-11    5.260655e-09    4.789105e-10    7.800000e-01    5.261525e-01    2.357470e-01
    6.908320e+00    5.876792e+01    8.024665e+00    1.544450e+09    5.712755e-09    1.646217e-11    5.290790e-09    4.810245e-10    7.900000e-01    5.261525e-01    2.428050e-01
    6.651684e+00    5.589037e+01    8.587495e+00    1.585266e+09    5.734770e-09    1.753534e-11    5.319655e-09    4.830549e-10    8.000000e-01    5.261525e-01    2.498179e-01
    6.409885e+00    5.315599e+01    9.166935e+00    1.624740e+09    5.755865e-09    1.868043e-11    5.347305e-09    4.850080e-10    8.100000e-01    5.261525e-01    2.567830e-01
    6.182007e+00    5.055966e+01    9.762525e+00    1.662946e+09    5.776085e-09    1.990264e-11    5.373805e-09    4.868894e-10    8.200000e-01    5.261525e-01    2.636987e-01
    5.967150e+00    4.809557e+01    1.037383e+01    1.699951e+09    5.795485e-09    2.120760e-11    5.399215e-09    4.887050e-10    8.300000e-01    5.261525e-01    2.705637e-01
    5.764463e+00    4.575782e+01    1.100043e+01    1.735822e+09    5.814115e-09    2.260136e-11    5.423585e-09    4.904603e-10    8.400000e-01    5.261525e-01    2.773773e-01
    5.573133e+00    4.354019e+01    1.164194e+01    1.770621e+09    5.832020e-09    2.409044e-11    5.446965e-09    4.921603e-10    8.500000e-01    5.261525e-01    2.841391e-01
    5.392387e+00    4.143654e+01    1.229795e+01    1.804405e+09    5.849245e-09    2.568191e-11    5.469410e-09    4.938103e-10    8.600000e-01    5.261525e-01    2.908491e-01
    5.221489e+00    3.944070e+01    1.296812e+01    1.837221e+09    5.865840e-09    2.738335e-11    5.490960e-09    4.954153e-10    8.700000e-01    5.261525e-01    2.975076e-01
    5.059762e+00    3.754677e+01    1.365210e+01    1.869116e+09    5.881840e-09    2.920297e-11    5.511665e-09    4.969801e-10    8.800000e-01    5.261525e-01    3.041152e-01
    4.906567e+00    3.574900e+01    1.434953e+01    1.900129e+09    5.897290e-09    3.114962e-11    5.531570e-09    4.985090e-10    8.900000e-01    5.261525e-01    3.106723e-01
    4.761302e+00    3.404189e+01    1.506013e+01    1.930292e+09    5.912230e-09    3.323283e-11    5.550705e-09    5.000070e-10    9.000000e-01    5.261525e-01    3.171799e-01
    4.623418e+00    3.242022e+01    1.578355e+01    1.959636e+09    5.926695e-09    3.546291e-11    5.569115e-09    5.014780e-10    9.100000e-01    5.261525e-01    3.236387e-01
    4.492396e+00    3.087904e+01    1.651951e+01    1.988177e+09    5.940735e-09    3.785094e-11    5.586830e-09    5.029265e-10    9.200000e-01    5.261525e-01    3.300499e-01
    4.367760e+00    2.941370e+01    1.726769e+01    2.015939e+09    5.954370e-09    4.040888e-11    5.603890e-09    5.043565e-10    9.300000e-01    5.261525e-01    3.364143e-01
    4.249065e+00    2.801980e+01    1.802783e+01    2.042931e+09    5.967650e-09    4.314960e-11    5.620320e-09    5.057725e-10    9.400000e-01    5.261525e-01    3.427331e-01
    4.135906e+00    2.669325e+01    1.879963e+01    2.069164e+09    5.980605e-09    4.608700e-11    5.636145e-09    5.071785e-10    9.500000e-01    5.261525e-01    3.490073e-01
    4.027900e+00    2.543024e+01    1.958281e+01    2.094645e+09    5.993265e-09    4.923598e-11    5.651400e-09    5.085780e-10    9.600000e-01    5.261525e-01    3.552381e-01
    3.924699e+00    2.422717e+01    2.037709e+01    2.119372e+09    6.005670e-09    5.261260e-11    5.666100e-09    5.099750e-10    9.700000e-01    5.261525e-01    3.614264e-01
    3.825979e+00    2.308071e+01    2.118220e+01    2.143347e+09    6.017850e-09    5.623410e-11    5.680280e-09    5.113740e-10    9.800000e-01    5.261525e-01    3.675735e-01
    3.731442e+00    2.198778e+01    2.199785e+01    2.166563e+09    6.029840e-09    6.011905e-11    5.693945e-09    5.127785e-10    9.900000e-01    5.261525e-01    3.736803e-01
    3.640808e+00    2.094546e+01    2.282378e+01    2.189014e+09    6.041670e-09    6.428720e-11    5.707125e-09    5.141920e-10    1.000000e+00    5.261525e-01    3.797480e-01
    3.553826e+00    1.995111e+01    2.365970e+01    2.210692e+09    6.053370e-09    6.875985e-11    5.719830e-09    5.156190e-10    1.010000e+00    5.261525e-01    3.857775e-01
    3.470261e+00    1.900222e+01    2.450534e+01    2.231587e+09    6.064975e-09    7.355975e-11    5.732075e-09    5.170625e-10    1.020000e+00    5.261525e-01    3.917700e-01
    3.389889e+00    1.809646e+01    2.536041e+01    2.251683e+09    6.076515e-09    7.871110e-11    5.743875e-09    5.185275e-10    1.030000e+00    5.261525e-01    3.977264e-01
    3.312513e+00    1.723170e+01    2.622462e+01    2.270965e+09    6.088025e-09    8.423980e-11    5.755245e-09    5.200170e-10    1.040000e+00    5.261525e-01    4.036476e-01
    3.237943e+00    1.640591e+01    2.709770e+01    2.289419e+09    6.099530e-09    9.017325e-11    5.766185e-09    5.215355e-10    1.050000e+00    5.261525e-01    4.095347e-01
    3.166008e+00    1.561724e+01    2.797934e+01    2.307025e+09    6.111070e-09    9.654060e-11    5.776710e-09    5.230865e-10    1.060000e+00    5.261525e-01    4.153885e-01
    3.096546e+00    1.486396e+01    2.886925e+01    2.323765e+09    6.122670e-09    1.033727e-10    5.786825e-09    5.246740e-10    1.070000e+00    5.261525e-01    4.212100e-01
    3.029405e+00    1.414441e+01    2.976714e+01    2.339617e+09    6.134365e-09    1.107020e-10    5.796525e-09    5.263020e-10    1.080000e+00    5.261525e-01    4.270001e-01
    2.964449e+00    1.345712e+01    3.067268e+01    2.354563e+09    6.146185e-09    1.185626e-10    5.805825e-09    5.279745e-10    1.090000e+00    5.261525e-01    4.327595e-01
    2.901549e+00    1.280064e+01    3.158558e+01    2.368579e+09    6.158160e-09    1.269902e-10    5.814720e-09    5.296955e-10    1.100000e+00    5.261525e-01    4.384893e-01
    2.840583e+00    1.217367e+01    3.250551e+01    2.381641e+09    6.170330e-09    1.360222e-10    5.823210e-09    5.314690e-10    1.110000e+00    5.261525e-01    4.441901e-01
    2.781441e+00    1.157497e+01    3.343216e+01    2.393729e+09    6.182720e-09    1.456971e-10    5.831295e-09    5.332985e-10    1.120000e+00    5.261525e-01    4.498627e-01
    2.724019e+00    1.100336e+01    3.436520e+01    2.404818e+09    6.195365e-09    1.560548e-10    5.838965e-09    5.351885e-10    1.130000e+00    5.261525e-01    4.555081e-01
    2.668219e+00    1.045777e+01    3.530428e+01    2.414886e+09    6.208295e-09    1.671361e-10    5.846220e-09    5.371425e-10    1.140000e+00    5.261525e-01    4.611268e-01
    2.613951e+00    9.937149e+00    3.624908e+01    2.423910e+09    6.221540e-09    1.789827e-10    5.853050e-09    5.391640e-10    1.150000e+00    5.261525e-01    4.667198e-01
    2.561132e+00    9.440537e+00    3.719923e+01    2.431869e+09    6.235135e-09    1.916365e-10    5.859455e-09    5.412570e-10    1.160000e+00    5.261525e-01    4.722876e-01
    2.509683e+00    8.967012e+00    3.815440e+01    2.438740e+09    6.249110e-09    2.051398e-10    5.865415e-09    5.434250e-10    1.170000e+00    5.261525e-01    4.778310e-01
    2.459531e+00    8.515698e+00    3.911422e+01    2.444504e+09    6.263490e-09    2.195341e-10    5.870930e-09    5.456705e-10    1.180000e+00    5.261525e-01    4.833508e-01
    2.410608e+00    8.085764e+00    4.007833e+01    2.449142e+09    6.278305e-09    2.348604e-10    5.875985e-09    5.479970e-10    1.190000e+00    5.261525e-01    4.888476e-01
    2.362853e+00    7.676423e+00    4.104636e+01    2.452639e+09    6.293580e-09    2.511582e-10    5.880570e-09    5.504070e-10    1.200000e+00    5.261525e-01    4.943221e-01
    2.316206e+00    7.286917e+00    4.201794e+01    2.454981e+09    6.309340e-09    2.684648e-10    5.884670e-09    5.529035e-10    1.210000e+00    5.261525e-01    4.997749e-01
    2.270615e+00    6.916510e+00    4.299267e+01    2.456156e+09    6.325605e-09    2.868150e-10    5.888280e-09    5.554875e-10    1.220000e+00    5.261525e-01    5.052067e-01
    2.226029e+00    6.564504e+00    4.397020e+01    2.456157e+09    6.342395e-09    3.062402e-10    5.891385e-09    5.581615e-10    1.230000e+00    5.261525e-01    5.106182e-01
