# sky130 nfet_01v8 gm/ID Processed Lookup Table
# Corner: fs
# Temperature: 85C
# W = 2.0 um
# L = 0.18 um (180 nm)
# Columns: gm/id [1/V]  gm/gds [V/V]  id/W [A/m]  ft [Hz]  Cgg/W [F/m]  Cgd/W [F/m]  Cgs/W [F/m]  Cdb/W [F/m]  vgs [V]  vth [V]  vdsat [V]
# vdsat = BSIM4 saturation voltage (|VDS|_sat, positive); use for headroom / saturation / cascode-bias calculations
#           gm/id          gm/gds            id/W              ft           Cgg/W           Cgd/W           Cgs/W           Cdb/W             vgs             vth           vdsat
    2.385423e+01    3.283538e+01    1.018407e-04    7.392493e+05    5.230170e-10    1.457755e-13    5.032605e-11    8.293350e-12    2.300000e-01    7.304965e-01    4.997441e-02
    2.385183e+01    3.290985e+01    1.292754e-04    9.363049e+05    5.241315e-10    1.531972e-13    5.394045e-11    8.819500e-12    2.400000e-01    7.304965e-01    4.997485e-02
    2.384401e+01    3.298176e+01    1.640922e-04    1.185064e+06    5.254670e-10    1.608917e-13    5.780650e-11    9.376370e-12    2.500000e-01    7.304965e-01    4.997541e-02
    2.383119e+01    3.305069e+01    2.082644e-04    1.498789e+06    5.270360e-10    1.688538e-13    6.193875e-11    9.965305e-12    2.600000e-01    7.304965e-01    4.997611e-02
    2.381363e+01    3.311620e+01    2.642871e-04    1.894042e+06    5.288495e-10    1.770759e-13    6.635210e-11    1.058765e-11    2.700000e-01    7.304965e-01    4.997701e-02
    2.379141e+01    3.317781e+01    3.353133e-04    2.391454e+06    5.309200e-10    1.855477e-13    7.106170e-11    1.124473e-11    2.800000e-01    7.304965e-01    4.997814e-02
    2.376456e+01    3.323501e+01    4.253230e-04    3.016684e+06    5.332600e-10    1.942561e-13    7.608295e-11    1.193786e-11    2.900000e-01    7.304965e-01    4.997958e-02
    2.373292e+01    3.328716e+01    5.393370e-04    3.801564e+06    5.358820e-10    2.031845e-13    8.143135e-11    1.266828e-11    3.000000e-01    7.304965e-01    4.998140e-02
    2.369630e+01    3.333365e+01    6.836805e-04    4.785501e+06    5.387985e-10    2.123131e-13    8.712240e-11    1.343721e-11    3.100000e-01    7.304965e-01    4.998371e-02
    2.365437e+01    3.337375e+01    8.663150e-04    6.017144e+06    5.420220e-10    2.216182e-13    9.317140e-11    1.424579e-11    3.200000e-01    7.304965e-01    4.998663e-02
    2.360678e+01    3.340668e+01    1.097247e-03    7.556393e+06    5.455650e-10    2.310720e-13    9.959340e-11    1.509507e-11    3.300000e-01    7.304965e-01    4.999032e-02
    2.355306e+01    3.343162e+01    1.389034e-03    9.476790e+06    5.494385e-10    2.406426e-13    1.064029e-10    1.598599e-11    3.400000e-01    7.304965e-01    4.999498e-02
    2.349272e+01    3.344767e+01    1.757413e-03    1.186829e+07    5.536550e-10    2.502931e-13    1.136139e-10    1.691938e-11    3.500000e-01    7.304965e-01    5.000086e-02
    2.342517e+01    3.345386e+01    2.222069e-03    1.484058e+07    5.582255e-10    2.599823e-13    1.212393e-10    1.789589e-11    3.600000e-01    7.304965e-01    5.000828e-02
    2.334981e+01    3.344919e+01    2.807574e-03    1.852693e+07    5.631590e-10    2.696640e-13    1.292909e-10    1.891604e-11    3.700000e-01    7.304965e-01    5.001763e-02
    2.326596e+01    3.343263e+01    3.544535e-03    2.308855e+07    5.684650e-10    2.792870e-13    1.377793e-10    1.998014e-11    3.800000e-01    7.304965e-01    5.002939e-02
    2.317293e+01    3.340312e+01    4.470988e-03    2.871958e+07    5.741515e-10    2.887950e-13    1.467134e-10    2.108829e-11    3.900000e-01    7.304965e-01    5.004417e-02
    2.307000e+01    3.335958e+01    5.634070e-03    3.565279e+07    5.802250e-10    2.981271e-13    1.561004e-10    2.224037e-11    4.000000e-01    7.304965e-01    5.006272e-02
    2.295638e+01    3.330096e+01    7.092045e-03    4.416587e+07    5.866895e-10    3.072172e-13    1.659451e-10    2.343600e-11    4.100000e-01    7.304965e-01    5.008596e-02
    2.283140e+01    3.322629e+01    8.916665e-03    5.458826e+07    5.935480e-10    3.159949e-13    1.762503e-10    2.467455e-11    4.200000e-01    7.304965e-01    5.011502e-02
    2.269429e+01    3.313469e+01    1.119605e-02    6.730849e+07    6.008025e-10    3.243856e-13    1.870160e-10    2.595509e-11    4.300000e-01    7.304965e-01    5.015129e-02
    2.254440e+01    3.302544e+01    1.403797e-02    8.278236e+07    6.084505e-10    3.323106e-13    1.982398e-10    2.727640e-11    4.400000e-01    7.304965e-01    5.019647e-02
    2.238114e+01    3.289800e+01    1.757372e-02    1.015409e+08    6.164885e-10    3.396882e-13    2.099157e-10    2.863697e-11    4.500000e-01    7.304965e-01    5.025259e-02
    2.220400e+01    3.275214e+01    2.196262e-02    1.241988e+08    6.249110e-10    3.464341e-13    2.220351e-10    3.003496e-11    4.600000e-01    7.304965e-01    5.032214e-02
    2.201261e+01    3.258796e+01    2.739710e-02    1.514629e+08    6.337090e-10    3.524617e-13    2.345862e-10    3.146824e-11    4.700000e-01    7.304965e-01    5.040808e-02
    2.180676e+01    3.240595e+01    3.410848e-02    1.841407e+08    6.428710e-10    3.576836e-13    2.475536e-10    3.293440e-11    4.800000e-01    7.304965e-01    5.051393e-02
    2.158646e+01    3.220715e+01    4.237354e-02    2.231484e+08    6.523830e-10    3.620120e-13    2.609186e-10    3.443068e-11    4.900000e-01    7.304965e-01    5.064388e-02
    2.135191e+01    3.199309e+01    5.252180e-02    2.695186e+08    6.622285e-10    3.653598e-13    2.746597e-10    3.595411e-11    5.000000e-01    7.304965e-01    5.080281e-02
    2.110359e+01    3.176592e+01    6.494345e-02    3.244080e+08    6.723885e-10    3.676413e-13    2.887516e-10    3.750141e-11    5.100000e-01    7.304965e-01    5.099643e-02
    2.084221e+01    3.152844e+01    8.009840e-02    3.891064e+08    6.828405e-10    3.687734e-13    3.031665e-10    3.906911e-11    5.200000e-01    7.304965e-01    5.123130e-02
    2.056872e+01    3.128410e+01    9.852600e-02    4.650436e+08    6.935610e-10    3.686763e-13    3.178735e-10    4.065352e-11    5.300000e-01    7.304965e-01    5.151494e-02
    2.028439e+01    3.103695e+01    1.208554e-01    5.537994e+08    7.045235e-10    3.672746e-13    3.328392e-10    4.225077e-11    5.400000e-01    7.304965e-01    5.185580e-02
    1.999063e+01    3.079162e+01    1.478173e-01    6.571141e+08    7.157000e-10    3.644976e-13    3.480282e-10    4.385691e-11    5.500000e-01    7.304965e-01    5.226337e-02
    1.968905e+01    3.055318e+01    1.802565e-01    7.768999e+08    7.270610e-10    3.602806e-13    3.634028e-10    4.546786e-11    5.600000e-01    7.304965e-01    5.274809e-02
    1.938133e+01    3.032703e+01    2.191458e-01    9.152555e+08    7.385750e-10    3.545650e-13    3.789242e-10    4.707952e-11    5.700000e-01    7.304965e-01    5.332133e-02
    1.906918e+01    3.011866e+01    2.656003e-01    1.074479e+09    7.502100e-10    3.472990e-13    3.945526e-10    4.868778e-11    5.800000e-01    7.304965e-01    5.399534e-02
    1.875416e+01    2.993349e+01    3.208941e-01    1.257078e+09    7.619340e-10    3.384378e-13    4.102471e-10    5.028855e-11    5.900000e-01    7.304965e-01    5.478305e-02
    1.843772e+01    2.977665e+01    3.864765e-01    1.465785e+09    7.737135e-10    3.279436e-13    4.259671e-10    5.187790e-11    6.000000e-01    7.304965e-01    5.569796e-02
    1.812097e+01    2.965264e+01    4.639907e-01    1.703553e+09    7.855160e-10    3.157858e-13    4.416720e-10    5.345195e-11    6.100000e-01    7.304965e-01    5.675386e-02
    1.780468e+01    2.956522e+01    5.552910e-01    1.973552e+09    7.973085e-10    3.019407e-13    4.573221e-10    5.500700e-11    6.200000e-01    7.304965e-01    5.796462e-02
    1.748925e+01    2.951709e+01    6.624605e-01    2.279138e+09    8.090600e-10    2.863910e-13    4.728787e-10    5.653960e-11    6.300000e-01    7.304965e-01    5.934390e-02
    1.717459e+01    2.950975e+01    7.878280e-01    2.623811e+09    8.207395e-10    2.691259e-13    4.883044e-10    5.804640e-11    6.400000e-01    7.304965e-01    6.090477e-02
    1.686024e+01    2.954341e+01    9.339790e-01    3.011145e+09    8.323180e-10    2.501398e-13    5.035640e-10    5.952450e-11    6.500000e-01    7.304965e-01    6.265947e-02
    1.654538e+01    2.961684e+01    1.103765e+00    3.444694e+09    8.437680e-10    2.294321e-13    5.186240e-10    6.097105e-11    6.600000e-01    7.304965e-01    6.461902e-02
    1.622891e+01    2.972741e+01    1.300307e+00    3.927875e+09    8.550625e-10    2.070062e-13    5.334530e-10    6.238370e-11    6.700000e-01    7.304965e-01    6.679289e-02
    1.590957e+01    2.987115e+01    1.526987e+00    4.463814e+09    8.661790e-10    1.828687e-13    5.480235e-10    6.376025e-11    6.800000e-01    7.304965e-01    6.918877e-02
    1.558607e+01    3.004281e+01    1.787429e+00    5.055211e+09    8.770945e-10    1.570285e-13    5.623095e-10    6.509885e-11    6.900000e-01    7.304965e-01    7.181225e-02
    1.525720e+01    3.023609e+01    2.085482e+00    5.704153e+09    8.877900e-10    1.294960e-13    5.762875e-10    6.639795e-11    7.000000e-01    7.304965e-01    7.466665e-02
    1.492196e+01    3.044386e+01    2.425169e+00    6.411978e+09    8.982475e-10    1.002819e-13    5.899380e-10    6.765630e-11    7.100000e-01    7.304965e-01    7.775286e-02
    1.457963e+01    3.065838e+01    2.810649e+00    7.179112e+09    9.084530e-10    6.939655e-14    6.032435e-10    6.887295e-11    7.200000e-01    7.304965e-01    8.106927e-02
    1.422987e+01    3.087164e+01    3.246148e+00    8.004994e+09    9.183925e-10    3.684912e-14    6.161895e-10    7.004725e-11    7.300000e-01    7.304965e-01    8.461178e-02
    1.387273e+01    3.107561e+01    3.735897e+00    8.887980e+09    9.280555e-10    2.646427e-15    6.287650e-10    7.117875e-11    7.400000e-01    7.304965e-01    8.837385e-02
    1.350866e+01    3.126251e+01    4.284057e+00    9.825322e+09    9.374340e-10    3.320762e-14    6.409605e-10    7.226730e-11    7.500000e-01    7.304965e-01    9.234669e-02
    1.313851e+01    3.142519e+01    4.894641e+00    1.081327e+10    9.465210e-10    7.071280e-14    6.527695e-10    7.331300e-11    7.600000e-01    7.304965e-01    9.651941e-02
    1.276343e+01    3.155713e+01    5.571445e+00    1.184704e+10    9.553125e-10    1.098734e-13    6.641880e-10    7.431615e-11    7.700000e-01    7.304965e-01    1.008794e-01
    1.238487e+01    3.165287e+01    6.317970e+00    1.292112e+10    9.638050e-10    1.506984e-13    6.752140e-10    7.527715e-11    7.800000e-01    7.304965e-01    1.054124e-01
    1.200443e+01    3.170798e+01    7.137375e+00    1.402927e+10    9.719980e-10    1.932029e-13    6.858480e-10    7.619670e-11    7.900000e-01    7.304965e-01    1.101033e-01
    1.162384e+01    3.171915e+01    8.032420e+00    1.516485e+10    9.798920e-10    2.374076e-13    6.960920e-10    7.707565e-11    8.000000e-01    7.304965e-01    1.149358e-01
    1.124486e+01    3.168426e+01    9.005430e+00    1.632099e+10    9.874885e-10    2.833399e-13    7.059495e-10    7.791480e-11    8.100000e-01    7.304965e-01    1.198936e-01
    1.086922e+01    3.160228e+01    1.005827e+01    1.749080e+10    9.947910e-10    3.310342e-13    7.154255e-10    7.871535e-11    8.200000e-01    7.304965e-01    1.249599e-01
    1.049853e+01    3.147319e+01    1.119233e+01    1.866751e+10    1.001804e-09    3.805320e-13    7.245275e-10    7.947830e-11    8.300000e-01    7.304965e-01    1.301184e-01
    1.013430e+01    3.129795e+01    1.240856e+01    1.984476e+10    1.008532e-09    4.318825e-13    7.332620e-10    8.020495e-11    8.400000e-01    7.304965e-01    1.353529e-01
    9.777851e+00    3.107828e+01    1.370746e+01    2.101661e+10    1.014981e-09    4.851427e-13    7.416380e-10    8.089650e-11    8.500000e-01    7.304965e-01    1.406481e-01
    9.430314e+00    3.081653e+01    1.508911e+01    2.217771e+10    1.021159e-09    5.403780e-13    7.496650e-10    8.155430e-11    8.600000e-01    7.304965e-01    1.459895e-01
    9.092635e+00    3.051558e+01    1.655320e+01    2.332337e+10    1.027071e-09    5.976615e-13    7.573530e-10    8.217970e-11    8.700000e-01    7.304965e-01    1.513635e-01
    8.765551e+00    3.017863e+01    1.809909e+01    2.444951e+10    1.032728e-09    6.570750e-13    7.647125e-10    8.277400e-11    8.800000e-01    7.304965e-01    1.567577e-01
    8.449627e+00    2.980914e+01    1.972581e+01    2.555281e+10    1.038135e-09    7.187100e-13    7.717550e-10    8.333870e-11    8.900000e-01    7.304965e-01    1.621605e-01
    8.145240e+00    2.941063e+01    2.143216e+01    2.663052e+10    1.043303e-09    7.826665e-13    7.784905e-10    8.387505e-11    9.000000e-01    7.304965e-01    1.675617e-01
    7.852613e+00    2.898671e+01    2.321670e+01    2.768055e+10    1.048239e-09    8.490525e-13    7.849315e-10    8.438440e-11    9.100000e-01    7.304965e-01    1.729521e-01
    7.571831e+00    2.854082e+01    2.507783e+01    2.870136e+10    1.052952e-09    9.179870e-13    7.910890e-10    8.486815e-11    9.200000e-01    7.304965e-01    1.783236e-01
    7.302858e+00    2.807634e+01    2.701380e+01    2.969190e+10    1.057452e-09    9.895985e-13    7.969745e-10    8.532760e-11    9.300000e-01    7.304965e-01    1.836690e-01
    7.045554e+00    2.759643e+01    2.902276e+01    3.065158e+10    1.061747e-09    1.064025e-12    8.025995e-10    8.576400e-11    9.400000e-01    7.304965e-01    1.889823e-01
    6.799699e+00    2.710403e+01    3.110278e+01    3.158019e+10    1.065846e-09    1.141415e-12    8.079755e-10    8.617865e-11    9.500000e-01    7.304965e-01    1.942582e-01
    6.565002e+00    2.660189e+01    3.325189e+01    3.247777e+10    1.069757e-09    1.221927e-12    8.131130e-10    8.657270e-11    9.600000e-01    7.304965e-01    1.994923e-01
    6.341127e+00    2.609247e+01    3.546808e+01    3.334467e+10    1.073490e-09    1.305731e-12    8.180230e-10    8.694735e-11    9.700000e-01    7.304965e-01    2.046809e-01
    6.127692e+00    2.557804e+01    3.774937e+01    3.418145e+10    1.077051e-09    1.393010e-12    8.227165e-10    8.730375e-11    9.800000e-01    7.304965e-01    2.098210e-01
    5.924294e+00    2.506056e+01    4.009375e+01    3.498876e+10    1.080451e-09    1.483957e-12    8.272035e-10    8.764300e-11    9.900000e-01    7.304965e-01    2.149102e-01
    5.730508e+00    2.454183e+01    4.249926e+01    3.576740e+10    1.083696e-09    1.578777e-12    8.314935e-10    8.796610e-11    1.000000e+00    7.304965e-01    2.199466e-01
    5.545905e+00    2.402341e+01    4.496396e+01    3.651826e+10    1.086794e-09    1.677690e-12    8.355970e-10    8.827405e-11    1.010000e+00    7.304965e-01    2.249288e-01
    5.370052e+00    2.350665e+01    4.748595e+01    3.724224e+10    1.089753e-09    1.780927e-12    8.395225e-10    8.856790e-11    1.020000e+00    7.304965e-01    2.298558e-01
    5.202514e+00    2.299273e+01    5.006340e+01    3.794031e+10    1.092579e-09    1.888734e-12    8.432795e-10    8.884845e-11    1.030000e+00    7.304965e-01    2.347269e-01
    5.042877e+00    2.248267e+01    5.269445e+01    3.861338e+10    1.095281e-09    2.001375e-12    8.468760e-10    8.911665e-11    1.040000e+00    7.304965e-01    2.395419e-01
    4.890719e+00    2.197733e+01    5.537745e+01    3.926244e+10    1.097864e-09    2.119125e-12    8.503205e-10    8.937330e-11    1.050000e+00    7.304965e-01    2.443007e-01
    4.745646e+00    2.147745e+01    5.811065e+01    3.988837e+10    1.100335e-09    2.242278e-12    8.536205e-10    8.961920e-11    1.060000e+00    7.304965e-01    2.490034e-01
    4.607278e+00    2.098365e+01    6.089235e+01    4.049205e+10    1.102701e-09    2.371146e-12    8.567840e-10    8.985510e-11    1.070000e+00    7.304965e-01    2.536504e-01
    4.475242e+00    2.049645e+01    6.372105e+01    4.107437e+10    1.104965e-09    2.506057e-12    8.598175e-10    9.008170e-11    1.080000e+00    7.304965e-01    2.582421e-01
    4.349188e+00    2.001624e+01    6.659520e+01    4.163610e+10    1.107136e-09    2.647361e-12    8.627280e-10    9.029975e-11    1.090000e+00    7.304965e-01    2.627792e-01
    4.228784e+00    1.954338e+01    6.951330e+01    4.217804e+10    1.109218e-09    2.795427e-12    8.655220e-10    9.050985e-11    1.100000e+00    7.304965e-01    2.672626e-01
    4.113717e+00    1.907815e+01    7.247385e+01    4.270090e+10    1.111217e-09    2.950647e-12    8.682055e-10    9.071260e-11    1.110000e+00    7.304965e-01    2.716929e-01
    4.003683e+00    1.862076e+01    7.547555e+01    4.320536e+10    1.113137e-09    3.113435e-12    8.707835e-10    9.090865e-11    1.120000e+00    7.304965e-01    2.760711e-01
    3.898403e+00    1.817136e+01    7.851700e+01    4.369210e+10    1.114982e-09    3.284230e-12    8.732625e-10    9.109850e-11    1.130000e+00    7.304965e-01    2.803983e-01
    3.797609e+00    1.773009e+01    8.159695e+01    4.416168e+10    1.116757e-09    3.463496e-12    8.756470e-10    9.128265e-11    1.140000e+00    7.304965e-01    2.846754e-01
    3.701054e+00    1.729701e+01    8.471405e+01    4.461466e+10    1.118468e-09    3.651728e-12    8.779420e-10    9.146170e-11    1.150000e+00    7.304965e-01    2.889035e-01
    3.608499e+00    1.687217e+01    8.786715e+01    4.505161e+10    1.120116e-09    3.849444e-12    8.801515e-10    9.163605e-11    1.160000e+00    7.304965e-01    2.930836e-01
    3.519725e+00    1.645560e+01    9.105505e+01    4.547297e+10    1.121708e-09    4.057198e-12    8.822805e-10    9.180615e-11    1.170000e+00    7.304965e-01    2.972169e-01
    3.434526e+00    1.604728e+01    9.427655e+01    4.587924e+10    1.123245e-09    4.275575e-12    8.843330e-10    9.197250e-11    1.180000e+00    7.304965e-01    3.013045e-01
    3.352705e+00    1.564720e+01    9.753060e+01    4.627081e+10    1.124733e-09    4.505195e-12    8.863115e-10    9.213545e-11    1.190000e+00    7.304965e-01    3.053474e-01
    3.274080e+00    1.525531e+01    1.008161e+02    4.664809e+10    1.126174e-09    4.746714e-12    8.882210e-10    9.229540e-11    1.200000e+00    7.304965e-01    3.093468e-01
    3.198482e+00    1.487155e+01    1.041319e+02    4.701148e+10    1.127571e-09    5.000825e-12    8.900640e-10    9.245280e-11    1.210000e+00    7.304965e-01    3.133039e-01
    3.125749e+00    1.449586e+01    1.074770e+02    4.736131e+10    1.128927e-09    5.268270e-12    8.918440e-10    9.260795e-11    1.220000e+00    7.304965e-01    3.172196e-01
    3.055728e+00    1.412815e+01    1.108505e+02    4.769790e+10    1.130246e-09    5.549830e-12    8.935630e-10    9.276125e-11    1.230000e+00    7.304965e-01    3.210952e-01
    2.988281e+00    1.376834e+01    1.142513e+02    4.802155e+10    1.131531e-09    5.846325e-12    8.952240e-10    9.291295e-11    1.240000e+00    7.304965e-01    3.249316e-01
    2.923276e+00    1.341634e+01    1.176784e+02    4.833257e+10    1.132783e-09    6.158630e-12    8.968300e-10    9.306350e-11    1.250000e+00    7.304965e-01    3.287299e-01
    2.860586e+00    1.307204e+01    1.211311e+02    4.863123e+10    1.134006e-09    6.487680e-12    8.983825e-10    9.321310e-11    1.260000e+00    7.304965e-01    3.324912e-01
    2.800095e+00    1.273534e+01    1.246082e+02    4.891775e+10    1.135202e-09    6.834450e-12    8.998840e-10    9.336215e-11    1.270000e+00    7.304965e-01    3.362166e-01
    2.741697e+00    1.240612e+01    1.281090e+02    4.919240e+10    1.136374e-09    7.199985e-12    9.013360e-10    9.351085e-11    1.280000e+00    7.304965e-01    3.399069e-01
    2.685285e+00    1.208429e+01    1.316327e+02    4.945538e+10    1.137524e-09    7.585375e-12    9.027405e-10    9.365960e-11    1.290000e+00    7.304965e-01    3.435633e-01
    2.630763e+00    1.176970e+01    1.351782e+02    4.970691e+10    1.138654e-09    7.991785e-12    9.040990e-10    9.380860e-11    1.300000e+00    7.304965e-01    3.471866e-01
    2.578043e+00    1.146227e+01    1.387448e+02    4.994721e+10    1.139766e-09    8.420450e-12    9.054130e-10    9.395815e-11    1.310000e+00    7.304965e-01    3.507779e-01
