# sky130 nfet_01v8 gm/ID Processed Lookup Table
# Corner: fs
# Temperature: 85C
# W = 2.0 um
# L = 1.5 um (1500 nm)
# Columns: gm/id [1/V]  gm/gds [V/V]  id/W [A/m]  ft [Hz]  Cgg/W [F/m]  Cgd/W [F/m]  Cgs/W [F/m]  Cdb/W [F/m]  vgs [V]  vth [V]  vdsat [V]
# vdsat = BSIM4 saturation voltage (|VDS|_sat, positive); use for headroom / saturation / cascode-bias calculations
#           gm/id          gm/gds            id/W              ft           Cgg/W           Cgd/W           Cgs/W           Cdb/W             vgs             vth           vdsat
    2.218985e+01    1.390839e+02    6.500690e-05    6.524302e+04    3.518844e-09    4.210626e-13    1.112816e-09    1.675311e-10    1.900000e-01    5.401004e-01    4.587717e-02
    2.218329e+01    1.389212e+02    8.115535e-05    8.037727e+04    3.564757e-09    4.503840e-13    1.188606e-09    1.767977e-10    2.000000e-01    5.401004e-01    4.588112e-02
    2.216960e+01    1.387423e+02    1.013050e-04    9.890691e+04    3.613948e-09    4.817706e-13    1.268288e-09    1.864301e-10    2.100000e-01    5.401004e-01    4.588605e-02
    2.214934e+01    1.385460e+02    1.264359e-04    1.215645e+05    3.666439e-09    5.153600e-13    1.351887e-09    1.964244e-10    2.200000e-01    5.401004e-01    4.589219e-02
    2.212292e+01    1.383312e+02    1.577642e-04    1.492337e+05    3.722238e-09    5.512970e-13    1.439405e-09    2.067739e-10    2.300000e-01    5.401004e-01    4.589984e-02
    2.209057e+01    1.380969e+02    1.967973e-04    1.829789e+05    3.781333e-09    5.897355e-13    1.530824e-09    2.174698e-10    2.400000e-01    5.401004e-01    4.590937e-02
    2.205240e+01    1.378420e+02    2.454010e-04    2.240800e+05    3.843698e-09    6.308380e-13    1.626103e-09    2.285011e-10    2.500000e-01    5.401004e-01    4.592124e-02
    2.200846e+01    1.375660e+02    3.058831e-04    2.740741e+05    3.909284e-09    6.747740e-13    1.725172e-09    2.398542e-10    2.600000e-01    5.401004e-01    4.593599e-02
    2.195872e+01    1.372682e+02    3.810931e-04    3.348039e+05    3.978026e-09    7.217250e-13    1.827944e-09    2.515132e-10    2.700000e-01    5.401004e-01    4.595433e-02
    2.190311e+01    1.369486e+02    4.745456e-04    4.084757e+05    4.049838e-09    7.718805e-13    1.934297e-09    2.634600e-10    2.800000e-01    5.401004e-01    4.597709e-02
    2.184153e+01    1.366078e+02    5.905685e-04    4.977258e+05    4.124615e-09    8.254400e-13    2.044092e-09    2.756741e-10    2.900000e-01    5.401004e-01    4.600533e-02
    2.177385e+01    1.362467e+02    7.344840e-04    6.057004e+05    4.202230e-09    8.826145e-13    2.157161e-09    2.881329e-10    3.000000e-01    5.401004e-01    4.604030e-02
    2.170003e+01    1.358672e+02    9.128235e-04    7.361491e+05    4.282541e-09    9.436260e-13    2.273313e-09    3.008119e-10    3.100000e-01    5.401004e-01    4.608357e-02
    2.161999e+01    1.354722e+02    1.133594e-03    8.935327e+05    4.365384e-09    1.008707e-12    2.392334e-09    3.136848e-10    3.200000e-01    5.401004e-01    4.613704e-02
    2.153375e+01    1.350660e+02    1.406588e-03    1.083153e+06    4.450582e-09    1.078104e-12    2.513990e-09    3.267236e-10    3.300000e-01    5.401004e-01    4.620299e-02
    2.144140e+01    1.346542e+02    1.743766e-03    1.311303e+06    4.537938e-09    1.152074e-12    2.638026e-09    3.398991e-10    3.400000e-01    5.401004e-01    4.628421e-02
    2.134315e+01    1.342442e+02    2.159712e-03    1.585448e+06    4.627243e-09    1.230889e-12    2.764172e-09    3.531811e-10    3.500000e-01    5.401004e-01    4.638404e-02
    2.123930e+01    1.338453e+02    2.672172e-03    1.914438e+06    4.718276e-09    1.314835e-12    2.892141e-09    3.665383e-10    3.600000e-01    5.401004e-01    4.650648e-02
    2.113032e+01    1.334693e+02    3.302711e-03    2.308761e+06    4.810806e-09    1.404213e-12    3.021635e-09    3.799393e-10    3.700000e-01    5.401004e-01    4.665633e-02
    2.101683e+01    1.331303e+02    4.077496e-03    2.780852e+06    4.904594e-09    1.499340e-12    3.152350e-09    3.933523e-10    3.800000e-01    5.401004e-01    4.683924e-02
    2.089960e+01    1.328452e+02    5.028230e-03    3.345460e+06    4.999395e-09    1.600548e-12    3.283971e-09    4.067457e-10    3.900000e-01    5.401004e-01    4.706192e-02
    2.077949e+01    1.326334e+02    6.193285e-03    4.020086e+06    5.094960e-09    1.708188e-12    3.416184e-09    4.200881e-10    4.000000e-01    5.401004e-01    4.733219e-02
    2.065752e+01    1.325168e+02    7.619050e-03    4.825526e+06    5.191040e-09    1.822631e-12    3.548675e-09    4.333491e-10    4.100000e-01    5.401004e-01    4.765915e-02
    2.053471e+01    1.325201e+02    9.361570e-03    5.786506e+06    5.287385e-09    1.944264e-12    3.681130e-09    4.464992e-10    4.200000e-01    5.401004e-01    4.805330e-02
    2.041205e+01    1.326695e+02    1.148850e-02    6.932416e+06    5.383755e-09    2.073497e-12    3.813243e-09    4.595100e-10    4.300000e-01    5.401004e-01    4.852665e-02
    2.029037e+01    1.329920e+02    1.408144e-02    8.298195e+06    5.479910e-09    2.210766e-12    3.944719e-09    4.723547e-10    4.400000e-01    5.401004e-01    4.909275e-02
    2.017022e+01    1.335149e+02    1.723874e-02    9.925287e+06    5.575620e-09    2.356524e-12    4.075268e-09    4.850081e-10    4.500000e-01    5.401004e-01    4.976679e-02
    2.005169e+01    1.342634e+02    2.107879e-02    1.186268e+07    5.670665e-09    2.511255e-12    4.204620e-09    4.974468e-10    4.600000e-01    5.401004e-01    5.056557e-02
    1.993426e+01    1.352594e+02    2.574387e-02    1.416797e+07    5.764830e-09    2.675466e-12    4.332515e-09    5.096495e-10    4.700000e-01    5.401004e-01    5.150740e-02
    1.981665e+01    1.365192e+02    3.140452e-02    1.690827e+07    5.857920e-09    2.849696e-12    4.458714e-09    5.215965e-10    4.800000e-01    5.401004e-01    5.261195e-02
    1.969673e+01    1.380511e+02    3.826447e-02    2.016096e+07    5.949750e-09    3.034512e-12    4.582993e-09    5.332710e-10    4.900000e-01    5.401004e-01    5.390003e-02
    1.957149e+01    1.398532e+02    4.656591e-02    2.401398e+07    6.040155e-09    3.230515e-12    4.705148e-09    5.446580e-10    5.000000e-01    5.401004e-01    5.539326e-02
    1.943707e+01    1.419114e+02    5.659505e-02    2.856546e+07    6.128980e-09    3.438343e-12    4.824996e-09    5.557445e-10    5.100000e-01    5.401004e-01    5.711356e-02
    1.928894e+01    1.441976e+02    6.868735e-02    3.392253e+07    6.216085e-09    3.658667e-12    4.942375e-09    5.665195e-10    5.200000e-01    5.401004e-01    5.908273e-02
    1.912213e+01    1.466686e+02    8.323250e-02    4.019908e+07    6.301345e-09    3.892203e-12    5.057140e-09    5.769750e-10    5.300000e-01    5.401004e-01    6.132178e-02
    1.893164e+01    1.492666e+02    1.006781e-01    4.751229e+07    6.384655e-09    4.139707e-12    5.169170e-09    5.871045e-10    5.400000e-01    5.401004e-01    6.385032e-02
    1.871274e+01    1.519198e+02    1.215318e-01    5.597791e+07    6.465925e-09    4.401981e-12    5.278365e-09    5.969030e-10    5.500000e-01    5.401004e-01    6.668589e-02
    1.846147e+01    1.545452e+02    1.463609e-01    6.570469e+07    6.545080e-09    4.679877e-12    5.384635e-09    6.063680e-10    5.600000e-01    5.401004e-01    6.984329e-02
    1.817490e+01    1.570517e+02    1.757895e-01    7.678777e+07    6.622060e-09    4.974300e-12    5.487920e-09    6.154990e-10    5.700000e-01    5.401004e-01    7.333404e-02
    1.785143e+01    1.593444e+02    2.104925e-01    8.930215e+07    6.696810e-09    5.286210e-12    5.588170e-09    6.242965e-10    5.800000e-01    5.401004e-01    7.716583e-02
    1.749092e+01    1.613301e+02    2.511857e-01    1.032961e+08    6.769300e-09    5.616630e-12    5.685360e-09    6.327630e-10    5.900000e-01    5.401004e-01    8.134223e-02
    1.709466e+01    1.629215e+02    2.986132e-01    1.187857e+08    6.839515e-09    5.966645e-12    5.779470e-09    6.409010e-10    6.000000e-01    5.401004e-01    8.586242e-02
    1.666528e+01    1.640425e+02    3.535324e-01    1.357516e+08    6.907435e-09    6.337415e-12    5.870505e-09    6.487170e-10    6.100000e-01    5.401004e-01    9.072124e-02
    1.620655e+01    1.646319e+02    4.166960e-01    1.541367e+08    6.973070e-09    6.730165e-12    5.958475e-09    6.562155e-10    6.200000e-01    5.401004e-01    9.590926e-02
    1.572310e+01    1.646464e+02    4.888343e-01    1.738471e+08    7.036430e-09    7.146205e-12    6.043400e-09    6.634040e-10    6.300000e-01    5.401004e-01    1.014131e-01
    1.522008e+01    1.640620e+02    5.706370e-01    1.947555e+08    7.097530e-09    7.586940e-12    6.125325e-09    6.702900e-10    6.400000e-01    5.401004e-01    1.072161e-01
    1.470293e+01    1.628742e+02    6.627370e-01    2.167058e+08    7.156400e-09    8.053855e-12    6.204285e-09    6.768825e-10    6.500000e-01    5.401004e-01    1.132984e-01
    1.417711e+01    1.610970e+02    7.656945e-01    2.395206e+08    7.213075e-09    8.548540e-12    6.280340e-09    6.831890e-10    6.600000e-01    5.401004e-01    1.196380e-01
    1.364783e+01    1.587608e+02    8.799885e-01    2.630086e+08    7.267595e-09    9.072690e-12    6.353545e-09    6.892205e-10    6.700000e-01    5.401004e-01    1.262114e-01
    1.311991e+01    1.559096e+02    1.006007e+00    2.869725e+08    7.320010e-09    9.628110e-12    6.423975e-09    6.949860e-10    6.800000e-01    5.401004e-01    1.329939e-01
    1.259767e+01    1.525973e+02    1.144046e+00    3.112178e+08    7.370370e-09    1.021674e-11    6.491690e-09    7.004955e-10    6.900000e-01    5.401004e-01    1.399606e-01
    1.208487e+01    1.488850e+02    1.294305e+00    3.355594e+08    7.418725e-09    1.084064e-11    6.556775e-09    7.057595e-10    7.000000e-01    5.401004e-01    1.470870e-01
    1.158463e+01    1.448372e+02    1.456899e+00    3.598269e+08    7.465140e-09    1.150202e-11    6.619305e-09    7.107880e-10    7.100000e-01    5.401004e-01    1.543490e-01
    1.109949e+01    1.405191e+02    1.631854e+00    3.838697e+08    7.509670e-09    1.220324e-11    6.679365e-09    7.155920e-10    7.200000e-01    5.401004e-01    1.617237e-01
    1.063142e+01    1.359945e+02    1.819127e+00    4.075592e+08    7.552380e-09    1.294683e-11    6.737030e-09    7.201815e-10    7.300000e-01    5.401004e-01    1.691898e-01
    1.018185e+01    1.313232e+02    2.018606e+00    4.307903e+08    7.593335e-09    1.373550e-11    6.792385e-09    7.245665e-10    7.400000e-01    5.401004e-01    1.767276e-01
    9.751741e+00    1.265602e+02    2.230128e+00    4.534817e+08    7.632595e-09    1.457212e-11    6.845525e-09    7.287580e-10    7.500000e-01    5.401004e-01    1.843190e-01
    9.341644e+00    1.217547e+02    2.453484e+00    4.755741e+08    7.670230e-09    1.545979e-11    6.896525e-09    7.327655e-10    7.600000e-01    5.401004e-01    1.919479e-01
    8.951762e+00    1.169497e+02    2.688435e+00    4.970292e+08    7.706305e-09    1.640186e-11    6.945465e-09    7.365990e-10    7.700000e-01    5.401004e-01    1.996000e-01
    8.582005e+00    1.121818e+02    2.934718e+00    5.178272e+08    7.740880e-09    1.740185e-11    6.992440e-09    7.402680e-10    7.800000e-01    5.401004e-01    2.072629e-01
    8.232053e+00    1.074813e+02    3.192055e+00    5.379638e+08    7.774020e-09    1.846359e-11    7.037525e-09    7.437820e-10    7.900000e-01    5.401004e-01    2.149257e-01
    7.901394e+00    1.028728e+02    3.460166e+00    5.574471e+08    7.805795e-09    1.959116e-11    7.080795e-09    7.471505e-10    8.000000e-01    5.401004e-01    2.225794e-01
    7.589383e+00    9.837587e+01    3.738765e+00    5.762960e+08    7.836265e-09    2.078896e-11    7.122340e-09    7.503820e-10    8.100000e-01    5.401004e-01    2.302163e-01
    7.295270e+00    9.400501e+01    4.027572e+00    5.945373e+08    7.865490e-09    2.206168e-11    7.162225e-09    7.534855e-10    8.200000e-01    5.401004e-01    2.378301e-01
    7.018236e+00    8.977083e+01    4.326321e+00    6.122031e+08    7.893530e-09    2.341436e-11    7.200525e-09    7.564690e-10    8.300000e-01    5.401004e-01    2.454156e-01
    6.757416e+00    8.568038e+01    4.634752e+00    6.293285e+08    7.920450e-09    2.485244e-11    7.237315e-09    7.593415e-10    8.400000e-01    5.401004e-01    2.529690e-01
    6.511930e+00    8.173781e+01    4.952621e+00    6.459516e+08    7.946300e-09    2.638171e-11    7.272665e-09    7.621095e-10    8.500000e-01    5.401004e-01    2.604870e-01
    6.280888e+00    7.794483e+01    5.279700e+00    6.621098e+08    7.971140e-09    2.800844e-11    7.306640e-09    7.647815e-10    8.600000e-01    5.401004e-01    2.679674e-01
    6.063417e+00    7.430121e+01    5.615775e+00    6.778404e+08    7.995025e-09    2.973931e-11    7.339300e-09    7.673650e-10    8.700000e-01    5.401004e-01    2.754087e-01
    5.858652e+00    7.080519e+01    5.960655e+00    6.931792e+08    8.018005e-09    3.158155e-11    7.370710e-09    7.698670e-10    8.800000e-01    5.401004e-01    2.828098e-01
    5.665781e+00    6.745386e+01    6.314145e+00    7.081591e+08    8.040140e-09    3.354288e-11    7.400930e-09    7.722935e-10    8.900000e-01    5.401004e-01    2.901702e-01
    5.483997e+00    6.424338e+01    6.676090e+00    7.228119e+08    8.061470e-09    3.563160e-11    7.430010e-09    7.746525e-10    9.000000e-01    5.401004e-01    2.974899e-01
    5.312552e+00    6.116936e+01    7.046330e+00    7.371651e+08    8.082050e-09    3.785666e-11    7.458005e-09    7.769495e-10    9.100000e-01    5.401004e-01    3.047690e-01
    5.150729e+00    5.822692e+01    7.424725e+00    7.512439e+08    8.101925e-09    4.022763e-11    7.484965e-09    7.791910e-10    9.200000e-01    5.401004e-01    3.120082e-01
    4.997852e+00    5.541106e+01    7.811145e+00    7.650696e+08    8.121145e-09    4.275482e-11    7.510940e-09    7.813835e-10    9.300000e-01    5.401004e-01    3.192080e-01
    4.853292e+00    5.271657e+01    8.205465e+00    7.786615e+08    8.139750e-09    4.544928e-11    7.535975e-09    7.835320e-10    9.400000e-01    5.401004e-01    3.263694e-01
    4.716452e+00    5.013824e+01    8.607580e+00    7.920354e+08    8.157780e-09    4.832289e-11    7.560110e-09    7.856430e-10    9.500000e-01    5.401004e-01    3.334934e-01
    4.586783e+00    4.767098e+01    9.017375e+00    8.052029e+08    8.175290e-09    5.138840e-11    7.583385e-09    7.877220e-10    9.600000e-01    5.401004e-01    3.405810e-01
    4.463766e+00    4.530986e+01    9.434760e+00    8.181748e+08    8.192310e-09    5.465950e-11    7.605840e-09    7.897745e-10    9.700000e-01    5.401004e-01    3.476334e-01
    4.346925e+00    4.305011e+01    9.859635e+00    8.309578e+08    8.208885e-09    5.815080e-11    7.627510e-09    7.918050e-10    9.800000e-01    5.401004e-01    3.546518e-01
    4.235814e+00    4.088715e+01    1.029191e+01    8.435570e+08    8.225050e-09    6.187815e-11    7.648430e-09    7.938200e-10    9.900000e-01    5.401004e-01    3.616373e-01
    4.130018e+00    3.881668e+01    1.073150e+01    8.559739e+08    8.240850e-09    6.585830e-11    7.668625e-09    7.958240e-10    1.000000e+00    5.401004e-01    3.685912e-01
    4.029159e+00    3.683461e+01    1.117831e+01    8.682087e+08    8.256320e-09    7.010940e-11    7.688125e-09    7.978220e-10    1.010000e+00    5.401004e-01    3.755145e-01
    3.932881e+00    3.493712e+01    1.163226e+01    8.802597e+08    8.271495e-09    7.465070e-11    7.706955e-09    7.998190e-10    1.020000e+00    5.401004e-01    3.824085e-01
    3.840856e+00    3.312063e+01    1.209324e+01    8.921221e+08    8.286415e-09    7.950290e-11    7.725145e-09    8.018205e-10    1.030000e+00    5.401004e-01    3.892743e-01
    3.752781e+00    3.138181e+01    1.256119e+01    9.037905e+08    8.301115e-09    8.468805e-11    7.742710e-09    8.038310e-10    1.040000e+00    5.401004e-01    3.961130e-01
    3.668375e+00    2.971754e+01    1.303600e+01    9.152571e+08    8.315630e-09    9.022975e-11    7.759670e-09    8.058560e-10    1.050000e+00    5.401004e-01    4.029255e-01
    3.587378e+00    2.812494e+01    1.351758e+01    9.265131e+08    8.329990e-09    9.615300e-11    7.776045e-09    8.078995e-10    1.060000e+00    5.401004e-01    4.097130e-01
    3.509546e+00    2.660131e+01    1.400582e+01    9.375466e+08    8.344240e-09    1.024846e-10    7.791850e-09    8.099670e-10    1.070000e+00    5.401004e-01    4.164763e-01
    3.434659e+00    2.514419e+01    1.450063e+01    9.483459e+08    8.358410e-09    1.092529e-10    7.807095e-09    8.120630e-10    1.080000e+00    5.401004e-01    4.232163e-01
    3.362510e+00    2.375124e+01    1.500188e+01    9.588971e+08    8.372540e-09    1.164878e-10    7.821800e-09    8.141930e-10    1.090000e+00    5.401004e-01    4.299341e-01
    3.292900e+00    2.242031e+01    1.550946e+01    9.691847e+08    8.386655e-09    1.242215e-10    7.835965e-09    8.163610e-10    1.100000e+00    5.401004e-01    4.366302e-01
    3.225655e+00    2.114942e+01    1.602325e+01    9.791928e+08    8.400800e-09    1.324872e-10    7.849600e-09    8.185725e-10    1.110000e+00    5.401004e-01    4.433057e-01
    3.160612e+00    1.993670e+01    1.654312e+01    9.889048e+08    8.415005e-09    1.413206e-10    7.862710e-09    8.208325e-10    1.120000e+00    5.401004e-01    4.499611e-01
    3.097607e+00    1.878035e+01    1.706894e+01    9.983006e+08    8.429300e-09    1.507588e-10    7.875300e-09    8.231450e-10    1.130000e+00    5.401004e-01    4.565972e-01
    3.036501e+00    1.767874e+01    1.760054e+01    1.007361e+09    8.443730e-09    1.608407e-10    7.887375e-09    8.255160e-10    1.140000e+00    5.401004e-01    4.632146e-01
    2.977165e+00    1.663032e+01    1.813776e+01    1.016066e+09    8.458330e-09    1.716068e-10    7.898925e-09    8.279495e-10    1.150000e+00    5.401004e-01    4.698140e-01
    2.919463e+00    1.563354e+01    1.868045e+01    1.024394e+09    8.473125e-09    1.830996e-10    7.909960e-09    8.304505e-10    1.160000e+00    5.401004e-01    4.763960e-01
    2.863290e+00    1.468701e+01    1.922844e+01    1.032324e+09    8.488160e-09    1.953625e-10    7.920470e-09    8.330245e-10    1.170000e+00    5.401004e-01    4.829612e-01
    2.808532e+00    1.378929e+01    1.978152e+01    1.039833e+09    8.503460e-09    2.084407e-10    7.930445e-09    8.356750e-10    1.180000e+00    5.401004e-01    4.895100e-01
    2.755093e+00    1.293903e+01    2.033951e+01    1.046899e+09    8.519070e-09    2.223801e-10    7.939890e-09    8.384070e-10    1.190000e+00    5.401004e-01    4.960430e-01
    2.702881e+00    1.213485e+01    2.090220e+01    1.053500e+09    8.535020e-09    2.372277e-10    7.948785e-09    8.412250e-10    1.200000e+00    5.401004e-01    5.025607e-01
    2.651812e+00    1.137541e+01    2.146936e+01    1.059614e+09    8.551345e-09    2.530309e-10    7.957125e-09    8.441335e-10    1.210000e+00    5.401004e-01    5.090635e-01
    2.601810e+00    1.065936e+01    2.204078e+01    1.065220e+09    8.568075e-09    2.698372e-10    7.964905e-09    8.471360e-10    1.220000e+00    5.401004e-01    5.155518e-01
    2.552809e+00    9.985316e+00    2.261620e+01    1.070301e+09    8.585240e-09    2.876940e-10    7.972100e-09    8.502370e-10    1.230000e+00    5.401004e-01    5.220262e-01
    2.504750e+00    9.351895e+00    2.319539e+01    1.074837e+09    8.602875e-09    3.066478e-10    7.978710e-09    8.534400e-10    1.240000e+00    5.401004e-01    5.284869e-01
    2.457576e+00    8.757653e+00    2.377809e+01    1.078812e+09    8.621010e-09    3.267439e-10    7.984715e-09    8.567475e-10    1.250000e+00    5.401004e-01    5.349343e-01
    2.411247e+00    8.201155e+00    2.436403e+01    1.082216e+09    8.639670e-09    3.480257e-10    7.990100e-09    8.601635e-10    1.260000e+00    5.401004e-01    5.413689e-01
    2.365724e+00    7.680887e+00    2.495295e+01    1.085037e+09    8.658875e-09    3.705343e-10    7.994855e-09    8.636900e-10    1.270000e+00    5.401004e-01    5.477909e-01
