# sky130 pfet_01v8 gm/ID Processed Lookup Table
# Corner: fs
# Temperature: 75C
# W = 2.0 um
# L = 3.42 um (3420 nm)
# Columns: gm/id [1/V]  gm/gds [V/V]  id/W [A/m]  ft [Hz]  Cgg/W [F/m]  Cgd/W [F/m]  Cgs/W [F/m]  Vov [V]
#         gm/id          gm/gds            id/W              ft           Cgg/W           Cgd/W           Cgs/W             Vov
    1.623971e+00    2.595705e+00    6.527660e+00    7.228507e+07    2.334035e-08    3.254390e-09    2.051070e-08   -2.712941e+00
    1.639775e+00    2.656959e+00    6.474615e+00    7.254825e+07    2.329117e-08    3.183308e-09    2.052258e-08   -2.707941e+00
    1.655815e+00    2.720786e+00    6.421495e+00    7.281055e+07    2.324202e-08    3.112571e-09    2.053408e-08   -2.702941e+00
    1.672099e+00    2.787335e+00    6.368290e+00    7.307174e+07    2.319292e-08    3.042221e-09    2.054519e-08   -2.697941e+00
    1.688628e+00    2.856769e+00    6.315010e+00    7.333164e+07    2.314391e-08    2.972299e-09    2.055590e-08   -2.692941e+00
    1.705405e+00    2.929258e+00    6.261655e+00    7.359005e+07    2.309499e-08    2.902845e-09    2.056620e-08   -2.687941e+00
    1.722435e+00    3.004987e+00    6.208225e+00    7.384669e+07    2.304620e-08    2.833903e-09    2.057607e-08   -2.682941e+00
    1.739721e+00    3.084152e+00    6.154720e+00    7.410132e+07    2.299758e-08    2.765511e-09    2.058552e-08   -2.677941e+00
    1.757264e+00    3.166967e+00    6.101150e+00    7.435370e+07    2.294913e-08    2.697711e-09    2.067631e-08   -2.672941e+00
    1.775069e+00    3.253657e+00    6.047510e+00    7.460355e+07    2.290089e-08    2.630543e-09    2.068260e-08   -2.667941e+00
    1.793138e+00    3.344466e+00    5.993800e+00    7.485056e+07    2.285288e-08    2.564045e-09    2.068846e-08   -2.662941e+00
    1.811473e+00    3.439656e+00    5.940030e+00    7.509448e+07    2.280514e-08    2.498257e-09    2.069390e-08   -2.657941e+00
    1.830077e+00    3.539509e+00    5.886200e+00    7.533498e+07    2.275768e-08    2.433214e-09    2.069891e-08   -2.652941e+00
    1.848952e+00    3.644323e+00    5.832310e+00    7.557172e+07    2.271052e-08    2.368954e-09    2.070346e-08   -2.647941e+00
    1.868099e+00    3.754421e+00    5.778365e+00    7.580437e+07    2.266369e-08    2.305511e-09    2.070757e-08   -2.642941e+00
    1.887520e+00    3.870153e+00    5.724365e+00    7.603260e+07    2.261722e-08    2.242921e-09    2.071120e-08   -2.637941e+00
    1.907215e+00    3.991888e+00    5.670320e+00    7.625604e+07    2.257112e-08    2.181213e-09    2.071438e-08   -2.632941e+00
    1.927187e+00    4.120026e+00    5.616225e+00    7.647431e+07    2.252542e-08    2.120419e-09    2.071708e-08   -2.627941e+00
    1.947435e+00    4.254996e+00    5.562085e+00    7.668700e+07    2.248014e-08    2.060568e-09    2.071930e-08   -2.622941e+00
    1.967960e+00    4.397255e+00    5.507905e+00    7.689374e+07    2.243530e-08    2.001687e-09    2.072103e-08   -2.617941e+00
    1.988759e+00    4.547296e+00    5.453690e+00    7.709411e+07    2.239090e-08    1.943801e-09    2.072229e-08   -2.612941e+00
    2.009832e+00    4.705647e+00    5.399445e+00    7.728768e+07    2.234698e-08    1.886934e-09    2.072304e-08   -2.607941e+00
    2.031177e+00    4.872868e+00    5.345175e+00    7.747398e+07    2.230354e-08    1.831105e-09    2.072330e-08   -2.602941e+00
    2.052794e+00    5.049568e+00    5.290880e+00    7.765263e+07    2.226062e-08    1.776337e-09    2.072306e-08   -2.597941e+00
    2.074680e+00    5.236389e+00    5.236565e+00    7.782317e+07    2.221820e-08    1.722643e-09    2.072231e-08   -2.592941e+00
    2.096830e+00    5.434019e+00    5.182240e+00    7.798512e+07    2.217630e-08    1.670040e-09    2.072108e-08   -2.587941e+00
    2.119243e+00    5.643193e+00    5.127905e+00    7.813801e+07    2.213494e-08    1.618541e-09    2.071933e-08   -2.582941e+00
    2.141914e+00    5.864691e+00    5.073565e+00    7.828138e+07    2.209413e-08    1.568156e-09    2.071709e-08   -2.577941e+00
    2.164837e+00    6.099347e+00    5.019235e+00    7.841480e+07    2.205387e-08    1.518894e-09    2.071434e-08   -2.572941e+00
    2.188010e+00    6.348044e+00    4.964911e+00    7.853779e+07    2.201417e-08    1.470760e-09    2.071109e-08   -2.567941e+00
    2.211426e+00    6.611717e+00    4.910603e+00    7.864987e+07    2.197503e-08    1.423760e-09    2.070734e-08   -2.562941e+00
    2.235080e+00    6.891360e+00    4.856319e+00    7.875062e+07    2.193645e-08    1.377895e-09    2.070310e-08   -2.557941e+00
    2.258966e+00    7.188019e+00    4.802063e+00    7.883960e+07    2.189844e-08    1.333166e-09    2.069836e-08   -2.552941e+00
    2.283077e+00    7.502796e+00    4.747844e+00    7.891638e+07    2.186100e-08    1.289571e-09    2.069313e-08   -2.547941e+00
    2.307408e+00    7.836856e+00    4.693669e+00    7.898055e+07    2.182413e-08    1.247106e-09    2.068740e-08   -2.542941e+00
    2.331953e+00    8.191415e+00    4.639545e+00    7.903175e+07    2.178782e-08    1.205766e-09    2.068119e-08   -2.537941e+00
    2.356706e+00    8.567755e+00    4.585479e+00    7.906963e+07    2.175206e-08    1.165543e-09    2.067449e-08   -2.532941e+00
    2.381658e+00    8.967198e+00    4.531481e+00    7.909380e+07    2.171687e-08    1.126430e-09    2.066732e-08   -2.527941e+00
    2.406808e+00    9.391144e+00    4.477557e+00    7.910406e+07    2.168223e-08    1.088416e-09    2.065966e-08   -2.522941e+00
    2.432147e+00    9.841031e+00    4.423718e+00    7.910009e+07    2.164813e-08    1.051488e-09    2.065153e-08   -2.517941e+00
    2.457672e+00    1.031836e+01    4.369969e+00    7.908170e+07    2.161456e-08    1.015635e-09    2.064294e-08   -2.512941e+00
    2.483376e+00    1.082466e+01    4.316321e+00    7.904866e+07    2.158152e-08    9.808410e-10    2.063388e-08   -2.507941e+00
    2.509260e+00    1.136152e+01    4.262782e+00    7.900087e+07    2.154899e-08    9.470905e-10    2.062436e-08   -2.502941e+00
    2.535316e+00    1.193059e+01    4.209359e+00    7.893819e+07    2.151697e-08    9.143685e-10    2.061438e-08   -2.497941e+00
    2.561545e+00    1.253353e+01    4.156064e+00    7.886062e+07    2.148543e-08    8.826560e-10    2.060395e-08   -2.492941e+00
    2.587946e+00    1.317204e+01    4.102903e+00    7.876814e+07    2.145438e-08    8.519350e-10    2.059307e-08   -2.487941e+00
    2.614517e+00    1.384786e+01    4.049886e+00    7.866073e+07    2.142380e-08    8.221875e-10    2.058174e-08   -2.482941e+00
    2.641260e+00    1.456274e+01    3.997021e+00    7.853851e+07    2.139365e-08    7.933925e-10    2.056997e-08   -2.477941e+00
    2.668176e+00    1.531846e+01    3.944317e+00    7.840154e+07    2.136396e-08    7.655300e-10    2.055777e-08   -2.472941e+00
    2.695269e+00    1.611683e+01    3.891783e+00    7.825005e+07    2.133468e-08    7.385800e-10    2.054512e-08   -2.467941e+00
    2.722543e+00    1.695964e+01    3.839425e+00    7.808418e+07    2.130581e-08    7.125205e-10    2.053205e-08   -2.462941e+00
    2.750001e+00    1.784870e+01    3.787255e+00    7.790413e+07    2.127733e-08    6.873305e-10    2.051855e-08   -2.457941e+00
    2.777652e+00    1.878580e+01    3.735279e+00    7.771022e+07    2.124922e-08    6.629885e-10    2.050462e-08   -2.452941e+00
    2.805501e+00    1.977276e+01    3.683505e+00    7.750264e+07    2.122146e-08    6.394725e-10    2.049026e-08   -2.447941e+00
    2.833557e+00    2.081136e+01    3.631941e+00    7.728175e+07    2.119405e-08    6.167605e-10    2.047549e-08   -2.442941e+00
    2.861830e+00    2.190340e+01    3.580594e+00    7.704788e+07    2.116695e-08    5.948305e-10    2.046030e-08   -2.437941e+00
    2.890327e+00    2.305061e+01    3.529473e+00    7.680132e+07    2.114016e-08    5.736610e-10    2.044468e-08   -2.432941e+00
    2.919061e+00    2.425475e+01    3.478583e+00    7.654242e+07    2.111365e-08    5.532300e-10    2.042864e-08   -2.427941e+00
    2.948042e+00    2.551753e+01    3.427933e+00    7.627156e+07    2.108742e-08    5.335165e-10    2.041219e-08   -2.422941e+00
    2.977284e+00    2.684065e+01    3.377528e+00    7.598913e+07    2.106143e-08    5.144980e-10    2.039532e-08   -2.417941e+00
    3.006797e+00    2.822577e+01    3.327377e+00    7.569546e+07    2.103567e-08    4.961542e-10    2.037803e-08   -2.412941e+00
    3.036597e+00    2.967455e+01    3.277483e+00    7.539093e+07    2.101013e-08    4.784637e-10    2.036032e-08   -2.407941e+00
    3.066698e+00    3.118859e+01    3.227855e+00    7.507596e+07    2.098477e-08    4.614060e-10    2.034220e-08   -2.402941e+00
    3.097114e+00    3.276948e+01    3.178497e+00    7.475085e+07    2.095960e-08    4.449609e-10    2.032364e-08   -2.397941e+00
    3.127858e+00    3.441876e+01    3.129415e+00    7.441599e+07    2.093457e-08    4.291085e-10    2.030468e-08   -2.392941e+00
    3.158948e+00    3.613798e+01    3.080614e+00    7.407170e+07    2.090969e-08    4.138291e-10    2.028528e-08   -2.387941e+00
    3.190398e+00    3.792864e+01    3.032102e+00    7.371838e+07    2.088493e-08    3.991036e-10    2.026545e-08   -2.382941e+00
    3.222226e+00    3.979223e+01    2.983880e+00    7.335634e+07    2.086026e-08    3.849134e-10    2.024521e-08   -2.377941e+00
    3.254448e+00    4.173023e+01    2.935955e+00    7.298594e+07    2.083569e-08    3.712401e-10    2.022452e-08   -2.372941e+00
    3.287080e+00    4.374406e+01    2.888333e+00    7.260744e+07    2.081117e-08    3.580660e-10    2.020339e-08   -2.367941e+00
    3.320139e+00    4.583514e+01    2.841015e+00    7.222115e+07    2.078670e-08    3.453735e-10    2.018182e-08   -2.362941e+00
    3.353645e+00    4.800494e+01    2.794008e+00    7.182741e+07    2.076226e-08    3.331459e-10    2.015980e-08   -2.357941e+00
    3.387612e+00    5.025482e+01    2.747316e+00    7.142647e+07    2.073783e-08    3.213665e-10    2.013734e-08   -2.352941e+00
    3.422061e+00    5.258619e+01    2.700941e+00    7.101857e+07    2.071339e-08    3.100194e-10    2.011441e-08   -2.347941e+00
    3.457009e+00    5.500047e+01    2.654889e+00    7.060398e+07    2.068892e-08    2.990891e-10    2.009101e-08   -2.342941e+00
    3.492477e+00    5.749908e+01    2.609163e+00    7.018300e+07    2.066440e-08    2.885605e-10    2.006715e-08   -2.337941e+00
    3.528482e+00    6.008341e+01    2.563766e+00    6.975580e+07    2.063983e-08    2.784188e-10    2.004281e-08   -2.332941e+00
    3.565043e+00    6.275489e+01    2.518702e+00    6.932258e+07    2.061517e-08    2.686501e-10    2.001798e-08   -2.327941e+00
    3.602182e+00    6.551496e+01    2.473974e+00    6.888362e+07    2.059041e-08    2.592404e-10    1.999266e-08   -2.322941e+00
    3.639919e+00    6.836505e+01    2.429585e+00    6.843906e+07    2.056554e-08    2.501767e-10    1.996684e-08   -2.317941e+00
    3.678272e+00    7.130668e+01    2.385540e+00    6.798909e+07    2.054052e-08    2.414460e-10    1.994052e-08   -2.312941e+00
    3.717265e+00    7.434130e+01    2.341840e+00    6.753390e+07    2.051536e-08    2.330359e-10    1.991366e-08   -2.307941e+00
    3.756917e+00    7.747047e+01    2.298488e+00    6.707361e+07    2.049002e-08    2.249344e-10    1.988628e-08   -2.302941e+00
    3.797251e+00    8.069578e+01    2.255489e+00    6.660841e+07    2.046449e-08    2.171300e-10    1.985836e-08   -2.297941e+00
    3.838289e+00    8.401878e+01    2.212843e+00    6.613844e+07    2.043875e-08    2.096115e-10    1.982989e-08   -2.292941e+00
    3.880055e+00    8.744117e+01    2.170555e+00    6.566383e+07    2.041279e-08    2.023680e-10    1.980085e-08   -2.287941e+00
    3.922570e+00    9.096458e+01    2.128625e+00    6.518466e+07    2.038659e-08    1.953894e-10    1.977125e-08   -2.282941e+00
    3.965859e+00    9.459076e+01    2.087059e+00    6.470109e+07    2.036013e-08    1.886653e-10    1.974106e-08   -2.277941e+00
    4.009950e+00    9.832163e+01    2.045856e+00    6.421324e+07    2.033338e-08    1.821865e-10    1.971027e-08   -2.272941e+00
    4.054859e+00    1.021588e+02    2.005022e+00    6.372112e+07    2.030634e-08    1.759433e-10    1.967887e-08   -2.267941e+00
    4.100621e+00    1.061043e+02    1.964556e+00    6.322491e+07    2.027898e-08    1.699269e-10    1.964685e-08   -2.262941e+00
    4.147258e+00    1.101601e+02    1.924463e+00    6.272467e+07    2.025128e-08    1.641288e-10    1.961418e-08   -2.257941e+00
    4.194799e+00    1.143283e+02    1.884745e+00    6.222049e+07    2.022323e-08    1.585406e-10    1.958088e-08   -2.252941e+00
    4.243267e+00    1.186108e+02    1.845403e+00    6.171232e+07    2.019481e-08    1.531542e-10    1.954689e-08   -2.247941e+00
    4.292694e+00    1.230099e+02    1.806440e+00    6.120036e+07    2.016600e-08    1.479621e-10    1.951223e-08   -2.242941e+00
    4.343111e+00    1.275277e+02    1.767859e+00    6.068463e+07    2.013677e-08    1.429568e-10    1.947688e-08   -2.237941e+00
    4.394544e+00    1.321668e+02    1.729661e+00    6.016515e+07    2.010712e-08    1.381312e-10    1.944080e-08   -2.232941e+00
    4.447026e+00    1.369294e+02    1.691849e+00    5.964197e+07    2.007702e-08    1.334785e-10    1.940400e-08   -2.227941e+00
    4.500586e+00    1.418179e+02    1.654424e+00    5.911511e+07    2.004646e-08    1.289922e-10    1.936645e-08   -2.222941e+00
    4.555257e+00    1.468349e+02    1.617391e+00    5.858458e+07    2.001542e-08    1.246659e-10    1.932813e-08   -2.217941e+00
    4.611077e+00    1.519831e+02    1.580749e+00    5.805051e+07    1.998386e-08    1.204935e-10    1.928903e-08   -2.212941e+00
    4.668073e+00    1.572650e+02    1.544501e+00    5.751279e+07    1.995178e-08    1.164693e-10    1.924912e-08   -2.207941e+00
    4.726282e+00    1.626837e+02    1.508651e+00    5.697148e+07    1.991916e-08    1.125876e-10    1.920841e-08   -2.202941e+00
    4.785742e+00    1.682418e+02    1.473199e+00    5.642660e+07    1.988598e-08    1.088430e-10    1.916684e-08   -2.197941e+00
    4.846487e+00    1.739423e+02    1.438148e+00    5.587814e+07    1.985221e-08    1.052303e-10    1.912442e-08   -2.192941e+00
    4.908557e+00    1.797884e+02    1.403500e+00    5.532613e+07    1.981783e-08    1.017446e-10    1.908112e-08   -2.187941e+00
    4.971987e+00    1.857831e+02    1.369258e+00    5.477051e+07    1.978283e-08    9.838115e-11    1.903691e-08   -2.182941e+00
    5.036822e+00    1.919296e+02    1.335422e+00    5.421131e+07    1.974719e-08    9.513525e-11    1.899179e-08   -2.177941e+00
    5.103099e+00    1.982313e+02    1.301995e+00    5.364849e+07    1.971088e-08    9.200260e-11    1.894573e-08   -2.172941e+00
    5.170858e+00    2.046912e+02    1.268980e+00    5.308201e+07    1.967389e-08    8.897895e-11    1.889869e-08   -2.167941e+00
    5.240141e+00    2.113131e+02    1.236379e+00    5.251190e+07    1.963618e-08    8.606015e-11    1.885067e-08   -2.162941e+00
    5.310993e+00    2.181002e+02    1.204193e+00    5.193806e+07    1.959775e-08    8.324240e-11    1.880164e-08   -2.157941e+00
    5.383457e+00    2.250562e+02    1.172425e+00    5.136052e+07    1.955857e-08    8.052185e-11    1.875158e-08   -2.152941e+00
    5.457583e+00    2.321849e+02    1.141077e+00    5.077923e+07    1.951862e-08    7.789500e-11    1.870046e-08   -2.147941e+00
    5.533407e+00    2.394896e+02    1.110151e+00    5.019415e+07    1.947788e-08    7.535825e-11    1.864826e-08   -2.142941e+00
    5.610982e+00    2.469740e+02    1.079648e+00    4.960519e+07    1.943632e-08    7.290840e-11    1.859495e-08   -2.137941e+00
    5.690353e+00    2.546421e+02    1.049572e+00    4.901239e+07    1.939393e-08    7.054220e-11    1.854052e-08   -2.132941e+00
    5.771564e+00    2.624974e+02    1.019924e+00    4.841563e+07    1.935068e-08    6.825655e-11    1.848493e-08   -2.127941e+00
    5.854670e+00    2.705438e+02    9.907075e-01    4.781493e+07    1.930654e-08    6.604855e-11    1.842816e-08   -2.122941e+00
    5.939720e+00    2.787850e+02    9.619225e-01    4.721020e+07    1.926151e-08    6.391535e-11    1.837019e-08   -2.117941e+00
    6.026752e+00    2.872245e+02    9.335725e-01    4.660136e+07    1.921556e-08    6.185425e-11    1.831098e-08   -2.112941e+00
    6.115828e+00    2.958664e+02    9.056590e-01    4.598843e+07    1.916865e-08    5.986255e-11    1.825053e-08   -2.107941e+00
    6.206987e+00    3.047139e+02    8.781845e-01    4.537129e+07    1.912078e-08    5.793785e-11    1.818878e-08   -2.102941e+00
    6.300286e+00    3.137707e+02    8.511510e-01    4.474996e+07    1.907192e-08    5.607760e-11    1.812573e-08   -2.097941e+00
    6.395771e+00    3.230404e+02    8.245605e-01    4.412435e+07    1.902205e-08    5.427960e-11    1.806135e-08   -2.092941e+00
    6.493484e+00    3.325256e+02    7.984150e-01    4.349438e+07    1.897114e-08    5.254155e-11    1.799561e-08   -2.087941e+00
    6.593483e+00    3.422299e+02    7.727160e-01    4.286006e+07    1.891918e-08    5.086135e-11    1.792847e-08   -2.082941e+00
    6.695805e+00    3.521562e+02    7.474665e-01    4.222131e+07    1.886614e-08    4.923689e-11    1.785993e-08   -2.077941e+00
    6.800501e+00    3.623070e+02    7.226680e-01    4.157814e+07    1.881200e-08    4.766621e-11    1.778995e-08   -2.072941e+00
    6.907615e+00    3.726847e+02    6.983220e-01    4.093048e+07    1.875673e-08    4.614739e-11    1.771850e-08   -2.067941e+00
    7.017184e+00    3.832913e+02    6.744310e-01    4.027832e+07    1.870032e-08    4.467861e-11    1.764556e-08   -2.062941e+00
    7.129250e+00    3.941283e+02    6.509965e-01    3.962165e+07    1.864276e-08    4.325811e-11    1.757109e-08   -2.057941e+00
    7.243847e+00    4.051970e+02    6.280205e-01    3.896046e+07    1.858400e-08    4.188417e-11    1.749509e-08   -2.052941e+00
    7.361009e+00    4.164982e+02    6.055045e-01    3.829475e+07    1.852403e-08    4.055518e-11    1.741751e-08   -2.047941e+00
    7.480766e+00    4.280320e+02    5.834500e-01    3.762453e+07    1.846285e-08    3.926957e-11    1.733835e-08   -2.042941e+00
    7.603144e+00    4.397977e+02    5.618585e-01    3.694985e+07    1.840042e-08    3.802583e-11    1.725755e-08   -2.037941e+00
    7.728161e+00    4.517945e+02    5.407315e-01    3.627073e+07    1.833672e-08    3.682250e-11    1.717513e-08   -2.032941e+00
    7.855836e+00    4.640202e+02    5.200700e-01    3.558725e+07    1.827174e-08    3.565819e-11    1.709102e-08   -2.027941e+00
    7.986167e+00    4.764723e+02    4.998759e-01    3.489949e+07    1.820545e-08    3.453155e-11    1.700523e-08   -2.022941e+00
    8.119162e+00    4.891471e+02    4.801495e-01    3.420754e+07    1.813786e-08    3.344129e-11    1.691772e-08   -2.017941e+00
    8.254811e+00    5.020396e+02    4.608920e-01    3.351154e+07    1.806892e-08    3.238616e-11    1.682847e-08   -2.012941e+00
    8.393102e+00    5.151440e+02    4.421040e-01    3.281162e+07    1.799863e-08    3.136495e-11    1.673748e-08   -2.007941e+00
    8.534008e+00    5.284541e+02    4.237859e-01    3.210797e+07    1.792697e-08    3.037654e-11    1.664469e-08   -2.002941e+00
    8.677494e+00    5.419611e+02    4.059381e-01    3.140079e+07    1.785393e-08    2.941978e-11    1.655012e-08   -1.997941e+00
    8.823513e+00    5.556551e+02    3.885606e-01    3.069030e+07    1.777949e-08    2.849363e-11    1.645373e-08   -1.992941e+00
    8.972006e+00    5.695256e+02    3.716533e-01    2.997679e+07    1.770364e-08    2.759704e-11    1.635551e-08   -1.987941e+00
    9.122903e+00    5.835603e+02    3.552157e-01    2.926054e+07    1.762637e-08    2.672902e-11    1.625543e-08   -1.982941e+00
    9.276117e+00    5.977446e+02    3.392470e-01    2.854189e+07    1.754768e-08    2.588862e-11    1.615350e-08   -1.977941e+00
    9.431547e+00    6.120621e+02    3.237463e-01    2.782122e+07    1.746754e-08    2.507491e-11    1.604969e-08   -1.972941e+00
    9.589075e+00    6.264959e+02    3.087122e-01    2.709893e+07    1.738596e-08    2.428700e-11    1.594398e-08   -1.967941e+00
    9.748570e+00    6.410265e+02    2.941431e-01    2.637548e+07    1.730291e-08    2.352404e-11    1.583639e-08   -1.962941e+00
    9.909876e+00    6.556323e+02    2.800368e-01    2.565135e+07    1.721841e-08    2.278521e-11    1.572688e-08   -1.957941e+00
