# sky130 pfet_01v8 gm/ID Processed Lookup Table
# Corner: fs
# Temperature: 75C
# W = 2.0 um
# L = 1.26 um (1260 nm)
# Columns: gm/id [1/V]  gm/gds [V/V]  id/W [A/m]  ft [Hz]  Cgg/W [F/m]  Cgd/W [F/m]  Cgs/W [F/m]  Vov [V]
#         gm/id          gm/gds            id/W              ft           Cgg/W           Cgd/W           Cgs/W             Vov
    1.491008e+00    2.073020e+00    1.830793e+01    5.111173e+08    8.499995e-09    1.030848e-09    7.559860e-09   -2.689805e+00
    1.505779e+00    2.115633e+00    1.817128e+01    5.132802e+08    8.484225e-09    1.007320e-09    7.564200e-09   -2.684805e+00
    1.520767e+00    2.159773e+00    1.803431e+01    5.154362e+08    8.468515e-09    9.839820e-10    7.568395e-09   -2.679805e+00
    1.535977e+00    2.205518e+00    1.789701e+01    5.175843e+08    8.452870e-09    9.608470e-10    7.600905e-09   -2.674805e+00
    1.551412e+00    2.252954e+00    1.775941e+01    5.197237e+08    8.437295e-09    9.379275e-10    7.604055e-09   -2.669805e+00
    1.567076e+00    2.302167e+00    1.762149e+01    5.218530e+08    8.421800e-09    9.152350e-10    7.607060e-09   -2.664805e+00
    1.582974e+00    2.353251e+00    1.748327e+01    5.239709e+08    8.406390e-09    8.927815e-10    7.609920e-09   -2.659805e+00
    1.599110e+00    2.406308e+00    1.734474e+01    5.260766e+08    8.391070e-09    8.705775e-10    7.612630e-09   -2.654805e+00
    1.615487e+00    2.461444e+00    1.720591e+01    5.281681e+08    8.375855e-09    8.486345e-10    7.615195e-09   -2.649805e+00
    1.632110e+00    2.518772e+00    1.706678e+01    5.302445e+08    8.360745e-09    8.269625e-10    7.617600e-09   -2.644805e+00
    1.648982e+00    2.578417e+00    1.692737e+01    5.323047e+08    8.345745e-09    8.055725e-10    7.619850e-09   -2.639805e+00
    1.666108e+00    2.640506e+00    1.678766e+01    5.343465e+08    8.330870e-09    7.844735e-10    7.621945e-09   -2.634805e+00
    1.683491e+00    2.705177e+00    1.664766e+01    5.363687e+08    8.316120e-09    7.636750e-10    7.623880e-09   -2.629805e+00
    1.701135e+00    2.772579e+00    1.650740e+01    5.383700e+08    8.301500e-09    7.431855e-10    7.625650e-09   -2.624805e+00
    1.719043e+00    2.842869e+00    1.636686e+01    5.403484e+08    8.287020e-09    7.230135e-10    7.627255e-09   -2.619805e+00
    1.737221e+00    2.916217e+00    1.622604e+01    5.423025e+08    8.272680e-09    7.031665e-10    7.628690e-09   -2.614805e+00
    1.755670e+00    2.992800e+00    1.608498e+01    5.442304e+08    8.258490e-09    6.836515e-10    7.629965e-09   -2.609805e+00
    1.774395e+00    3.072813e+00    1.594365e+01    5.461304e+08    8.244450e-09    6.644750e-10    7.631070e-09   -2.604805e+00
    1.793398e+00    3.156460e+00    1.580208e+01    5.480008e+08    8.230565e-09    6.456430e-10    7.632000e-09   -2.599805e+00
    1.812682e+00    3.243960e+00    1.566026e+01    5.498390e+08    8.216845e-09    6.271610e-10    7.632765e-09   -2.594805e+00
    1.832251e+00    3.335547e+00    1.551821e+01    5.516437e+08    8.203285e-09    6.090330e-10    7.633360e-09   -2.589805e+00
    1.852106e+00    3.431472e+00    1.537593e+01    5.534127e+08    8.189890e-09    5.912630e-10    7.633780e-09   -2.584805e+00
    1.872249e+00    3.532000e+00    1.523343e+01    5.551432e+08    8.176670e-09    5.738550e-10    7.634030e-09   -2.579805e+00
    1.892684e+00    3.637418e+00    1.509072e+01    5.568340e+08    8.163615e-09    5.568115e-10    7.634110e-09   -2.574805e+00
    1.913411e+00    3.748027e+00    1.494781e+01    5.584818e+08    8.150740e-09    5.401345e-10    7.634015e-09   -2.569805e+00
    1.934432e+00    3.864152e+00    1.480471e+01    5.600849e+08    8.138035e-09    5.238255e-10    7.633755e-09   -2.564805e+00
    1.955746e+00    3.986136e+00    1.466143e+01    5.616406e+08    8.125505e-09    5.078860e-10    7.633320e-09   -2.559805e+00
    1.977355e+00    4.114350e+00    1.451798e+01    5.631461e+08    8.113155e-09    4.923156e-10    7.632715e-09   -2.554805e+00
    1.999259e+00    4.249180e+00    1.437436e+01    5.645988e+08    8.100985e-09    4.771144e-10    7.631945e-09   -2.549805e+00
    2.021457e+00    4.391042e+00    1.423060e+01    5.659963e+08    8.088990e-09    4.622816e-10    7.631005e-09   -2.544805e+00
    2.043949e+00    4.540375e+00    1.408670e+01    5.673358e+08    8.077170e-09    4.478160e-10    7.629895e-09   -2.539805e+00
    2.066733e+00    4.697649e+00    1.394267e+01    5.686144e+08    8.065525e-09    4.337155e-10    7.628620e-09   -2.534805e+00
    2.089805e+00    4.863347e+00    1.379855e+01    5.698286e+08    8.054060e-09    4.199779e-10    7.627185e-09   -2.529805e+00
    2.113164e+00    5.037993e+00    1.365432e+01    5.709763e+08    8.042765e-09    4.066003e-10    7.625580e-09   -2.524805e+00
    2.136807e+00    5.222139e+00    1.351002e+01    5.720538e+08    8.031645e-09    3.935796e-10    7.623820e-09   -2.519805e+00
    2.160732e+00    5.416354e+00    1.336564e+01    5.730586e+08    8.020690e-09    3.809121e-10    7.621895e-09   -2.514805e+00
    2.184931e+00    5.621240e+00    1.322123e+01    5.739873e+08    8.009905e-09    3.685937e-10    7.619810e-09   -2.509805e+00
    2.209404e+00    5.837433e+00    1.307677e+01    5.748370e+08    7.999285e-09    3.566200e-10    7.617565e-09   -2.504805e+00
    2.234143e+00    6.065588e+00    1.293231e+01    5.756043e+08    7.988830e-09    3.449862e-10    7.615170e-09   -2.499805e+00
    2.259143e+00    6.306390e+00    1.278786e+01    5.762868e+08    7.978530e-09    3.336873e-10    7.612615e-09   -2.494805e+00
    2.284400e+00    6.560546e+00    1.264342e+01    5.768814e+08    7.968385e-09    3.227180e-10    7.609910e-09   -2.489805e+00
    2.309907e+00    6.828788e+00    1.249903e+01    5.773851e+08    7.958395e-09    3.120727e-10    7.607050e-09   -2.484805e+00
    2.335658e+00    7.111866e+00    1.235471e+01    5.777953e+08    7.948550e-09    3.017455e-10    7.604045e-09   -2.479805e+00
    2.361647e+00    7.410549e+00    1.221048e+01    5.781094e+08    7.938850e-09    2.917305e-10    7.600885e-09   -2.474805e+00
    2.387868e+00    7.725623e+00    1.206635e+01    5.783251e+08    7.929290e-09    2.820215e-10    7.597580e-09   -2.469805e+00
    2.414315e+00    8.057878e+00    1.192235e+01    5.784400e+08    7.919865e-09    2.726122e-10    7.594130e-09   -2.464805e+00
    2.440983e+00    8.408119e+00    1.177852e+01    5.784523e+08    7.910570e-09    2.634961e-10    7.590535e-09   -2.459805e+00
    2.467866e+00    8.777149e+00    1.163485e+01    5.783600e+08    7.901405e-09    2.546666e-10    7.586795e-09   -2.454805e+00
    2.494960e+00    9.165771e+00    1.149139e+01    5.781617e+08    7.892360e-09    2.461172e-10    7.582915e-09   -2.449805e+00
    2.522260e+00    9.574778e+00    1.134816e+01    5.778565e+08    7.883430e-09    2.378411e-10    7.578890e-09   -2.444805e+00
    2.549763e+00    1.000495e+01    1.120517e+01    5.774429e+08    7.874615e-09    2.298318e-10    7.574730e-09   -2.439805e+00
    2.577466e+00    1.045706e+01    1.106246e+01    5.769207e+08    7.865905e-09    2.220824e-10    7.570425e-09   -2.434805e+00
    2.605369e+00    1.093185e+01    1.092005e+01    5.762892e+08    7.857300e-09    2.145861e-10    7.565985e-09   -2.429805e+00
    2.633469e+00    1.143004e+01    1.077796e+01    5.755488e+08    7.848790e-09    2.073362e-10    7.561410e-09   -2.424805e+00
    2.661767e+00    1.195230e+01    1.063622e+01    5.746995e+08    7.840370e-09    2.003262e-10    7.556695e-09   -2.419805e+00
    2.690264e+00    1.249929e+01    1.049486e+01    5.737423e+08    7.832035e-09    1.935493e-10    7.551845e-09   -2.414805e+00
    2.718962e+00    1.307161e+01    1.035389e+01    5.726773e+08    7.823785e-09    1.869988e-10    7.546855e-09   -2.409805e+00
    2.747867e+00    1.366983e+01    1.021335e+01    5.715061e+08    7.815610e-09    1.806684e-10    7.541735e-09   -2.404805e+00
    2.776980e+00    1.429448e+01    1.007325e+01    5.702301e+08    7.807505e-09    1.745515e-10    7.536475e-09   -2.399805e+00
    2.806309e+00    1.494601e+01    9.933620e+00    5.688508e+08    7.799465e-09    1.686417e-10    7.531085e-09   -2.394805e+00
    2.835860e+00    1.562487e+01    9.794490e+00    5.673702e+08    7.791485e-09    1.629329e-10    7.525555e-09   -2.389805e+00
    2.865643e+00    1.633141e+01    9.655870e+00    5.657901e+08    7.783560e-09    1.574188e-10    7.519890e-09   -2.384805e+00
    2.895664e+00    1.706599e+01    9.517790e+00    5.641130e+08    7.775680e-09    1.520934e-10    7.514090e-09   -2.379805e+00
    2.925933e+00    1.782886e+01    9.380275e+00    5.623408e+08    7.767845e-09    1.469508e-10    7.508155e-09   -2.374805e+00
    2.956463e+00    1.862028e+01    9.243340e+00    5.604760e+08    7.760050e-09    1.419851e-10    7.502085e-09   -2.369805e+00
    2.987266e+00    1.944044e+01    9.107005e+00    5.585211e+08    7.752290e-09    1.371906e-10    7.495875e-09   -2.364805e+00
    3.018352e+00    2.028949e+01    8.971295e+00    5.564789e+08    7.744555e-09    1.325619e-10    7.489525e-09   -2.359805e+00
    3.049736e+00    2.116756e+01    8.836225e+00    5.543518e+08    7.736840e-09    1.280934e-10    7.483040e-09   -2.354805e+00
    3.081430e+00    2.207475e+01    8.701820e+00    5.521427e+08    7.729140e-09    1.237798e-10    7.476410e-09   -2.349805e+00
    3.113452e+00    2.301112e+01    8.568090e+00    5.498537e+08    7.721455e-09    1.196159e-10    7.469640e-09   -2.344805e+00
    3.145814e+00    2.397673e+01    8.435060e+00    5.474877e+08    7.713775e-09    1.155968e-10    7.462730e-09   -2.339805e+00
    3.178533e+00    2.497159e+01    8.302745e+00    5.450473e+08    7.706095e-09    1.117175e-10    7.455675e-09   -2.334805e+00
    3.211625e+00    2.599573e+01    8.171160e+00    5.425349e+08    7.698410e-09    1.079733e-10    7.448470e-09   -2.329805e+00
    3.245107e+00    2.704917e+01    8.040325e+00    5.399531e+08    7.690715e-09    1.043595e-10    7.441120e-09   -2.324805e+00
    3.278996e+00    2.813191e+01    7.910250e+00    5.373041e+08    7.683005e-09    1.008716e-10    7.433620e-09   -2.319805e+00
    3.313309e+00    2.924399e+01    7.780955e+00    5.345903e+08    7.675275e-09    9.750525e-11    7.425970e-09   -2.314805e+00
    3.348068e+00    3.038540e+01    7.652445e+00    5.318142e+08    7.667515e-09    9.425625e-11    7.418165e-09   -2.309805e+00
    3.383283e+00    3.155620e+01    7.524750e+00    5.289777e+08    7.659725e-09    9.112045e-11    7.410200e-09   -2.304805e+00
    3.418979e+00    3.275642e+01    7.397870e+00    5.260830e+08    7.651895e-09    8.809390e-11    7.402080e-09   -2.299805e+00
    3.455176e+00    3.398612e+01    7.271820e+00    5.231316e+08    7.644030e-09    8.517270e-11    7.393795e-09   -2.294805e+00
    3.491888e+00    3.524546e+01    7.146620e+00    5.201264e+08    7.636110e-09    8.235320e-11    7.385350e-09   -2.289805e+00
    3.529138e+00    3.653448e+01    7.022275e+00    5.170684e+08    7.628140e-09    7.963170e-11    7.376735e-09   -2.284805e+00
    3.566949e+00    3.785335e+01    6.898795e+00    5.139597e+08    7.620110e-09    7.700480e-11    7.367950e-09   -2.279805e+00
    3.605336e+00    3.920223e+01    6.776200e+00    5.108018e+08    7.612015e-09    7.446905e-11    7.358990e-09   -2.274805e+00
    3.644322e+00    4.058137e+01    6.654495e+00    5.075963e+08    7.603850e-09    7.202125e-11    7.349855e-09   -2.269805e+00
    3.683931e+00    4.199100e+01    6.533690e+00    5.043447e+08    7.595610e-09    6.965825e-11    7.340540e-09   -2.264805e+00
    3.724179e+00    4.343132e+01    6.413800e+00    5.010481e+08    7.587290e-09    6.737695e-11    7.331040e-09   -2.259805e+00
    3.765092e+00    4.490274e+01    6.294835e+00    4.977084e+08    7.578880e-09    6.517450e-11    7.321350e-09   -2.254805e+00
    3.806692e+00    4.640558e+01    6.176800e+00    4.943263e+08    7.570380e-09    6.304795e-11    7.311465e-09   -2.249805e+00
    3.849004e+00    4.794020e+01    6.059705e+00    4.909030e+08    7.561785e-09    6.099470e-11    7.301390e-09   -2.244805e+00
    3.892048e+00    4.950706e+01    5.943565e+00    4.874398e+08    7.553085e-09    5.901200e-11    7.291110e-09   -2.239805e+00
    3.935854e+00    5.110662e+01    5.828380e+00    4.839376e+08    7.544275e-09    5.709740e-11    7.280625e-09   -2.234805e+00
    3.980437e+00    5.273938e+01    5.714170e+00    4.803974e+08    7.535350e-09    5.524840e-11    7.269930e-09   -2.229805e+00
    4.025832e+00    5.440591e+01    5.600935e+00    4.768201e+08    7.526305e-09    5.346260e-11    7.259020e-09   -2.224805e+00
    4.072058e+00    5.610679e+01    5.488690e+00    4.732062e+08    7.517135e-09    5.173775e-11    7.247890e-09   -2.219805e+00
    4.119148e+00    5.784266e+01    5.377435e+00    4.695569e+08    7.507830e-09    5.007170e-11    7.236535e-09   -2.214805e+00
    4.167124e+00    5.961420e+01    5.267185e+00    4.658729e+08    7.498385e-09    4.846229e-11    7.224945e-09   -2.209805e+00
    4.216013e+00    6.142212e+01    5.157950e+00    4.621546e+08    7.488795e-09    4.690748e-11    7.213125e-09   -2.204805e+00
    4.265849e+00    6.326718e+01    5.049730e+00    4.584026e+08    7.479055e-09    4.540531e-11    7.201060e-09   -2.199805e+00
    4.316658e+00    6.515019e+01    4.942538e+00    4.546173e+08    7.469160e-09    4.395390e-11    7.188750e-09   -2.194805e+00
    4.368471e+00    6.707201e+01    4.836380e+00    4.507996e+08    7.459100e-09    4.255141e-11    7.176185e-09   -2.189805e+00
    4.421317e+00    6.903350e+01    4.731264e+00    4.469497e+08    7.448870e-09    4.119608e-11    7.163360e-09   -2.184805e+00
    4.475231e+00    7.103563e+01    4.627198e+00    4.430680e+08    7.438465e-09    3.988625e-11    7.150270e-09   -2.179805e+00
    4.530243e+00    7.307934e+01    4.524189e+00    4.391549e+08    7.427875e-09    3.862027e-11    7.136905e-09   -2.174805e+00
    4.586388e+00    7.516568e+01    4.422243e+00    4.352109e+08    7.417095e-09    3.739658e-11    7.123260e-09   -2.169805e+00
    4.643699e+00    7.729568e+01    4.321370e+00    4.312359e+08    7.406120e-09    3.621367e-11    7.109330e-09   -2.164805e+00
    4.702212e+00    7.947048e+01    4.221575e+00    4.272301e+08    7.394945e-09    3.507008e-11    7.095110e-09   -2.159805e+00
    4.761963e+00    8.169118e+01    4.122865e+00    4.231942e+08    7.383555e-09    3.396443e-11    7.080585e-09   -2.154805e+00
    4.822990e+00    8.395902e+01    4.025247e+00    4.191281e+08    7.371950e-09    3.289536e-11    7.065750e-09   -2.149805e+00
    4.885329e+00    8.627518e+01    3.928730e+00    4.150314e+08    7.360125e-09    3.186157e-11    7.050605e-09   -2.144805e+00
    4.949021e+00    8.864095e+01    3.833319e+00    4.109049e+08    7.348065e-09    3.086182e-11    7.035135e-09   -2.139805e+00
    5.014106e+00    9.105767e+01    3.739021e+00    4.067486e+08    7.335765e-09    2.989491e-11    7.019330e-09   -2.134805e+00
    5.080624e+00    9.352665e+01    3.645843e+00    4.025619e+08    7.323225e-09    2.895969e-11    7.003190e-09   -2.129805e+00
    5.148619e+00    9.604934e+01    3.553791e+00    3.983454e+08    7.310430e-09    2.805503e-11    6.986700e-09   -2.124805e+00
    5.218130e+00    9.862709e+01    3.462874e+00    3.940987e+08    7.297375e-09    2.717987e-11    6.969855e-09   -2.119805e+00
    5.289206e+00    1.012614e+02    3.373096e+00    3.898221e+08    7.284050e-09    2.633318e-11    6.952645e-09   -2.114805e+00
    5.361889e+00    1.039538e+02    3.284466e+00    3.855151e+08    7.270450e-09    2.551396e-11    6.935065e-09   -2.109805e+00
    5.436225e+00    1.067059e+02    3.196989e+00    3.811775e+08    7.256570e-09    2.472125e-11    6.917100e-09   -2.104805e+00
    5.512260e+00    1.095190e+02    3.110673e+00    3.768095e+08    7.242395e-09    2.395415e-11    6.898745e-09   -2.099805e+00
    5.590046e+00    1.123950e+02    3.025523e+00    3.724108e+08    7.227925e-09    2.321175e-11    6.879990e-09   -2.094805e+00
    5.669625e+00    1.153354e+02    2.941546e+00    3.679811e+08    7.213145e-09    2.249321e-11    6.860820e-09   -2.089805e+00
    5.751052e+00    1.183418e+02    2.858750e+00    3.635204e+08    7.198050e-09    2.179771e-11    6.841240e-09   -2.084805e+00
    5.834374e+00    1.214159e+02    2.777141e+00    3.590281e+08    7.182635e-09    2.112445e-11    6.821225e-09   -2.079805e+00
    5.919641e+00    1.245595e+02    2.696724e+00    3.545040e+08    7.166890e-09    2.047267e-11    6.800775e-09   -2.074805e+00
    6.006907e+00    1.277741e+02    2.617506e+00    3.499482e+08    7.150805e-09    1.984164e-11    6.779875e-09   -2.069805e+00
    6.096221e+00    1.310616e+02    2.539494e+00    3.453604e+08    7.134370e-09    1.923065e-11    6.758515e-09   -2.064805e+00
    6.187634e+00    1.344235e+02    2.462695e+00    3.407399e+08    7.117580e-09    1.863902e-11    6.736690e-09   -2.059805e+00
    6.281200e+00    1.378616e+02    2.387114e+00    3.360869e+08    7.100425e-09    1.806610e-11    6.714385e-09   -2.054805e+00
    6.376971e+00    1.413777e+02    2.312758e+00    3.314009e+08    7.082900e-09    1.751125e-11    6.691595e-09   -2.049805e+00
    6.474995e+00    1.449732e+02    2.239632e+00    3.266815e+08    7.064995e-09    1.697386e-11    6.668305e-09   -2.044805e+00
    6.575328e+00    1.486498e+02    2.167743e+00    3.219287e+08    7.046700e-09    1.645336e-11    6.644510e-09   -2.039805e+00
    6.678016e+00    1.524093e+02    2.097098e+00    3.171424e+08    7.028005e-09    1.594917e-11    6.620190e-09   -2.034805e+00
    6.783113e+00    1.562529e+02    2.027701e+00    3.123220e+08    7.008910e-09    1.546075e-11    6.595345e-09   -2.029805e+00
    6.890662e+00    1.601822e+02    1.959559e+00    3.074679e+08    6.989395e-09    1.498756e-11    6.569960e-09   -2.024805e+00
    7.000710e+00    1.641986e+02    1.892677e+00    3.025795e+08    6.969460e-09    1.452912e-11    6.544020e-09   -2.019805e+00
    7.113304e+00    1.683032e+02    1.827060e+00    2.976569e+08    6.949095e-09    1.408493e-11    6.517525e-09   -2.014805e+00
    7.228481e+00    1.724972e+02    1.762714e+00    2.927000e+08    6.928295e-09    1.365452e-11    6.490460e-09   -2.009805e+00
    7.346288e+00    1.767817e+02    1.699644e+00    2.877092e+08    6.907045e-09    1.323744e-11    6.462815e-09   -2.004805e+00
    7.466753e+00    1.811574e+02    1.637854e+00    2.826844e+08    6.885340e-09    1.283325e-11    6.434575e-09   -1.999805e+00
    7.589911e+00    1.856250e+02    1.577351e+00    2.776259e+08    6.863175e-09    1.244153e-11    6.405735e-09   -1.994805e+00
    7.715785e+00    1.901850e+02    1.518136e+00    2.725340e+08    6.840540e-09    1.206188e-11    6.376290e-09   -1.989805e+00
    7.844401e+00    1.948374e+02    1.460216e+00    2.674094e+08    6.817425e-09    1.169389e-11    6.346220e-09   -1.984805e+00
    7.975773e+00    1.995824e+02    1.403593e+00    2.622525e+08    6.793825e-09    1.133720e-11    6.315520e-09   -1.979805e+00
    8.109911e+00    2.044196e+02    1.348270e+00    2.570640e+08    6.769735e-09    1.099144e-11    6.284185e-09   -1.974805e+00
    8.246811e+00    2.093481e+02    1.294250e+00    2.518448e+08    6.745145e-09    1.065626e-11    6.252200e-09   -1.969805e+00
    8.386474e+00    2.143672e+02    1.241536e+00    2.465962e+08    6.720050e-09    1.033132e-11    6.219555e-09   -1.964805e+00
    8.528879e+00    2.194752e+02    1.190130e+00    2.413191e+08    6.694445e-09    1.001630e-11    6.186250e-09   -1.959805e+00
    8.674002e+00    2.246703e+02    1.140032e+00    2.360152e+08    6.668320e-09    9.710860e-12    6.152265e-09   -1.954805e+00
    8.821807e+00    2.299503e+02    1.091243e+00    2.306863e+08    6.641670e-09    9.414720e-12    6.117605e-09   -1.949805e+00
    8.972239e+00    2.353122e+02    1.043764e+00    2.253341e+08    6.614490e-09    9.127570e-12    6.082250e-09   -1.944805e+00
    9.125240e+00    2.407527e+02    9.975935e-01    2.199606e+08    6.586780e-09    8.849140e-12    6.046205e-09   -1.939805e+00
    9.280725e+00    2.462677e+02    9.527305e-01    2.145685e+08    6.558525e-09    8.579145e-12    6.009455e-09   -1.934805e+00
