# sky130 pfet_01v8 gm/ID Processed Lookup Table
# Corner: fs
# Temperature: 75C
# W = 2.0 um
# L = 4.14 um (4140 nm)
# Columns: gm/id [1/V]  gm/gds [V/V]  id/W [A/m]  ft [Hz]  Cgg/W [F/m]  Cgd/W [F/m]  Cgs/W [F/m]  Vov [V]
#         gm/id          gm/gds            id/W              ft           Cgg/W           Cgd/W           Cgs/W             Vov
    1.642629e+00    2.685331e+00    5.409420e+00    5.004268e+07    2.825985e-08    3.970783e-09    2.488204e-08   -2.715842e+00
    1.658641e+00    2.750437e+00    5.364960e+00    5.022238e+07    2.819951e-08    3.884050e-09    2.489621e-08   -2.710842e+00
    1.674893e+00    2.818350e+00    5.320435e+00    5.040141e+07    2.813920e-08    3.797725e-09    2.490992e-08   -2.705842e+00
    1.691390e+00    2.889240e+00    5.275850e+00    5.057964e+07    2.807894e-08    3.711859e-09    2.492318e-08   -2.700842e+00
    1.708136e+00    2.963285e+00    5.231200e+00    5.075687e+07    2.801876e-08    3.626502e-09    2.493594e-08   -2.695842e+00
    1.725131e+00    3.040677e+00    5.186495e+00    5.093298e+07    2.795871e-08    3.541707e-09    2.494820e-08   -2.690842e+00
    1.742382e+00    3.121626e+00    5.141730e+00    5.110780e+07    2.789881e-08    3.457523e-09    2.495994e-08   -2.685842e+00
    1.759892e+00    3.206350e+00    5.096905e+00    5.128112e+07    2.783909e-08    3.374000e-09    2.497116e-08   -2.680842e+00
    1.777661e+00    3.295092e+00    5.052030e+00    5.145283e+07    2.777958e-08    3.291189e-09    2.498183e-08   -2.675842e+00
    1.795692e+00    3.388102e+00    5.007100e+00    5.162261e+07    2.772033e-08    3.209139e-09    2.508722e-08   -2.670842e+00
    1.813990e+00    3.485659e+00    4.962117e+00    5.179034e+07    2.766134e-08    3.127899e-09    2.509412e-08   -2.665842e+00
    1.832555e+00    3.588057e+00    4.917086e+00    5.195578e+07    2.760267e-08    3.047515e-09    2.510052e-08   -2.660842e+00
    1.851389e+00    3.695613e+00    4.872010e+00    5.211870e+07    2.754434e-08    2.968034e-09    2.510638e-08   -2.655842e+00
    1.870495e+00    3.808671e+00    4.826888e+00    5.227889e+07    2.748638e-08    2.889503e-09    2.511169e-08   -2.650842e+00
    1.889873e+00    3.927594e+00    4.781724e+00    5.243607e+07    2.742882e-08    2.811963e-09    2.511646e-08   -2.645842e+00
    1.909524e+00    4.052778e+00    4.736520e+00    5.259000e+07    2.737169e-08    2.735456e-09    2.512066e-08   -2.640842e+00
    1.929449e+00    4.184647e+00    4.691280e+00    5.274041e+07    2.731501e-08    2.660023e-09    2.512430e-08   -2.635842e+00
    1.949648e+00    4.323654e+00    4.646005e+00    5.288703e+07    2.725881e-08    2.585701e-09    2.512735e-08   -2.630842e+00
    1.970122e+00    4.470292e+00    4.600700e+00    5.302960e+07    2.720312e-08    2.512527e-09    2.512983e-08   -2.625842e+00
    1.990868e+00    4.625084e+00    4.555367e+00    5.316779e+07    2.714797e-08    2.440536e-09    2.513171e-08   -2.620842e+00
    2.011887e+00    4.788595e+00    4.510010e+00    5.330136e+07    2.709337e-08    2.369757e-09    2.513300e-08   -2.615842e+00
    2.033175e+00    4.961426e+00    4.464632e+00    5.342992e+07    2.703934e-08    2.300220e-09    2.513369e-08   -2.610842e+00
    2.054733e+00    5.144230e+00    4.419237e+00    5.355324e+07    2.698591e-08    2.231952e-09    2.513378e-08   -2.605842e+00
    2.076556e+00    5.337700e+00    4.373830e+00    5.367097e+07    2.693309e-08    2.164977e-09    2.513326e-08   -2.600842e+00
    2.098641e+00    5.542582e+00    4.328414e+00    5.378278e+07    2.688090e-08    2.099316e-09    2.513212e-08   -2.595842e+00
    2.120984e+00    5.759666e+00    4.282993e+00    5.388833e+07    2.682935e-08    2.034989e-09    2.513038e-08   -2.590842e+00
    2.143583e+00    5.989809e+00    4.237573e+00    5.398736e+07    2.677846e-08    1.972011e-09    2.512803e-08   -2.585842e+00
    2.166431e+00    6.233912e+00    4.192159e+00    5.407948e+07    2.672824e-08    1.910396e-09    2.512507e-08   -2.580842e+00
    2.189524e+00    6.492941e+00    4.146755e+00    5.416438e+07    2.667869e-08    1.850155e-09    2.512148e-08   -2.575842e+00
    2.212858e+00    6.767927e+00    4.101367e+00    5.424177e+07    2.662983e-08    1.791296e-09    2.511730e-08   -2.570842e+00
    2.236423e+00    7.059955e+00    4.056000e+00    5.431127e+07    2.658166e-08    1.733825e-09    2.511250e-08   -2.565842e+00
    2.260217e+00    7.370189e+00    4.010660e+00    5.437263e+07    2.653418e-08    1.677745e-09    2.510710e-08   -2.560842e+00
    2.284232e+00    7.699851e+00    3.965352e+00    5.442555e+07    2.648740e-08    1.623055e-09    2.510109e-08   -2.555842e+00
    2.308462e+00    8.050231e+00    3.920084e+00    5.446972e+07    2.644132e-08    1.569756e-09    2.509447e-08   -2.550842e+00
    2.332899e+00    8.422693e+00    3.874861e+00    5.450486e+07    2.639593e-08    1.517842e-09    2.508727e-08   -2.545842e+00
    2.357540e+00    8.818672e+00    3.829689e+00    5.453077e+07    2.635124e-08    1.467307e-09    2.507947e-08   -2.540842e+00
    2.382376e+00    9.239677e+00    3.784577e+00    5.454721e+07    2.630724e-08    1.418142e-09    2.507107e-08   -2.535842e+00
    2.407402e+00    9.687276e+00    3.739529e+00    5.455395e+07    2.626391e-08    1.370338e-09    2.506209e-08   -2.530842e+00
    2.432612e+00    1.016311e+01    3.694553e+00    5.455080e+07    2.622127e-08    1.323880e-09    2.505253e-08   -2.525842e+00
    2.458001e+00    1.066889e+01    3.649657e+00    5.453763e+07    2.617930e-08    1.278756e-09    2.504239e-08   -2.520842e+00
    2.483564e+00    1.120641e+01    3.604847e+00    5.451430e+07    2.613798e-08    1.234949e-09    2.503168e-08   -2.515842e+00
    2.509298e+00    1.177747e+01    3.560131e+00    5.448071e+07    2.609730e-08    1.192442e-09    2.502039e-08   -2.510842e+00
    2.535200e+00    1.238401e+01    3.515515e+00    5.443681e+07    2.605726e-08    1.151215e-09    2.500855e-08   -2.505842e+00
    2.561268e+00    1.302797e+01    3.471008e+00    5.438253e+07    2.601784e-08    1.111249e-09    2.499615e-08   -2.500842e+00
    2.587499e+00    1.371133e+01    3.426616e+00    5.431789e+07    2.597902e-08    1.072521e-09    2.498320e-08   -2.495842e+00
    2.613894e+00    1.443618e+01    3.382347e+00    5.424290e+07    2.594080e-08    1.035011e-09    2.496969e-08   -2.490842e+00
    2.640455e+00    1.520462e+01    3.338207e+00    5.415764e+07    2.590314e-08    9.986930e-10    2.495565e-08   -2.485842e+00
    2.667181e+00    1.601876e+01    3.294205e+00    5.406214e+07    2.586604e-08    9.635440e-10    2.494106e-08   -2.480842e+00
    2.694077e+00    1.688078e+01    3.250347e+00    5.395656e+07    2.582947e-08    9.295390e-10    2.492594e-08   -2.475842e+00
    2.721145e+00    1.779286e+01    3.206641e+00    5.384099e+07    2.579343e-08    8.966525e-10    2.491028e-08   -2.470842e+00
    2.748393e+00    1.875722e+01    3.163092e+00    5.371562e+07    2.575789e-08    8.648585e-10    2.489410e-08   -2.465842e+00
    2.775825e+00    1.977608e+01    3.119709e+00    5.358062e+07    2.572282e-08    8.341305e-10    2.487739e-08   -2.460842e+00
    2.803449e+00    2.085168e+01    3.076497e+00    5.343619e+07    2.568820e-08    8.044415e-10    2.486016e-08   -2.455842e+00
    2.831271e+00    2.198624e+01    3.033463e+00    5.328252e+07    2.565403e-08    7.757655e-10    2.484241e-08   -2.450842e+00
    2.859303e+00    2.318203e+01    2.990613e+00    5.311987e+07    2.562026e-08    7.480745e-10    2.482414e-08   -2.445842e+00
    2.887554e+00    2.444126e+01    2.947954e+00    5.294844e+07    2.558690e-08    7.213425e-10    2.480536e-08   -2.440842e+00
    2.916035e+00    2.576616e+01    2.905492e+00    5.276857e+07    2.555390e-08    6.955425e-10    2.478606e-08   -2.435842e+00
    2.944756e+00    2.715891e+01    2.863231e+00    5.258038e+07    2.552125e-08    6.706470e-10    2.476625e-08   -2.430842e+00
    2.973731e+00    2.862172e+01    2.821178e+00    5.238424e+07    2.548893e-08    6.466295e-10    2.474593e-08   -2.425842e+00
    3.002972e+00    3.015675e+01    2.779338e+00    5.218036e+07    2.545692e-08    6.234640e-10    2.472509e-08   -2.420842e+00
    3.032492e+00    3.176612e+01    2.737717e+00    5.196899e+07    2.542518e-08    6.011245e-10    2.470374e-08   -2.415842e+00
    3.062308e+00    3.345200e+01    2.696319e+00    5.175046e+07    2.539371e-08    5.795850e-10    2.468188e-08   -2.410842e+00
    3.092431e+00    3.521642e+01    2.655149e+00    5.152496e+07    2.536246e-08    5.588200e-10    2.465950e-08   -2.405842e+00
    3.122879e+00    3.706147e+01    2.614212e+00    5.129277e+07    2.533144e-08    5.388045e-10    2.463661e-08   -2.400842e+00
    3.153664e+00    3.898917e+01    2.573511e+00    5.105413e+07    2.530060e-08    5.195145e-10    2.461320e-08   -2.395842e+00
    3.184805e+00    4.100155e+01    2.533053e+00    5.080932e+07    2.526992e-08    5.009250e-10    2.458926e-08   -2.390842e+00
    3.216318e+00    4.310057e+01    2.492840e+00    5.055855e+07    2.523939e-08    4.830135e-10    2.456479e-08   -2.385842e+00
    3.248216e+00    4.528819e+01    2.452877e+00    5.030204e+07    2.520898e-08    4.657564e-10    2.453981e-08   -2.380842e+00
    3.280520e+00    4.756633e+01    2.413166e+00    5.004000e+07    2.517867e-08    4.491313e-10    2.451428e-08   -2.375842e+00
    3.313245e+00    4.993693e+01    2.373714e+00    4.977268e+07    2.514844e-08    4.331163e-10    2.448822e-08   -2.370842e+00
    3.346410e+00    5.240187e+01    2.334521e+00    4.950029e+07    2.511825e-08    4.176899e-10    2.446161e-08   -2.365842e+00
    3.380032e+00    5.496303e+01    2.295592e+00    4.922298e+07    2.508810e-08    4.028315e-10    2.443445e-08   -2.360842e+00
    3.414129e+00    5.762226e+01    2.256930e+00    4.894097e+07    2.505795e-08    3.885207e-10    2.440673e-08   -2.355842e+00
    3.448721e+00    6.038144e+01    2.218539e+00    4.865446e+07    2.502779e-08    3.747378e-10    2.437845e-08   -2.350842e+00
    3.483822e+00    6.324236e+01    2.180420e+00    4.836354e+07    2.499759e-08    3.614638e-10    2.434959e-08   -2.345842e+00
    3.519455e+00    6.620693e+01    2.142578e+00    4.806843e+07    2.496733e-08    3.486801e-10    2.432017e-08   -2.340842e+00
    3.555639e+00    6.927700e+01    2.105014e+00    4.776930e+07    2.493698e-08    3.363688e-10    2.429014e-08   -2.335842e+00
    3.592393e+00    7.245440e+01    2.067732e+00    4.746624e+07    2.490653e-08    3.245124e-10    2.425952e-08   -2.330842e+00
    3.629738e+00    7.574103e+01    2.030733e+00    4.715942e+07    2.487596e-08    3.130942e-10    2.422829e-08   -2.325842e+00
    3.667693e+00    7.913874e+01    1.994022e+00    4.684896e+07    2.484524e-08    3.020978e-10    2.419644e-08   -2.320842e+00
    3.706278e+00    8.264944e+01    1.957600e+00    4.653497e+07    2.481434e-08    2.915076e-10    2.416397e-08   -2.315842e+00
    3.745517e+00    8.627508e+01    1.921469e+00    4.621758e+07    2.478324e-08    2.813082e-10    2.413084e-08   -2.310842e+00
    3.785429e+00    9.001757e+01    1.885631e+00    4.589686e+07    2.475194e-08    2.714850e-10    2.409707e-08   -2.305842e+00
    3.826037e+00    9.387895e+01    1.850091e+00    4.557294e+07    2.472039e-08    2.620237e-10    2.406263e-08   -2.300842e+00
    3.867365e+00    9.786122e+01    1.814847e+00    4.524590e+07    2.468858e-08    2.529108e-10    2.402751e-08   -2.295842e+00
    3.909432e+00    1.019664e+02    1.779905e+00    4.491583e+07    2.465648e-08    2.441330e-10    2.399170e-08   -2.290842e+00
    3.952265e+00    1.061966e+02    1.745264e+00    4.458278e+07    2.462408e-08    2.356776e-10    2.395518e-08   -2.285842e+00
    3.995888e+00    1.105541e+02    1.710928e+00    4.424687e+07    2.459136e-08    2.275323e-10    2.391794e-08   -2.280842e+00
    4.040324e+00    1.150409e+02    1.676898e+00    4.390813e+07    2.455828e-08    2.196853e-10    2.387996e-08   -2.275842e+00
    4.085600e+00    1.196595e+02    1.643176e+00    4.356664e+07    2.452483e-08    2.121253e-10    2.384123e-08   -2.270842e+00
    4.131744e+00    1.244123e+02    1.609765e+00    4.322248e+07    2.449099e-08    2.048412e-10    2.380172e-08   -2.265842e+00
    4.178775e+00    1.293012e+02    1.576666e+00    4.287561e+07    2.445673e-08    1.978225e-10    2.376144e-08   -2.260842e+00
    4.226727e+00    1.343291e+02    1.543880e+00    4.252618e+07    2.442202e-08    1.910590e-10    2.372034e-08   -2.255842e+00
    4.275625e+00    1.394984e+02    1.511410e+00    4.217416e+07    2.438685e-08    1.845412e-10    2.367842e-08   -2.250842e+00
    4.325502e+00    1.448117e+02    1.479259e+00    4.181964e+07    2.435120e-08    1.782594e-10    2.363565e-08   -2.245842e+00
    4.376381e+00    1.502716e+02    1.447426e+00    4.146259e+07    2.431504e-08    1.722047e-10    2.359204e-08   -2.240842e+00
    4.428295e+00    1.558810e+02    1.415914e+00    4.110310e+07    2.427834e-08    1.663685e-10    2.354753e-08   -2.235842e+00
    4.481274e+00    1.616426e+02    1.384726e+00    4.074114e+07    2.424109e-08    1.607424e-10    2.350212e-08   -2.230842e+00
    4.535355e+00    1.675593e+02    1.353861e+00    4.037677e+07    2.420326e-08    1.553182e-10    2.345580e-08   -2.225842e+00
    4.590563e+00    1.736343e+02    1.323324e+00    4.000999e+07    2.416483e-08    1.500884e-10    2.340852e-08   -2.220842e+00
    4.646938e+00    1.798706e+02    1.293114e+00    3.964083e+07    2.412577e-08    1.450457e-10    2.336028e-08   -2.215842e+00
    4.704508e+00    1.862711e+02    1.263234e+00    3.926925e+07    2.408605e-08    1.401826e-10    2.331105e-08   -2.210842e+00
    4.763317e+00    1.928395e+02    1.233686e+00    3.889531e+07    2.404567e-08    1.354926e-10    2.326081e-08   -2.205842e+00
    4.823391e+00    1.995788e+02    1.204470e+00    3.851895e+07    2.400458e-08    1.309690e-10    2.320953e-08   -2.200842e+00
    4.884775e+00    2.064925e+02    1.175590e+00    3.814023e+07    2.396277e-08    1.266055e-10    2.315719e-08   -2.195842e+00
    4.947500e+00    2.135842e+02    1.147046e+00    3.775911e+07    2.392021e-08    1.223959e-10    2.310376e-08   -2.190842e+00
    5.011610e+00    2.208572e+02    1.118840e+00    3.737558e+07    2.387687e-08    1.183347e-10    2.304923e-08   -2.185842e+00
    5.077144e+00    2.283156e+02    1.090975e+00    3.698965e+07    2.383275e-08    1.144160e-10    2.299356e-08   -2.180842e+00
    5.144142e+00    2.359628e+02    1.063451e+00    3.660128e+07    2.378779e-08    1.106347e-10    2.293672e-08   -2.175842e+00
    5.212650e+00    2.438028e+02    1.036270e+00    3.621049e+07    2.374199e-08    1.069854e-10    2.287869e-08   -2.170842e+00
    5.282698e+00    2.518392e+02    1.009434e+00    3.581719e+07    2.369530e-08    1.034633e-10    2.281945e-08   -2.165842e+00
    5.354343e+00    2.600762e+02    9.829450e-01    3.542145e+07    2.364772e-08    1.000635e-10    2.275897e-08   -2.160842e+00
    5.427622e+00    2.685176e+02    9.568040e-01    3.502314e+07    2.359922e-08    9.678155e-11    2.269720e-08   -2.155842e+00
    5.502584e+00    2.771676e+02    9.310135e-01    3.462234e+07    2.354976e-08    9.361305e-11    2.263414e-08   -2.150842e+00
    5.579267e+00    2.860299e+02    9.055750e-01    3.421894e+07    2.349932e-08    9.055375e-11    2.256975e-08   -2.145842e+00
    5.657730e+00    2.951090e+02    8.804895e-01    3.381296e+07    2.344787e-08    8.759960e-11    2.250399e-08   -2.140842e+00
    5.738007e+00    3.044086e+02    8.557600e-01    3.340433e+07    2.339539e-08    8.474680e-11    2.243685e-08   -2.135842e+00
    5.820156e+00    3.139330e+02    8.313865e-01    3.299304e+07    2.334186e-08    8.199150e-11    2.236829e-08   -2.130842e+00
    5.904216e+00    3.236860e+02    8.073725e-01    3.257905e+07    2.328724e-08    7.933015e-11    2.229828e-08   -2.125842e+00
    5.990243e+00    3.336716e+02    7.837185e-01    3.216232e+07    2.323151e-08    7.675930e-11    2.222678e-08   -2.120842e+00
    6.078282e+00    3.438939e+02    7.604265e-01    3.174280e+07    2.317464e-08    7.427570e-11    2.215377e-08   -2.115842e+00
    6.168384e+00    3.543564e+02    7.374980e-01    3.132049e+07    2.311660e-08    7.187610e-11    2.207922e-08   -2.110842e+00
    6.260596e+00    3.650631e+02    7.149350e-01    3.089532e+07    2.305736e-08    6.955745e-11    2.200309e-08   -2.105842e+00
    6.354964e+00    3.760171e+02    6.927395e-01    3.046727e+07    2.299692e-08    6.731685e-11    2.192536e-08   -2.100842e+00
    6.451540e+00    3.872221e+02    6.709125e-01    3.003631e+07    2.293522e-08    6.515150e-11    2.184598e-08   -2.095842e+00
    6.550375e+00    3.986810e+02    6.494555e-01    2.960239e+07    2.287225e-08    6.305860e-11    2.176494e-08   -2.090842e+00
    6.651505e+00    4.103967e+02    6.283710e-01    2.916549e+07    2.280799e-08    6.103560e-11    2.168219e-08   -2.085842e+00
    6.754982e+00    4.223717e+02    6.076600e-01    2.872559e+07    2.274239e-08    5.908000e-11    2.159771e-08   -2.080842e+00
    6.860845e+00    4.346078e+02    5.873245e-01    2.828265e+07    2.267545e-08    5.718940e-11    2.151146e-08   -2.075842e+00
    6.969149e+00    4.471075e+02    5.673650e-01    2.783666e+07    2.260713e-08    5.536145e-11    2.142342e-08   -2.070842e+00
    7.079919e+00    4.598712e+02    5.477840e-01    2.738761e+07    2.253740e-08    5.359395e-11    2.133355e-08   -2.065842e+00
    7.193193e+00    4.729001e+02    5.285830e-01    2.693547e+07    2.246624e-08    5.188475e-11    2.124182e-08   -2.060842e+00
    7.309015e+00    4.861942e+02    5.097625e-01    2.648027e+07    2.239363e-08    5.023180e-11    2.114819e-08   -2.055842e+00
    7.427405e+00    4.997529e+02    4.913247e-01    2.602200e+07    2.231954e-08    4.863312e-11    2.105264e-08   -2.050842e+00
    7.548394e+00    5.135749e+02    4.732705e-01    2.556067e+07    2.224395e-08    4.708681e-11    2.095515e-08   -2.045842e+00
    7.672005e+00    5.276579e+02    4.556009e-01    2.509631e+07    2.216684e-08    4.559105e-11    2.085567e-08   -2.040842e+00
    7.798252e+00    5.419992e+02    4.383171e-01    2.462896e+07    2.208817e-08    4.414407e-11    2.075418e-08   -2.035842e+00
    7.927145e+00    5.565945e+02    4.214200e-01    2.415867e+07    2.200793e-08    4.274417e-11    2.065065e-08   -2.030842e+00
    8.058688e+00    5.714382e+02    4.049108e-01    2.368549e+07    2.192610e-08    4.138975e-11    2.054505e-08   -2.025842e+00
    8.192877e+00    5.865247e+02    3.887898e-01    2.320951e+07    2.184266e-08    4.007920e-11    2.043736e-08   -2.020842e+00
    8.329700e+00    6.018459e+02    3.730579e-01    2.273082e+07    2.175758e-08    3.881104e-11    2.032755e-08   -2.015842e+00
    8.469136e+00    6.173929e+02    3.577153e-01    2.224953e+07    2.167085e-08    3.758381e-11    2.021561e-08   -2.010842e+00
    8.611152e+00    6.331548e+02    3.427625e-01    2.176577e+07    2.158245e-08    3.639611e-11    2.010148e-08   -2.005842e+00
    8.755708e+00    6.491197e+02    3.281995e-01    2.127968e+07    2.149236e-08    3.524660e-11    1.998517e-08   -2.000842e+00
    8.902749e+00    6.652736e+02    3.140263e-01    2.079145e+07    2.140058e-08    3.413398e-11    1.986666e-08   -1.995842e+00
    9.052211e+00    6.816010e+02    3.002424e-01    2.030126e+07    2.130708e-08    3.305700e-11    1.974591e-08   -1.990842e+00
    9.204011e+00    6.980844e+02    2.868475e-01    1.980934e+07    2.121184e-08    3.201446e-11    1.962292e-08   -1.985842e+00
    9.358054e+00    7.147039e+02    2.738407e-01    1.931591e+07    2.111487e-08    3.100520e-11    1.949765e-08   -1.980842e+00
    9.514233e+00    7.314383e+02    2.612209e-01    1.882127e+07    2.101614e-08    3.002811e-11    1.937011e-08   -1.975842e+00
    9.672419e+00    7.482640e+02    2.489870e-01    1.832570e+07    2.091565e-08    2.908211e-11    1.924028e-08   -1.970842e+00
    9.832473e+00    7.651552e+02    2.371372e-01    1.782952e+07    2.081340e-08    2.816617e-11    1.910814e-08   -1.965842e+00
    9.994226e+00    7.820838e+02    2.256699e-01    1.733308e+07    2.070938e-08    2.727928e-11    1.897369e-08   -1.960842e+00
