# sky130 pfet_01v8 gm/ID Processed Lookup Table
# Corner: fs
# Temperature: 75C
# W = 2.0 um
# L = 4.86 um (4860 nm)
# Columns: gm/id [1/V]  gm/gds [V/V]  id/W [A/m]  ft [Hz]  Cgg/W [F/m]  Cgd/W [F/m]  Cgs/W [F/m]  Vov [V]
#         gm/id          gm/gds            id/W              ft           Cgg/W           Cgd/W           Cgs/W             Vov
    1.649219e+00    2.720257e+00    4.590640e+00    3.629867e+07    3.319563e-08    4.760540e-09    2.919567e-08   -2.718125e+00
    1.665393e+00    2.787296e+00    4.552758e+00    3.643127e+07    3.312356e-08    4.657456e-09    2.921213e-08   -2.713125e+00
    1.681810e+00    2.857272e+00    4.514820e+00    3.656339e+07    3.305149e-08    4.554804e-09    2.922807e-08   -2.708125e+00
    1.698476e+00    2.930368e+00    4.476827e+00    3.669497e+07    3.297945e-08    4.452645e-09    2.924346e-08   -2.703125e+00
    1.715394e+00    3.006775e+00    4.438782e+00    3.682589e+07    3.290748e-08    4.351039e-09    2.925829e-08   -2.698125e+00
    1.732565e+00    3.086696e+00    4.400685e+00    3.695601e+07    3.283561e-08    4.250047e-09    2.927254e-08   -2.693125e+00
    1.749995e+00    3.170355e+00    4.362538e+00    3.708521e+07    3.276389e-08    4.149730e-09    2.928619e-08   -2.688125e+00
    1.767686e+00    3.257988e+00    4.324341e+00    3.721337e+07    3.269234e-08    4.050150e-09    2.929923e-08   -2.683125e+00
    1.785638e+00    3.349852e+00    4.286098e+00    3.734032e+07    3.262103e-08    3.951368e-09    2.931164e-08   -2.678125e+00
    1.803858e+00    3.446221e+00    4.247808e+00    3.746593e+07    3.254998e-08    3.853443e-09    2.932342e-08   -2.673125e+00
    1.822347e+00    3.547396e+00    4.209474e+00    3.759008e+07    3.247922e-08    3.756433e-09    2.944213e-08   -2.668125e+00
    1.841104e+00    3.653689e+00    4.171097e+00    3.771254e+07    3.240881e-08    3.660398e-09    2.944956e-08   -2.663125e+00
    1.860136e+00    3.765448e+00    4.132680e+00    3.783319e+07    3.233878e-08    3.565395e-09    2.945636e-08   -2.658125e+00
    1.879442e+00    3.883044e+00    4.094224e+00    3.795186e+07    3.226915e-08    3.471477e-09    2.946254e-08   -2.653125e+00
    1.899022e+00    4.006873e+00    4.055732e+00    3.806833e+07    3.219998e-08    3.378701e-09    2.946808e-08   -2.648125e+00
    1.918879e+00    4.137364e+00    4.017206e+00    3.818243e+07    3.213129e-08    3.287117e-09    2.947295e-08   -2.643125e+00
    1.939012e+00    4.274983e+00    3.978648e+00    3.829396e+07    3.206312e-08    3.196775e-09    2.947716e-08   -2.638125e+00
    1.959422e+00    4.420226e+00    3.940060e+00    3.840271e+07    3.199551e-08    3.107723e-09    2.948070e-08   -2.633125e+00
    1.980108e+00    4.573629e+00    3.901446e+00    3.850848e+07    3.192848e-08    3.020007e-09    2.948356e-08   -2.628125e+00
    2.001069e+00    4.735770e+00    3.862808e+00    3.861103e+07    3.186207e-08    2.933669e-09    2.948571e-08   -2.623125e+00
    2.022305e+00    4.907276e+00    3.824150e+00    3.871017e+07    3.179629e-08    2.848749e-09    2.948718e-08   -2.618125e+00
    2.043812e+00    5.088812e+00    3.785474e+00    3.880564e+07    3.173119e-08    2.765284e-09    2.948794e-08   -2.613125e+00
    2.065589e+00    5.281102e+00    3.746783e+00    3.889723e+07    3.166678e-08    2.683310e-09    2.948799e-08   -2.608125e+00
    2.087633e+00    5.484917e+00    3.708082e+00    3.898469e+07    3.160309e-08    2.602857e-09    2.948732e-08   -2.603125e+00
    2.109941e+00    5.701090e+00    3.669373e+00    3.906776e+07    3.154015e-08    2.523953e-09    2.948594e-08   -2.598125e+00
    2.132508e+00    5.930513e+00    3.630661e+00    3.914623e+07    3.147796e-08    2.446623e-09    2.948383e-08   -2.593125e+00
    2.155329e+00    6.174140e+00    3.591950e+00    3.921982e+07    3.141654e-08    2.370890e-09    2.948101e-08   -2.588125e+00
    2.178401e+00    6.433001e+00    3.553244e+00    3.928831e+07    3.135592e-08    2.296770e-09    2.947746e-08   -2.583125e+00
    2.201717e+00    6.708192e+00    3.514548e+00    3.935145e+07    3.129611e-08    2.224283e-09    2.947320e-08   -2.578125e+00
    2.225272e+00    7.000881e+00    3.475865e+00    3.940899e+07    3.123711e-08    2.153436e-09    2.946821e-08   -2.573125e+00
    2.249059e+00    7.312319e+00    3.437202e+00    3.946070e+07    3.117893e-08    2.084241e-09    2.946249e-08   -2.568125e+00
    2.273073e+00    7.643838e+00    3.398563e+00    3.950637e+07    3.112158e-08    2.016704e-09    2.945607e-08   -2.563125e+00
    2.297305e+00    7.996854e+00    3.359952e+00    3.954573e+07    3.106506e-08    1.950826e-09    2.944892e-08   -2.558125e+00
    2.321750e+00    8.372866e+00    3.321376e+00    3.957861e+07    3.100939e-08    1.886608e-09    2.944107e-08   -2.553125e+00
    2.346402e+00    8.773469e+00    3.282840e+00    3.960480e+07    3.095454e-08    1.824047e-09    2.943250e-08   -2.548125e+00
    2.371252e+00    9.200348e+00    3.244349e+00    3.962410e+07    3.090054e-08    1.763135e-09    2.942323e-08   -2.543125e+00
    2.396293e+00    9.655273e+00    3.205910e+00    3.963633e+07    3.084736e-08    1.703867e-09    2.941326e-08   -2.538125e+00
    2.421522e+00    1.014012e+01    3.167528e+00    3.964139e+07    3.079500e-08    1.646230e-09    2.940260e-08   -2.533125e+00
    2.446931e+00    1.065685e+01    3.129210e+00    3.963910e+07    3.074346e-08    1.590209e-09    2.939124e-08   -2.528125e+00
    2.472515e+00    1.120753e+01    3.090960e+00    3.962935e+07    3.069273e-08    1.535791e-09    2.937920e-08   -2.523125e+00
    2.498268e+00    1.179429e+01    3.052787e+00    3.961205e+07    3.064279e-08    1.482956e-09    2.936648e-08   -2.518125e+00
    2.524188e+00    1.241940e+01    3.014696e+00    3.958716e+07    3.059364e-08    1.431684e-09    2.935309e-08   -2.513125e+00
    2.550270e+00    1.308517e+01    2.976693e+00    3.955456e+07    3.054525e-08    1.381955e-09    2.933902e-08   -2.508125e+00
    2.576514e+00    1.379404e+01    2.938785e+00    3.951432e+07    3.049762e-08    1.333744e-09    2.932429e-08   -2.503125e+00
    2.602917e+00    1.454850e+01    2.900977e+00    3.946636e+07    3.045072e-08    1.287027e-09    2.930891e-08   -2.498125e+00
    2.629479e+00    1.535114e+01    2.863277e+00    3.941075e+07    3.040454e-08    1.241778e-09    2.929288e-08   -2.493125e+00
    2.656201e+00    1.620461e+01    2.825690e+00    3.934752e+07    3.035905e-08    1.197967e-09    2.927619e-08   -2.488125e+00
    2.683086e+00    1.711165e+01    2.788223e+00    3.927674e+07    3.031424e-08    1.155569e-09    2.925887e-08   -2.483125e+00
    2.710135e+00    1.807504e+01    2.750881e+00    3.919849e+07    3.027008e-08    1.114551e-09    2.924091e-08   -2.478125e+00
    2.737354e+00    1.909764e+01    2.713672e+00    3.911287e+07    3.022656e-08    1.074886e-09    2.922232e-08   -2.473125e+00
    2.764748e+00    2.018236e+01    2.676601e+00    3.902002e+07    3.018364e-08    1.036540e-09    2.920310e-08   -2.468125e+00
    2.792324e+00    2.133214e+01    2.639673e+00    3.892008e+07    3.014132e-08    9.994835e-10    2.918324e-08   -2.463125e+00
    2.820088e+00    2.254999e+01    2.602894e+00    3.881318e+07    3.009955e-08    9.636840e-10    2.916278e-08   -2.458125e+00
    2.848049e+00    2.383891e+01    2.566271e+00    3.869951e+07    3.005832e-08    9.291095e-10    2.914170e-08   -2.453125e+00
    2.876217e+00    2.520197e+01    2.529807e+00    3.857922e+07    3.001759e-08    8.957275e-10    2.911999e-08   -2.448125e+00
    2.904603e+00    2.664224e+01    2.493510e+00    3.845251e+07    2.997735e-08    8.635055e-10    2.909767e-08   -2.443125e+00
    2.933219e+00    2.816284e+01    2.457383e+00    3.831959e+07    2.993757e-08    8.324110e-10    2.907475e-08   -2.438125e+00
    2.962073e+00    2.976682e+01    2.421431e+00    3.818060e+07    2.989821e-08    8.024125e-10    2.905122e-08   -2.433125e+00
    2.991181e+00    3.145732e+01    2.385660e+00    3.803578e+07    2.985926e-08    7.734765e-10    2.902707e-08   -2.428125e+00
    3.020558e+00    3.323744e+01    2.350073e+00    3.788532e+07    2.982068e-08    7.455725e-10    2.900231e-08   -2.423125e+00
    3.050214e+00    3.511028e+01    2.314676e+00    3.772942e+07    2.978245e-08    7.186680e-10    2.897694e-08   -2.418125e+00
    3.080168e+00    3.707898e+01    2.279472e+00    3.756829e+07    2.974454e-08    6.927325e-10    2.895096e-08   -2.413125e+00
    3.110429e+00    3.914653e+01    2.244465e+00    3.740207e+07    2.970692e-08    6.677345e-10    2.892437e-08   -2.408125e+00
    3.141019e+00    4.131609e+01    2.209661e+00    3.723102e+07    2.966957e-08    6.436445e-10    2.889716e-08   -2.403125e+00
    3.171951e+00    4.359069e+01    2.175061e+00    3.705530e+07    2.963246e-08    6.204325e-10    2.886934e-08   -2.398125e+00
    3.203241e+00    4.597336e+01    2.140670e+00    3.687508e+07    2.959555e-08    5.980690e-10    2.884088e-08   -2.393125e+00
    3.234903e+00    4.846708e+01    2.106491e+00    3.669053e+07    2.955882e-08    5.765260e-10    2.881181e-08   -2.388125e+00
    3.266960e+00    5.107493e+01    2.072528e+00    3.650185e+07    2.952225e-08    5.557750e-10    2.878210e-08   -2.383125e+00
    3.299426e+00    5.379984e+01    2.038784e+00    3.630920e+07    2.948580e-08    5.357890e-10    2.875177e-08   -2.378125e+00
    3.332320e+00    5.664483e+01    2.005260e+00    3.611274e+07    2.944945e-08    5.165415e-10    2.872078e-08   -2.373125e+00
    3.365657e+00    5.961275e+01    1.971962e+00    3.591259e+07    2.941318e-08    4.980061e-10    2.868914e-08   -2.368125e+00
    3.399457e+00    6.270661e+01    1.938892e+00    3.570892e+07    2.937694e-08    4.801578e-10    2.865686e-08   -2.363125e+00
    3.433740e+00    6.592934e+01    1.906052e+00    3.550188e+07    2.934072e-08    4.629720e-10    2.862391e-08   -2.358125e+00
    3.468521e+00    6.928377e+01    1.873444e+00    3.529157e+07    2.930449e-08    4.464247e-10    2.859028e-08   -2.353125e+00
    3.503821e+00    7.277280e+01    1.841071e+00    3.507813e+07    2.926822e-08    4.304927e-10    2.855597e-08   -2.348125e+00
    3.539662e+00    7.639948e+01    1.808937e+00    3.486170e+07    2.923188e-08    4.151535e-10    2.852098e-08   -2.343125e+00
    3.576058e+00    8.016648e+01    1.777042e+00    3.464233e+07    2.919546e-08    4.003852e-10    2.848528e-08   -2.338125e+00
    3.613033e+00    8.407679e+01    1.745390e+00    3.442019e+07    2.915891e-08    3.861668e-10    2.844886e-08   -2.333125e+00
    3.650605e+00    8.813327e+01    1.713982e+00    3.419534e+07    2.912221e-08    3.724777e-10    2.841172e-08   -2.328125e+00
    3.688797e+00    9.233891e+01    1.682820e+00    3.396788e+07    2.908533e-08    3.592980e-10    2.837384e-08   -2.323125e+00
    3.727630e+00    9.669648e+01    1.651906e+00    3.373790e+07    2.904827e-08    3.466089e-10    2.833522e-08   -2.318125e+00
    3.767121e+00    1.012091e+02    1.621244e+00    3.350547e+07    2.901096e-08    3.343916e-10    2.829582e-08   -2.313125e+00
    3.807299e+00    1.058794e+02    1.590833e+00    3.327070e+07    2.897341e-08    3.226283e-10    2.825565e-08   -2.308125e+00
    3.848182e+00    1.107108e+02    1.560676e+00    3.303363e+07    2.893558e-08    3.113019e-10    2.821469e-08   -2.303125e+00
    3.889790e+00    1.157058e+02    1.530776e+00    3.279431e+07    2.889744e-08    3.003957e-10    2.817291e-08   -2.298125e+00
    3.932155e+00    1.208680e+02    1.501133e+00    3.255286e+07    2.885896e-08    2.898936e-10    2.813031e-08   -2.293125e+00
    3.975289e+00    1.261999e+02    1.471750e+00    3.230926e+07    2.882012e-08    2.797801e-10    2.808687e-08   -2.288125e+00
    4.019227e+00    1.317050e+02    1.442627e+00    3.206361e+07    2.878089e-08    2.700405e-10    2.804256e-08   -2.283125e+00
    4.063989e+00    1.373863e+02    1.413768e+00    3.181596e+07    2.874125e-08    2.606603e-10    2.799737e-08   -2.278125e+00
    4.109602e+00    1.432471e+02    1.385172e+00    3.156633e+07    2.870116e-08    2.516258e-10    2.795129e-08   -2.273125e+00
    4.156089e+00    1.492906e+02    1.356843e+00    3.131477e+07    2.866061e-08    2.429236e-10    2.790429e-08   -2.268125e+00
    4.203480e+00    1.555201e+02    1.328781e+00    3.106131e+07    2.861956e-08    2.345409e-10    2.785635e-08   -2.263125e+00
    4.251802e+00    1.619391e+02    1.300988e+00    3.080598e+07    2.857798e-08    2.264656e-10    2.780745e-08   -2.258125e+00
    4.301085e+00    1.685509e+02    1.273466e+00    3.054883e+07    2.853586e-08    2.186857e-10    2.775757e-08   -2.253125e+00
    4.351352e+00    1.753591e+02    1.246216e+00    3.028986e+07    2.849315e-08    2.111897e-10    2.770669e-08   -2.248125e+00
    4.402642e+00    1.823675e+02    1.219240e+00    3.002913e+07    2.844984e-08    2.039669e-10    2.765477e-08   -2.243125e+00
    4.454975e+00    1.895792e+02    1.192538e+00    2.976658e+07    2.840589e-08    1.970066e-10    2.760181e-08   -2.238125e+00
    4.508390e+00    1.969985e+02    1.166113e+00    2.950231e+07    2.836129e-08    1.902988e-10    2.754778e-08   -2.233125e+00
    4.562914e+00    2.046289e+02    1.139966e+00    2.923629e+07    2.831600e-08    1.838338e-10    2.749264e-08   -2.228125e+00
    4.618586e+00    2.124745e+02    1.114098e+00    2.896855e+07    2.826998e-08    1.776021e-10    2.743639e-08   -2.223125e+00
    4.675432e+00    2.205389e+02    1.088510e+00    2.869906e+07    2.822322e-08    1.715949e-10    2.737898e-08   -2.218125e+00
    4.733492e+00    2.288266e+02    1.063206e+00    2.842788e+07    2.817569e-08    1.658036e-10    2.732039e-08   -2.213125e+00
    4.792801e+00    2.373414e+02    1.038184e+00    2.815496e+07    2.812736e-08    1.602198e-10    2.726060e-08   -2.208125e+00
    4.853394e+00    2.460876e+02    1.013448e+00    2.788033e+07    2.807819e-08    1.548357e-10    2.719957e-08   -2.203125e+00
    4.915306e+00    2.550695e+02    9.889980e-01    2.760397e+07    2.802816e-08    1.496436e-10    2.713728e-08   -2.198125e+00
    4.978579e+00    2.642913e+02    9.648360e-01    2.732589e+07    2.797723e-08    1.446360e-10    2.707370e-08   -2.193125e+00
    5.043254e+00    2.737576e+02    9.409630e-01    2.704607e+07    2.792539e-08    1.398063e-10    2.700880e-08   -2.188125e+00
    5.109365e+00    2.834726e+02    9.173810e-01    2.676451e+07    2.787260e-08    1.351473e-10    2.694254e-08   -2.183125e+00
    5.176953e+00    2.934410e+02    8.940915e-01    2.648119e+07    2.781882e-08    1.306528e-10    2.687491e-08   -2.178125e+00
    5.246066e+00    3.036674e+02    8.710950e-01    2.619610e+07    2.776404e-08    1.263164e-10    2.680586e-08   -2.173125e+00
    5.316742e+00    3.141562e+02    8.483935e-01    2.590923e+07    2.770822e-08    1.221322e-10    2.673536e-08   -2.168125e+00
    5.389024e+00    3.249121e+02    8.259885e-01    2.562054e+07    2.765133e-08    1.180945e-10    2.666338e-08   -2.163125e+00
    5.462958e+00    3.359399e+02    8.038815e-01    2.533004e+07    2.759333e-08    1.141977e-10    2.658989e-08   -2.158125e+00
    5.538588e+00    3.472439e+02    7.820735e-01    2.503769e+07    2.753420e-08    1.104367e-10    2.651485e-08   -2.153125e+00
    5.615962e+00    3.588288e+02    7.605660e-01    2.474348e+07    2.747391e-08    1.068062e-10    2.643823e-08   -2.148125e+00
    5.695126e+00    3.706993e+02    7.393605e-01    2.444738e+07    2.741242e-08    1.033014e-10    2.636000e-08   -2.143125e+00
    5.776120e+00    3.828598e+02    7.184590e-01    2.414936e+07    2.734971e-08    9.991755e-11    2.628011e-08   -2.138125e+00
    5.859001e+00    3.953146e+02    6.978620e-01    2.384941e+07    2.728574e-08    9.665030e-11    2.619854e-08   -2.133125e+00
    5.943813e+00    4.080682e+02    6.775715e-01    2.354749e+07    2.722048e-08    9.349525e-11    2.611525e-08   -2.128125e+00
    6.030600e+00    4.211248e+02    6.575890e-01    2.324358e+07    2.715390e-08    9.044830e-11    2.603020e-08   -2.123125e+00
    6.119416e+00    4.344880e+02    6.379155e-01    2.293765e+07    2.708597e-08    8.750540e-11    2.594336e-08   -2.118125e+00
    6.210305e+00    4.481620e+02    6.185530e-01    2.262967e+07    2.701666e-08    8.466275e-11    2.585469e-08   -2.113125e+00
    6.303321e+00    4.621501e+02    5.995020e-01    2.231963e+07    2.694594e-08    8.191670e-11    2.576415e-08   -2.108125e+00
    6.398508e+00    4.764555e+02    5.807645e-01    2.200749e+07    2.687376e-08    7.926365e-11    2.567170e-08   -2.103125e+00
    6.495912e+00    4.910811e+02    5.623420e-01    2.169323e+07    2.680011e-08    7.670035e-11    2.557731e-08   -2.098125e+00
    6.595576e+00    5.060294e+02    5.442360e-01    2.137682e+07    2.672496e-08    7.422340e-11    2.548095e-08   -2.093125e+00
    6.697556e+00    5.213026e+02    5.264470e-01    2.105826e+07    2.664826e-08    7.182975e-11    2.538257e-08   -2.088125e+00
    6.801882e+00    5.369019e+02    5.089775e-01    2.073750e+07    2.656999e-08    6.951640e-11    2.528214e-08   -2.083125e+00
    6.908612e+00    5.528278e+02    4.918276e-01    2.041455e+07    2.649013e-08    6.728040e-11    2.517962e-08   -2.078125e+00
    7.017773e+00    5.690814e+02    4.749992e-01    2.008938e+07    2.640863e-08    6.511905e-11    2.507496e-08   -2.073125e+00
    7.129410e+00    5.856616e+02    4.584936e-01    1.976200e+07    2.632547e-08    6.302965e-11    2.496816e-08   -2.068125e+00
    7.243555e+00    6.025671e+02    4.423118e-01    1.943239e+07    2.624062e-08    6.100960e-11    2.485915e-08   -2.063125e+00
    7.360240e+00    6.197958e+02    4.264548e-01    1.910056e+07    2.615406e-08    5.905645e-11    2.474791e-08   -2.058125e+00
    7.479491e+00    6.373443e+02    4.109240e-01    1.876652e+07    2.606574e-08    5.716790e-11    2.463440e-08   -2.053125e+00
    7.601336e+00    6.552084e+02    3.957202e-01    1.843027e+07    2.597565e-08    5.534160e-11    2.451858e-08   -2.048125e+00
    7.725789e+00    6.733822e+02    3.808443e-01    1.809185e+07    2.588376e-08    5.357535e-11    2.440042e-08   -2.043125e+00
    7.852864e+00    6.918589e+02    3.662972e-01    1.775128e+07    2.579005e-08    5.186710e-11    2.427989e-08   -2.038125e+00
    7.982568e+00    7.106302e+02    3.520797e-01    1.740860e+07    2.569448e-08    5.021475e-11    2.415697e-08   -2.033125e+00
    8.114900e+00    7.296860e+02    3.381924e-01    1.706387e+07    2.559703e-08    4.861642e-11    2.403160e-08   -2.028125e+00
    8.249851e+00    7.490146e+02    3.246359e-01    1.671714e+07    2.549768e-08    4.707021e-11    2.390377e-08   -2.023125e+00
    8.387404e+00    7.686026e+02    3.114106e-01    1.636849e+07    2.539641e-08    4.557431e-11    2.377345e-08   -2.018125e+00
    8.527535e+00    7.884349e+02    2.985167e-01    1.601801e+07    2.529319e-08    4.412699e-11    2.364060e-08   -2.013125e+00
    8.670204e+00    8.084938e+02    2.859544e-01    1.566580e+07    2.518801e-08    4.272657e-11    2.350520e-08   -2.008125e+00
    8.815366e+00    8.287599e+02    2.737238e-01    1.531197e+07    2.508084e-08    4.137145e-11    2.336723e-08   -2.003125e+00
    8.962958e+00    8.492115e+02    2.618246e-01    1.495665e+07    2.497168e-08    4.006008e-11    2.322665e-08   -1.998125e+00
    9.112912e+00    8.698243e+02    2.502564e-01    1.460000e+07    2.486049e-08    3.879097e-11    2.308346e-08   -1.993125e+00
    9.265133e+00    8.905717e+02    2.390188e-01    1.424218e+07    2.474728e-08    3.756268e-11    2.293764e-08   -1.988125e+00
    9.419530e+00    9.114247e+02    2.281107e-01    1.388338e+07    2.463202e-08    3.637385e-11    2.278915e-08   -1.983125e+00
    9.575976e+00    9.323513e+02    2.175314e-01    1.352379e+07    2.451471e-08    3.522311e-11    2.263799e-08   -1.978125e+00
    9.734342e+00    9.533173e+02    2.072795e-01    1.316365e+07    2.439533e-08    3.410921e-11    2.248414e-08   -1.973125e+00
    9.894476e+00    9.742861e+02    1.973535e-01    1.280320e+07    2.427389e-08    3.303090e-11    2.232759e-08   -1.968125e+00
    1.005621e+01    9.952178e+02    1.877518e-01    1.244270e+07    2.415037e-08    3.198700e-11    2.216835e-08   -1.963125e+00
