# sky130 pfet_01v8 gm/ID Processed Lookup Table
# Corner: fs
# Temperature: 75C
# W = 2.0 um
# L = 0.54 um (540 nm)
# Columns: gm/id [1/V]  gm/gds [V/V]  id/W [A/m]  ft [Hz]  Cgg/W [F/m]  Cgd/W [F/m]  Cgs/W [F/m]  Vov [V]
#         gm/id          gm/gds            id/W              ft           Cgg/W           Cgd/W           Cgs/W             Vov
    1.338954e+00    1.667601e+00    4.371766e+01    2.632968e+09    3.538322e-09    3.281830e-10    3.240095e-09   -2.648457e+00
    1.351651e+00    1.696718e+00    4.342459e+01    2.644069e+09    3.533034e-09    3.201059e-10    3.241550e-09   -2.643457e+00
    1.364528e+00    1.726707e+00    4.313072e+01    2.655137e+09    3.527786e-09    3.121319e-10    3.242944e-09   -2.638457e+00
    1.377585e+00    1.757605e+00    4.283606e+01    2.666167e+09    3.522578e-09    3.042641e-10    3.244278e-09   -2.633457e+00
    1.390829e+00    1.789452e+00    4.254061e+01    2.677159e+09    3.517413e-09    2.965052e-10    3.245549e-09   -2.628457e+00
    1.404260e+00    1.822289e+00    4.224439e+01    2.688103e+09    3.512293e-09    2.888578e-10    3.246758e-09   -2.623457e+00
    1.417883e+00    1.856160e+00    4.194740e+01    2.698999e+09    3.507218e-09    2.813242e-10    3.247903e-09   -2.618457e+00
    1.431703e+00    1.891114e+00    4.164963e+01    2.709845e+09    3.502191e-09    2.739069e-10    3.248984e-09   -2.613457e+00
    1.445721e+00    1.927197e+00    4.135110e+01    2.720631e+09    3.497212e-09    2.666076e-10    3.250000e-09   -2.608457e+00
    1.459943e+00    1.964464e+00    4.105181e+01    2.731360e+09    3.492283e-09    2.594285e-10    3.250952e-09   -2.603457e+00
    1.474372e+00    2.002968e+00    4.075177e+01    2.742023e+09    3.487405e-09    2.523712e-10    3.251838e-09   -2.598457e+00
    1.489011e+00    2.042769e+00    4.045097e+01    2.752619e+09    3.482579e-09    2.454373e-10    3.252659e-09   -2.593457e+00
    1.503865e+00    2.083929e+00    4.014945e+01    2.763142e+09    3.477806e-09    2.386280e-10    3.253413e-09   -2.588457e+00
    1.518935e+00    2.126508e+00    3.984719e+01    2.773585e+09    3.473087e-09    2.319446e-10    3.254101e-09   -2.583457e+00
    1.534229e+00    2.170581e+00    3.954420e+01    2.783948e+09    3.468423e-09    2.253881e-10    3.254723e-09   -2.578457e+00
    1.549749e+00    2.216220e+00    3.924049e+01    2.794225e+09    3.463813e-09    2.189591e-10    3.255279e-09   -2.573457e+00
    1.565497e+00    2.263497e+00    3.893607e+01    2.804409e+09    3.459260e-09    2.126585e-10    3.255769e-09   -2.568457e+00
    1.581478e+00    2.312498e+00    3.863095e+01    2.814495e+09    3.454762e-09    2.064866e-10    3.256192e-09   -2.563457e+00
    1.597697e+00    2.363308e+00    3.832514e+01    2.824481e+09    3.450321e-09    2.004436e-10    3.256549e-09   -2.558457e+00
    1.614157e+00    2.416020e+00    3.801863e+01    2.834361e+09    3.445937e-09    1.945296e-10    3.256839e-09   -2.553457e+00
    1.630863e+00    2.470730e+00    3.771146e+01    2.844128e+09    3.441610e-09    1.887447e-10    3.257065e-09   -2.548457e+00
    1.647815e+00    2.527539e+00    3.740362e+01    2.853776e+09    3.437338e-09    1.830884e-10    3.257226e-09   -2.543457e+00
    1.665020e+00    2.586555e+00    3.709511e+01    2.863299e+09    3.433125e-09    1.775604e-10    3.257321e-09   -2.538457e+00
    1.682481e+00    2.647897e+00    3.678598e+01    2.872694e+09    3.428967e-09    1.721603e-10    3.257350e-09   -2.533457e+00
    1.700200e+00    2.711682e+00    3.647621e+01    2.881950e+09    3.424865e-09    1.668872e-10    3.257317e-09   -2.528457e+00
    1.718182e+00    2.778039e+00    3.616582e+01    2.891062e+09    3.420820e-09    1.617403e-10    3.257218e-09   -2.523457e+00
    1.736431e+00    2.847108e+00    3.585482e+01    2.900026e+09    3.416829e-09    1.567187e-10    3.257058e-09   -2.518457e+00
    1.754946e+00    2.919025e+00    3.554322e+01    2.908828e+09    3.412894e-09    1.518212e-10    3.256833e-09   -2.513457e+00
    1.773735e+00    2.993949e+00    3.523105e+01    2.917467e+09    3.409012e-09    1.470467e-10    3.256547e-09   -2.508457e+00
    1.792796e+00    3.072035e+00    3.491833e+01    2.925930e+09    3.405184e-09    1.423936e-10    3.256198e-09   -2.503457e+00
    1.812136e+00    3.153454e+00    3.460505e+01    2.934212e+09    3.401409e-09    1.378608e-10    3.255788e-09   -2.498457e+00
    1.831755e+00    3.238384e+00    3.429124e+01    2.942304e+09    3.397685e-09    1.334466e-10    3.255319e-09   -2.493457e+00
    1.851654e+00    3.327009e+00    3.397692e+01    2.950194e+09    3.394012e-09    1.291494e-10    3.254788e-09   -2.488457e+00
    1.871836e+00    3.419528e+00    3.366211e+01    2.957874e+09    3.390389e-09    1.249674e-10    3.254198e-09   -2.483457e+00
    1.892303e+00    3.516148e+00    3.334683e+01    2.965336e+09    3.386815e-09    1.208990e-10    3.253550e-09   -2.478457e+00
    1.913055e+00    3.617082e+00    3.303110e+01    2.972566e+09    3.383289e-09    1.169423e-10    3.252843e-09   -2.473457e+00
    1.934092e+00    3.722557e+00    3.271494e+01    2.979554e+09    3.379808e-09    1.130953e-10    3.252078e-09   -2.468457e+00
    1.955417e+00    3.832810e+00    3.239837e+01    2.986290e+09    3.376373e-09    1.093560e-10    3.251256e-09   -2.463457e+00
    1.977026e+00    3.948083e+00    3.208142e+01    2.992761e+09    3.372983e-09    1.057226e-10    3.250378e-09   -2.458457e+00
    1.998922e+00    4.068635e+00    3.176412e+01    2.998956e+09    3.369634e-09    1.021929e-10    3.249444e-09   -2.453457e+00
    2.021103e+00    4.194727e+00    3.144649e+01    3.004861e+09    3.366328e-09    9.876480e-11    3.248454e-09   -2.448457e+00
    2.043569e+00    4.326635e+00    3.112856e+01    3.010465e+09    3.363061e-09    9.543630e-11    3.247410e-09   -2.443457e+00
    2.066314e+00    4.464633e+00    3.081037e+01    3.015752e+09    3.359833e-09    9.220525e-11    3.246311e-09   -2.438457e+00
    2.089341e+00    4.609012e+00    3.049193e+01    3.020713e+09    3.356642e-09    8.906950e-11    3.245159e-09   -2.433457e+00
    2.112646e+00    4.760068e+00    3.017330e+01    3.025332e+09    3.353486e-09    8.602685e-11    3.243954e-09   -2.428457e+00
    2.136225e+00    4.918090e+00    2.985449e+01    3.029595e+09    3.350366e-09    8.307515e-11    3.242695e-09   -2.423457e+00
    2.160073e+00    5.083381e+00    2.953555e+01    3.033486e+09    3.347278e-09    8.021230e-11    3.241385e-09   -2.418457e+00
    2.184191e+00    5.256248e+00    2.921651e+01    3.036997e+09    3.344220e-09    7.743610e-11    3.240022e-09   -2.413457e+00
    2.208571e+00    5.436979e+00    2.889742e+01    3.040108e+09    3.341193e-09    7.474440e-11    3.238608e-09   -2.408457e+00
    2.233212e+00    5.625881e+00    2.857831e+01    3.042811e+09    3.338193e-09    7.213505e-11    3.237142e-09   -2.403457e+00
    2.258108e+00    5.823243e+00    2.825922e+01    3.045092e+09    3.335220e-09    6.960600e-11    3.235626e-09   -2.398457e+00
    2.283254e+00    6.029343e+00    2.794020e+01    3.046936e+09    3.332272e-09    6.715510e-11    3.234059e-09   -2.393457e+00
    2.308647e+00    6.244463e+00    2.762129e+01    3.048334e+09    3.329347e-09    6.478025e-11    3.232442e-09   -2.388457e+00
    2.334283e+00    6.468856e+00    2.730254e+01    3.049274e+09    3.326444e-09    6.247940e-11    3.230774e-09   -2.383457e+00
    2.360157e+00    6.702764e+00    2.698399e+01    3.049745e+09    3.323561e-09    6.025055e-11    3.229057e-09   -2.378457e+00
    2.386265e+00    6.946409e+00    2.666568e+01    3.049737e+09    3.320697e-09    5.809165e-11    3.227290e-09   -2.373457e+00
    2.412607e+00    7.200000e+00    2.634769e+01    3.049246e+09    3.317849e-09    5.600080e-11    3.225474e-09   -2.368457e+00
    2.439175e+00    7.463705e+00    2.603004e+01    3.048260e+09    3.315017e-09    5.397600e-11    3.223607e-09   -2.363457e+00
    2.465968e+00    7.737677e+00    2.571279e+01    3.046775e+09    3.312198e-09    5.201535e-11    3.221691e-09   -2.358457e+00
    2.492985e+00    8.022037e+00    2.539599e+01    3.044785e+09    3.309392e-09    5.011700e-11    3.219726e-09   -2.353457e+00
    2.520225e+00    8.316879e+00    2.507969e+01    3.042289e+09    3.306595e-09    4.827910e-11    3.217711e-09   -2.348457e+00
    2.547687e+00    8.622253e+00    2.476394e+01    3.039283e+09    3.303808e-09    4.649987e-11    3.215646e-09   -2.343457e+00
    2.575370e+00    8.938193e+00    2.444880e+01    3.035765e+09    3.301028e-09    4.477755e-11    3.213531e-09   -2.338457e+00
    2.603280e+00    9.264696e+00    2.413431e+01    3.031740e+09    3.298252e-09    4.311041e-11    3.211366e-09   -2.333457e+00
    2.631413e+00    9.601704e+00    2.382053e+01    3.027204e+09    3.295482e-09    4.149677e-11    3.209151e-09   -2.328457e+00
    2.659778e+00    9.949176e+00    2.350751e+01    3.022165e+09    3.292713e-09    3.993501e-11    3.206886e-09   -2.323457e+00
    2.688374e+00    1.030699e+01    2.319530e+01    3.016624e+09    3.289945e-09    3.842350e-11    3.204569e-09   -2.318457e+00
    2.717210e+00    1.067502e+01    2.288395e+01    3.010589e+09    3.287176e-09    3.696069e-11    3.202202e-09   -2.313457e+00
    2.746292e+00    1.105314e+01    2.257351e+01    3.004065e+09    3.284404e-09    3.554507e-11    3.199783e-09   -2.308457e+00
    2.775625e+00    1.144113e+01    2.226403e+01    2.997059e+09    3.281628e-09    3.417514e-11    3.197311e-09   -2.303457e+00
    2.805217e+00    1.183883e+01    2.195556e+01    2.989579e+09    3.278846e-09    3.284946e-11    3.194787e-09   -2.298457e+00
    2.835079e+00    1.224603e+01    2.164814e+01    2.981636e+09    3.276056e-09    3.156664e-11    3.192210e-09   -2.293457e+00
    2.865220e+00    1.266249e+01    2.134183e+01    2.973238e+09    3.273257e-09    3.032530e-11    3.189580e-09   -2.288457e+00
    2.895648e+00    1.308797e+01    2.103667e+01    2.964393e+09    3.270448e-09    2.912412e-11    3.186895e-09   -2.283457e+00
    2.926380e+00    1.352227e+01    2.073270e+01    2.955115e+09    3.267625e-09    2.796182e-11    3.184155e-09   -2.278457e+00
    2.957423e+00    1.396513e+01    2.042997e+01    2.945413e+09    3.264788e-09    2.683714e-11    3.181359e-09   -2.273457e+00
    2.988790e+00    1.441630e+01    2.012852e+01    2.935296e+09    3.261936e-09    2.574886e-11    3.178507e-09   -2.268457e+00
    3.020499e+00    1.487558e+01    1.982838e+01    2.924779e+09    3.259065e-09    2.469582e-11    3.175598e-09   -2.263457e+00
    3.052560e+00    1.534273e+01    1.952961e+01    2.913869e+09    3.256176e-09    2.367685e-11    3.172630e-09   -2.258457e+00
    3.084986e+00    1.581753e+01    1.923224e+01    2.902578e+09    3.253265e-09    2.269088e-11    3.169604e-09   -2.253457e+00
    3.117796e+00    1.629979e+01    1.893631e+01    2.890916e+09    3.250331e-09    2.173681e-11    3.166517e-09   -2.248457e+00
    3.151006e+00    1.678933e+01    1.864185e+01    2.878898e+09    3.247374e-09    2.081361e-11    3.163369e-09   -2.243457e+00
    3.184627e+00    1.728596e+01    1.834892e+01    2.866528e+09    3.244389e-09    1.992026e-11    3.160159e-09   -2.238457e+00
    3.218680e+00    1.778955e+01    1.805753e+01    2.853820e+09    3.241377e-09    1.905580e-11    3.156886e-09   -2.233457e+00
    3.253181e+00    1.829997e+01    1.776772e+01    2.840784e+09    3.238335e-09    1.821929e-11    3.153548e-09   -2.228457e+00
    3.288148e+00    1.881709e+01    1.747952e+01    2.827428e+09    3.235262e-09    1.740979e-11    3.150144e-09   -2.223457e+00
    3.323597e+00    1.934082e+01    1.719297e+01    2.813761e+09    3.232155e-09    1.662645e-11    3.146674e-09   -2.218457e+00
    3.359543e+00    1.987107e+01    1.690810e+01    2.799790e+09    3.229013e-09    1.586839e-11    3.143134e-09   -2.213457e+00
    3.396011e+00    2.040782e+01    1.662495e+01    2.785528e+09    3.225834e-09    1.513480e-11    3.139526e-09   -2.208457e+00
    3.433016e+00    2.095100e+01    1.634353e+01    2.770980e+09    3.222615e-09    1.442487e-11    3.135846e-09   -2.203457e+00
    3.470578e+00    2.150061e+01    1.606388e+01    2.756153e+09    3.219357e-09    1.373783e-11    3.132094e-09   -2.198457e+00
    3.508716e+00    2.205664e+01    1.578603e+01    2.741055e+09    3.216056e-09    1.307293e-11    3.128267e-09   -2.193457e+00
    3.547452e+00    2.261913e+01    1.551000e+01    2.725695e+09    3.212709e-09    1.242945e-11    3.124365e-09   -2.188457e+00
    3.586805e+00    2.318809e+01    1.523583e+01    2.710076e+09    3.209317e-09    1.180670e-11    3.120385e-09   -2.183457e+00
    3.626795e+00    2.376356e+01    1.496353e+01    2.694204e+09    3.205875e-09    1.120400e-11    3.116325e-09   -2.178457e+00
    3.667443e+00    2.434563e+01    1.469314e+01    2.678087e+09    3.202384e-09    1.062070e-11    3.112185e-09   -2.173457e+00
    3.708772e+00    2.493438e+01    1.442468e+01    2.661730e+09    3.198839e-09    1.005618e-11    3.107961e-09   -2.168457e+00
    3.750803e+00    2.552987e+01    1.415817e+01    2.645136e+09    3.195240e-09    9.509810e-12    3.103653e-09   -2.163457e+00
    3.793563e+00    2.613227e+01    1.389364e+01    2.628314e+09    3.191584e-09    8.981030e-12    3.099258e-09   -2.158457e+00
    3.837067e+00    2.674162e+01    1.363112e+01    2.611262e+09    3.187869e-09    8.469265e-12    3.094775e-09   -2.153457e+00
    3.881347e+00    2.735811e+01    1.337062e+01    2.593990e+09    3.184093e-09    7.973965e-12    3.090200e-09   -2.148457e+00
    3.926424e+00    2.798184e+01    1.311216e+01    2.576498e+09    3.180254e-09    7.494605e-12    3.085532e-09   -2.143457e+00
    3.972321e+00    2.861297e+01    1.285579e+01    2.558791e+09    3.176349e-09    7.030680e-12    3.080770e-09   -2.138457e+00
    4.019067e+00    2.925166e+01    1.260149e+01    2.540872e+09    3.172376e-09    6.581700e-12    3.075909e-09   -2.133457e+00
    4.066682e+00    2.989805e+01    1.234933e+01    2.522742e+09    3.168334e-09    6.147185e-12    3.070948e-09   -2.128457e+00
    4.115201e+00    3.055234e+01    1.209929e+01    2.504406e+09    3.164219e-09    5.726680e-12    3.065886e-09   -2.123457e+00
    4.164646e+00    3.121469e+01    1.185143e+01    2.485866e+09    3.160029e-09    5.319750e-12    3.060719e-09   -2.118457e+00
    4.215046e+00    3.188529e+01    1.160574e+01    2.467123e+09    3.155763e-09    4.925962e-12    3.055444e-09   -2.113457e+00
    4.266432e+00    3.256432e+01    1.136224e+01    2.448180e+09    3.151416e-09    4.544911e-12    3.050060e-09   -2.108457e+00
    4.318831e+00    3.325199e+01    1.112098e+01    2.429039e+09    3.146987e-09    4.176200e-12    3.044563e-09   -2.103457e+00
    4.372276e+00    3.394848e+01    1.088196e+01    2.409700e+09    3.142474e-09    3.819447e-12    3.038950e-09   -2.098457e+00
    4.426796e+00    3.465398e+01    1.064520e+01    2.390165e+09    3.137874e-09    3.474285e-12    3.033220e-09   -2.093457e+00
    4.482423e+00    3.536872e+01    1.041072e+01    2.370434e+09    3.133184e-09    3.140357e-12    3.027368e-09   -2.088457e+00
    4.539191e+00    3.609289e+01    1.017855e+01    2.350510e+09    3.128401e-09    2.817323e-12    3.021393e-09   -2.083457e+00
    4.597132e+00    3.682669e+01    9.948705e+00    2.330392e+09    3.123523e-09    2.504851e-12    3.015291e-09   -2.078457e+00
    4.656283e+00    3.757033e+01    9.721200e+00    2.310080e+09    3.118547e-09    2.202625e-12    3.009059e-09   -2.073457e+00
    4.716676e+00    3.832404e+01    9.496065e+00    2.289575e+09    3.113472e-09    1.910337e-12    3.002693e-09   -2.068457e+00
    4.778350e+00    3.908801e+01    9.273310e+00    2.268878e+09    3.108292e-09    1.627690e-12    2.996193e-09   -2.063457e+00
    4.841341e+00    3.986243e+01    9.052960e+00    2.247987e+09    3.103007e-09    1.354400e-12    2.989551e-09   -2.058457e+00
    4.905688e+00    4.064754e+01    8.835030e+00    2.226902e+09    3.097612e-09    1.090193e-12    2.982768e-09   -2.053457e+00
    4.971428e+00    4.144353e+01    8.619545e+00    2.205624e+09    3.092105e-09    8.348020e-13    2.975839e-09   -2.048457e+00
    5.038600e+00    4.225062e+01    8.406525e+00    2.184151e+09    3.086483e-09    5.879730e-13    2.968759e-09   -2.043457e+00
    5.107250e+00    4.306898e+01    8.195980e+00    2.162482e+09    3.080744e-09    3.494590e-13    2.961527e-09   -2.038457e+00
    5.177412e+00    4.389879e+01    7.987940e+00    2.140618e+09    3.074883e-09    1.190232e-13    2.954137e-09   -2.033457e+00
    5.249133e+00    4.474030e+01    7.782420e+00    2.118556e+09    3.068898e-09    1.035635e-13    2.946589e-09   -2.028457e+00
    5.322456e+00    4.559364e+01    7.579435e+00    2.096295e+09    3.062786e-09    3.185215e-13    2.938875e-09   -2.023457e+00
    5.397420e+00    4.645899e+01    7.379015e+00    2.073835e+09    3.056544e-09    5.260635e-13    2.930994e-09   -2.018457e+00
    5.474079e+00    4.733656e+01    7.181165e+00    2.051173e+09    3.050168e-09    7.263935e-13    2.922942e-09   -2.013457e+00
    5.552470e+00    4.822644e+01    6.985915e+00    2.028309e+09    3.043656e-09    9.197100e-13    2.914714e-09   -2.008457e+00
    5.632636e+00    4.912885e+01    6.793285e+00    2.005240e+09    3.037004e-09    1.106203e-12    2.906308e-09   -2.003457e+00
    5.714638e+00    5.004387e+01    6.603280e+00    1.981965e+09    3.030208e-09    1.286054e-12    2.897718e-09   -1.998457e+00
    5.798508e+00    5.097164e+01    6.415935e+00    1.958483e+09    3.023268e-09    1.459443e-12    2.888941e-09   -1.993457e+00
    5.884299e+00    5.191227e+01    6.231260e+00    1.934791e+09    3.016176e-09    1.626538e-12    2.879973e-09   -1.988457e+00
    5.972059e+00    5.286586e+01    6.049275e+00    1.910888e+09    3.008932e-09    1.787503e-12    2.870810e-09   -1.983457e+00
    6.061834e+00    5.383247e+01    5.870000e+00    1.886771e+09    3.001532e-09    1.942497e-12    2.861448e-09   -1.978457e+00
    6.153674e+00    5.481212e+01    5.693450e+00    1.862440e+09    2.993972e-09    2.091671e-12    2.851883e-09   -1.973457e+00
    6.247619e+00    5.580491e+01    5.519650e+00    1.837893e+09    2.986250e-09    2.235174e-12    2.842110e-09   -1.968457e+00
    6.343725e+00    5.681076e+01    5.348610e+00    1.813126e+09    2.978361e-09    2.373147e-12    2.832127e-09   -1.963457e+00
    6.442031e+00    5.782978e+01    5.180355e+00    1.788141e+09    2.970303e-09    2.505725e-12    2.821928e-09   -1.958457e+00
    6.542589e+00    5.886175e+01    5.014895e+00    1.762934e+09    2.962072e-09    2.633041e-12    2.811509e-09   -1.953457e+00
    6.645433e+00    5.990675e+01    4.852257e+00    1.737505e+09    2.953664e-09    2.755222e-12    2.800866e-09   -1.948457e+00
    6.750616e+00    6.096458e+01    4.692449e+00    1.711853e+09    2.945078e-09    2.872389e-12    2.789995e-09   -1.943457e+00
    6.858173e+00    6.203513e+01    4.535493e+00    1.685976e+09    2.936309e-09    2.984661e-12    2.778892e-09   -1.938457e+00
    6.968144e+00    6.311819e+01    4.381403e+00    1.659875e+09    2.927353e-09    3.092153e-12    2.767553e-09   -1.933457e+00
    7.080565e+00    6.421354e+01    4.230195e+00    1.633549e+09    2.918209e-09    3.194972e-12    2.755974e-09   -1.928457e+00
    7.195469e+00    6.532090e+01    4.081886e+00    1.606998e+09    2.908873e-09    3.293227e-12    2.744151e-09   -1.923457e+00
    7.312886e+00    6.643996e+01    3.936489e+00    1.580225e+09    2.899340e-09    3.387019e-12    2.732079e-09   -1.918457e+00
    7.432843e+00    6.757036e+01    3.794020e+00    1.553229e+09    2.889610e-09    3.476447e-12    2.719755e-09   -1.913457e+00
    7.555359e+00    6.871166e+01    3.654490e+00    1.526012e+09    2.879679e-09    3.561606e-12    2.707175e-09   -1.908457e+00
    7.680449e+00    6.986339e+01    3.517914e+00    1.498578e+09    2.869542e-09    3.642588e-12    2.694336e-09   -1.903457e+00
    7.808126e+00    7.102502e+01    3.384303e+00    1.470929e+09    2.859200e-09    3.719484e-12    2.681233e-09   -1.898457e+00
    7.938394e+00    7.219594e+01    3.253667e+00    1.443069e+09    2.848647e-09    3.792380e-12    2.667862e-09   -1.893457e+00
