# sky130 pfet_01v8 gm/ID Processed Lookup Table
# Corner: fs
# Temperature: 75C
# W = 2.0 um
# L = 1.8 um (1800 nm)
# Columns: gm/id [1/V]  gm/gds [V/V]  id/W [A/m]  ft [Hz]  Cgg/W [F/m]  Cgd/W [F/m]  Cgs/W [F/m]  Vov [V]
#         gm/id          gm/gds            id/W              ft           Cgg/W           Cgd/W           Cgs/W             Vov
    1.532749e+00    2.231130e+00    1.244065e+01    2.475406e+08    1.225992e-08    1.677879e-09    1.067569e-08   -2.699176e+00
    1.547780e+00    2.278592e+00    1.234521e+01    2.485485e+08    1.223536e-08    1.641560e-09    1.068226e-08   -2.694176e+00
    1.563034e+00    2.327831e+00    1.224957e+01    2.495543e+08    1.221081e-08    1.605427e-09    1.068865e-08   -2.689176e+00
    1.578516e+00    2.378943e+00    1.215375e+01    2.505574e+08    1.218631e-08    1.569500e-09    1.069483e-08   -2.684176e+00
    1.594229e+00    2.432030e+00    1.205772e+01    2.515574e+08    1.216184e-08    1.533800e-09    1.070081e-08   -2.679176e+00
    1.610179e+00    2.487198e+00    1.196152e+01    2.525534e+08    1.213744e-08    1.498347e-09    1.070658e-08   -2.674176e+00
    1.626366e+00    2.544560e+00    1.186512e+01    2.535451e+08    1.211311e-08    1.463161e-09    1.071213e-08   -2.669176e+00
    1.642798e+00    2.604240e+00    1.176855e+01    2.545315e+08    1.208886e-08    1.428262e-09    1.071746e-08   -2.664176e+00
    1.659476e+00    2.666368e+00    1.167179e+01    2.555122e+08    1.206471e-08    1.393670e-09    1.076593e-08   -2.659176e+00
    1.676406e+00    2.731081e+00    1.157486e+01    2.564862e+08    1.204068e-08    1.359404e-09    1.076963e-08   -2.654176e+00
    1.693589e+00    2.798529e+00    1.147775e+01    2.574528e+08    1.201676e-08    1.325483e-09    1.077311e-08   -2.649176e+00
    1.711031e+00    2.868868e+00    1.138048e+01    2.584111e+08    1.199298e-08    1.291927e-09    1.077638e-08   -2.644176e+00
    1.728734e+00    2.942271e+00    1.128303e+01    2.593605e+08    1.196934e-08    1.258754e-09    1.077942e-08   -2.639176e+00
    1.746703e+00    3.018914e+00    1.118542e+01    2.603000e+08    1.194586e-08    1.225979e-09    1.078223e-08   -2.634176e+00
    1.764940e+00    3.098994e+00    1.108766e+01    2.612285e+08    1.192255e-08    1.193622e-09    1.078482e-08   -2.629176e+00
    1.783449e+00    3.182715e+00    1.098973e+01    2.621452e+08    1.189942e-08    1.161698e-09    1.078717e-08   -2.624176e+00
    1.802231e+00    3.270297e+00    1.089166e+01    2.630492e+08    1.187648e-08    1.130223e-09    1.078927e-08   -2.619176e+00
    1.821291e+00    3.361977e+00    1.079344e+01    2.639393e+08    1.185374e-08    1.099211e-09    1.079115e-08   -2.614176e+00
    1.840631e+00    3.458005e+00    1.069508e+01    2.648145e+08    1.183121e-08    1.068676e-09    1.079278e-08   -2.609176e+00
    1.860252e+00    3.558652e+00    1.059659e+01    2.656737e+08    1.180890e-08    1.038633e-09    1.079416e-08   -2.604176e+00
    1.880157e+00    3.664202e+00    1.049796e+01    2.665156e+08    1.178682e-08    1.009091e-09    1.079529e-08   -2.599176e+00
    1.900347e+00    3.774967e+00    1.039921e+01    2.673392e+08    1.176497e-08    9.800645e-10    1.079617e-08   -2.594176e+00
    1.920823e+00    3.891268e+00    1.030034e+01    2.681432e+08    1.174336e-08    9.515615e-10    1.079679e-08   -2.589176e+00
    1.941587e+00    4.013459e+00    1.020136e+01    2.689263e+08    1.172201e-08    9.235925e-10    1.079717e-08   -2.584176e+00
    1.962639e+00    4.141909e+00    1.010228e+01    2.696872e+08    1.170090e-08    8.961645e-10    1.079729e-08   -2.579176e+00
    1.983979e+00    4.277015e+00    1.000309e+01    2.704245e+08    1.168007e-08    8.692860e-10    1.079716e-08   -2.574176e+00
    2.005606e+00    4.419198e+00    9.903820e+00    2.711368e+08    1.165950e-08    8.429620e-10    1.079677e-08   -2.569176e+00
    2.027521e+00    4.568908e+00    9.804460e+00    2.718229e+08    1.163920e-08    8.171985e-10    1.079612e-08   -2.564176e+00
    2.049720e+00    4.726619e+00    9.705035e+00    2.724811e+08    1.161918e-08    7.919990e-10    1.079522e-08   -2.559176e+00
    2.072203e+00    4.892837e+00    9.605540e+00    2.731101e+08    1.159942e-08    7.673665e-10    1.079407e-08   -2.554176e+00
    2.094968e+00    5.068098e+00    9.505990e+00    2.737083e+08    1.157996e-08    7.433035e-10    1.079266e-08   -2.549176e+00
    2.118012e+00    5.252966e+00    9.406395e+00    2.742742e+08    1.156077e-08    7.198110e-10    1.079100e-08   -2.544176e+00
    2.141331e+00    5.448038e+00    9.306765e+00    2.748064e+08    1.154186e-08    6.968885e-10    1.078909e-08   -2.539176e+00
    2.164921e+00    5.653942e+00    9.207110e+00    2.753030e+08    1.152324e-08    6.745360e-10    1.078692e-08   -2.534176e+00
    2.188780e+00    5.871343e+00    9.107440e+00    2.757630e+08    1.150490e-08    6.527515e-10    1.078451e-08   -2.529176e+00
    2.212902e+00    6.100932e+00    9.007770e+00    2.761844e+08    1.148684e-08    6.315315e-10    1.078185e-08   -2.524176e+00
    2.237281e+00    6.343438e+00    8.908115e+00    2.765661e+08    1.146905e-08    6.108740e-10    1.077895e-08   -2.519176e+00
    2.261915e+00    6.599619e+00    8.808475e+00    2.769065e+08    1.145155e-08    5.907735e-10    1.077579e-08   -2.514176e+00
    2.286798e+00    6.870267e+00    8.708875e+00    2.772042e+08    1.143431e-08    5.712255e-10    1.077240e-08   -2.509176e+00
    2.311922e+00    7.156201e+00    8.609325e+00    2.774577e+08    1.141736e-08    5.522245e-10    1.076877e-08   -2.504176e+00
    2.337283e+00    7.458274e+00    8.509840e+00    2.776661e+08    1.140066e-08    5.337640e-10    1.076490e-08   -2.499176e+00
    2.362875e+00    7.777364e+00    8.410435e+00    2.778280e+08    1.138423e-08    5.158370e-10    1.076080e-08   -2.494176e+00
    2.388695e+00    8.114374e+00    8.311120e+00    2.779421e+08    1.136805e-08    4.984360e-10    1.075646e-08   -2.489176e+00
    2.414737e+00    8.470232e+00    8.211910e+00    2.780076e+08    1.135213e-08    4.815528e-10    1.075189e-08   -2.484176e+00
    2.440994e+00    8.845886e+00    8.112825e+00    2.780237e+08    1.133646e-08    4.651791e-10    1.074708e-08   -2.479176e+00
    2.467464e+00    9.242300e+00    8.013880e+00    2.779894e+08    1.132102e-08    4.493060e-10    1.074206e-08   -2.474176e+00
    2.494140e+00    9.660454e+00    7.915095e+00    2.779041e+08    1.130582e-08    4.339241e-10    1.073680e-08   -2.469176e+00
    2.521023e+00    1.010134e+01    7.816475e+00    2.777675e+08    1.129085e-08    4.190238e-10    1.073133e-08   -2.464176e+00
    2.548108e+00    1.056596e+01    7.718045e+00    2.775790e+08    1.127610e-08    4.045952e-10    1.072563e-08   -2.459176e+00
    2.575395e+00    1.105530e+01    7.619815e+00    2.773383e+08    1.126156e-08    3.906282e-10    1.071972e-08   -2.454176e+00
    2.602881e+00    1.157038e+01    7.521810e+00    2.770457e+08    1.124723e-08    3.771124e-10    1.071359e-08   -2.449176e+00
    2.630568e+00    1.211219e+01    7.424035e+00    2.767007e+08    1.123310e-08    3.640373e-10    1.070723e-08   -2.444176e+00
    2.658454e+00    1.268172e+01    7.326520e+00    2.763040e+08    1.121915e-08    3.513925e-10    1.070067e-08   -2.439176e+00
    2.686546e+00    1.327994e+01    7.229270e+00    2.758556e+08    1.120539e-08    3.391670e-10    1.069390e-08   -2.434176e+00
    2.714843e+00    1.390783e+01    7.132305e+00    2.753561e+08    1.119180e-08    3.273502e-10    1.068691e-08   -2.429176e+00
    2.743349e+00    1.456632e+01    7.035645e+00    2.748059e+08    1.117839e-08    3.159312e-10    1.067971e-08   -2.424176e+00
    2.772071e+00    1.525634e+01    6.939300e+00    2.742058e+08    1.116513e-08    3.048994e-10    1.067230e-08   -2.419176e+00
    2.801014e+00    1.597880e+01    6.843290e+00    2.735566e+08    1.115201e-08    2.942440e-10    1.066468e-08   -2.414176e+00
    2.830186e+00    1.673458e+01    6.747625e+00    2.728590e+08    1.113904e-08    2.839542e-10    1.065686e-08   -2.409176e+00
    2.859597e+00    1.752454e+01    6.652320e+00    2.721144e+08    1.112619e-08    2.740194e-10    1.064882e-08   -2.404176e+00
    2.889250e+00    1.834949e+01    6.557400e+00    2.713232e+08    1.111348e-08    2.644293e-10    1.064058e-08   -2.399176e+00
    2.919161e+00    1.921024e+01    6.462865e+00    2.704869e+08    1.110087e-08    2.551733e-10    1.063213e-08   -2.394176e+00
    2.949336e+00    2.010755e+01    6.368740e+00    2.696064e+08    1.108837e-08    2.462414e-10    1.062347e-08   -2.389176e+00
    2.979789e+00    2.104219e+01    6.275035e+00    2.686829e+08    1.107597e-08    2.376233e-10    1.061460e-08   -2.384176e+00
    3.010531e+00    2.201487e+01    6.181765e+00    2.677178e+08    1.106365e-08    2.293091e-10    1.060553e-08   -2.379176e+00
    3.041578e+00    2.302628e+01    6.088935e+00    2.667121e+08    1.105141e-08    2.212893e-10    1.059624e-08   -2.374176e+00
    3.072938e+00    2.407710e+01    5.996570e+00    2.656670e+08    1.103924e-08    2.135539e-10    1.058675e-08   -2.369176e+00
    3.104630e+00    2.516800e+01    5.904670e+00    2.645836e+08    1.102714e-08    2.060940e-10    1.057705e-08   -2.364176e+00
    3.136666e+00    2.629957e+01    5.813255e+00    2.634634e+08    1.101508e-08    1.989002e-10    1.056712e-08   -2.359176e+00
    3.169064e+00    2.747248e+01    5.722330e+00    2.623074e+08    1.100306e-08    1.919636e-10    1.055699e-08   -2.354176e+00
    3.201835e+00    2.868729e+01    5.631915e+00    2.611168e+08    1.099108e-08    1.852755e-10    1.054664e-08   -2.349176e+00
    3.235000e+00    2.994463e+01    5.542010e+00    2.598927e+08    1.097913e-08    1.788273e-10    1.053607e-08   -2.344176e+00
    3.268575e+00    3.124505e+01    5.452630e+00    2.586363e+08    1.096719e-08    1.726108e-10    1.052529e-08   -2.339176e+00
    3.302572e+00    3.258917e+01    5.363790e+00    2.573486e+08    1.095525e-08    1.666180e-10    1.051427e-08   -2.334176e+00
    3.337014e+00    3.397753e+01    5.275490e+00    2.560307e+08    1.094332e-08    1.608410e-10    1.050303e-08   -2.329176e+00
    3.371915e+00    3.541077e+01    5.187750e+00    2.546837e+08    1.093137e-08    1.552721e-10    1.049157e-08   -2.324176e+00
    3.407295e+00    3.688941e+01    5.100570e+00    2.533084e+08    1.091941e-08    1.499039e-10    1.047987e-08   -2.319176e+00
    3.443174e+00    3.841408e+01    5.013960e+00    2.519058e+08    1.090741e-08    1.447294e-10    1.046793e-08   -2.314176e+00
    3.479568e+00    3.998539e+01    4.927932e+00    2.504769e+08    1.089539e-08    1.397414e-10    1.045575e-08   -2.309176e+00
    3.516498e+00    4.160395e+01    4.842493e+00    2.490224e+08    1.088331e-08    1.349334e-10    1.044334e-08   -2.304176e+00
    3.553984e+00    4.327039e+01    4.757649e+00    2.475433e+08    1.087118e-08    1.302987e-10    1.043067e-08   -2.299176e+00
    3.592044e+00    4.498537e+01    4.673409e+00    2.460402e+08    1.085899e-08    1.258312e-10    1.041776e-08   -2.294176e+00
    3.630700e+00    4.674956e+01    4.589780e+00    2.445140e+08    1.084673e-08    1.215245e-10    1.040459e-08   -2.289176e+00
    3.669973e+00    4.856367e+01    4.506770e+00    2.429654e+08    1.083438e-08    1.173729e-10    1.039116e-08   -2.284176e+00
    3.709884e+00    5.042842e+01    4.424385e+00    2.413949e+08    1.082194e-08    1.133707e-10    1.037747e-08   -2.279176e+00
    3.750455e+00    5.234459e+01    4.342633e+00    2.398032e+08    1.080942e-08    1.095123e-10    1.036350e-08   -2.274176e+00
    3.791709e+00    5.431297e+01    4.261519e+00    2.381911e+08    1.079678e-08    1.057925e-10    1.034926e-08   -2.269176e+00
    3.833667e+00    5.633435e+01    4.181051e+00    2.365589e+08    1.078402e-08    1.022060e-10    1.033473e-08   -2.264176e+00
    3.876353e+00    5.840962e+01    4.101234e+00    2.349072e+08    1.077114e-08    9.874795e-11    1.031993e-08   -2.259176e+00
    3.919791e+00    6.053966e+01    4.022075e+00    2.332364e+08    1.075813e-08    9.541365e-11    1.030482e-08   -2.254176e+00
    3.964006e+00    6.272545e+01    3.943579e+00    2.315472e+08    1.074498e-08    9.219840e-11    1.028942e-08   -2.249176e+00
    4.009022e+00    6.496792e+01    3.865753e+00    2.298399e+08    1.073167e-08    8.909775e-11    1.027371e-08   -2.244176e+00
    4.054866e+00    6.726815e+01    3.788601e+00    2.281149e+08    1.071820e-08    8.610750e-11    1.025768e-08   -2.239176e+00
    4.101561e+00    6.962716e+01    3.712131e+00    2.263726e+08    1.070456e-08    8.322355e-11    1.024134e-08   -2.234176e+00
    4.149138e+00    7.204613e+01    3.636348e+00    2.246133e+08    1.069075e-08    8.044185e-11    1.022466e-08   -2.229176e+00
    4.197621e+00    7.452617e+01    3.561256e+00    2.228373e+08    1.067674e-08    7.775860e-11    1.020765e-08   -2.224176e+00
    4.247041e+00    7.706853e+01    3.486862e+00    2.210450e+08    1.066254e-08    7.517020e-11    1.019030e-08   -2.219176e+00
    4.297425e+00    7.967445e+01    3.413170e+00    2.192364e+08    1.064814e-08    7.267305e-11    1.017260e-08   -2.214176e+00
    4.348804e+00    8.234530e+01    3.340185e+00    2.174122e+08    1.063351e-08    7.026375e-11    1.015454e-08   -2.209176e+00
    4.401207e+00    8.508241e+01    3.267914e+00    2.155722e+08    1.061866e-08    6.793900e-11    1.013611e-08   -2.204176e+00
    4.454667e+00    8.788725e+01    3.196359e+00    2.137168e+08    1.060358e-08    6.569575e-11    1.011730e-08   -2.199176e+00
    4.509216e+00    9.076128e+01    3.125528e+00    2.118460e+08    1.058825e-08    6.353090e-11    1.009811e-08   -2.194176e+00
    4.564885e+00    9.370606e+01    3.055424e+00    2.099602e+08    1.057267e-08    6.144150e-11    1.007852e-08   -2.189176e+00
    4.621711e+00    9.672324e+01    2.986053e+00    2.080595e+08    1.055682e-08    5.942485e-11    1.005853e-08   -2.184176e+00
    4.679727e+00    9.981441e+01    2.917419e+00    2.061438e+08    1.054070e-08    5.747815e-11    1.003812e-08   -2.179176e+00
    4.738969e+00    1.029813e+02    2.849527e+00    2.042133e+08    1.052429e-08    5.559885e-11    1.001728e-08   -2.174176e+00
    4.799471e+00    1.062258e+02    2.782383e+00    2.022680e+08    1.050759e-08    5.378450e-11    9.996020e-09   -2.169176e+00
    4.861275e+00    1.095496e+02    2.715989e+00    2.003082e+08    1.049059e-08    5.203260e-11    9.974310e-09   -2.164176e+00
    4.924418e+00    1.129546e+02    2.650352e+00    1.983337e+08    1.047327e-08    5.034095e-11    9.952145e-09   -2.159176e+00
    4.988936e+00    1.164429e+02    2.585476e+00    1.963445e+08    1.045562e-08    4.870730e-11    9.929510e-09   -2.154176e+00
    5.054873e+00    1.200165e+02    2.521366e+00    1.943408e+08    1.043764e-08    4.712950e-11    9.906400e-09   -2.149176e+00
    5.122271e+00    1.236774e+02    2.458026e+00    1.923224e+08    1.041932e-08    4.560552e-11    9.882795e-09   -2.144176e+00
    5.191171e+00    1.274278e+02    2.395460e+00    1.902895e+08    1.040063e-08    4.413339e-11    9.858695e-09   -2.139176e+00
    5.261613e+00    1.312698e+02    2.333675e+00    1.882418e+08    1.038158e-08    4.271121e-11    9.834080e-09   -2.134176e+00
    5.333646e+00    1.352058e+02    2.272673e+00    1.861793e+08    1.036215e-08    4.133718e-11    9.808945e-09   -2.129176e+00
    5.407314e+00    1.392380e+02    2.212460e+00    1.841021e+08    1.034233e-08    4.000953e-11    9.783270e-09   -2.124176e+00
    5.482659e+00    1.433687e+02    2.153040e+00    1.820099e+08    1.032211e-08    3.872658e-11    9.757045e-09   -2.119176e+00
    5.559731e+00    1.476005e+02    2.094418e+00    1.799028e+08    1.030148e-08    3.748673e-11    9.730255e-09   -2.114176e+00
    5.638579e+00    1.519355e+02    2.036598e+00    1.777805e+08    1.028042e-08    3.628842e-11    9.702895e-09   -2.109176e+00
    5.719247e+00    1.563766e+02    1.979584e+00    1.756430e+08    1.025893e-08    3.513014e-11    9.674945e-09   -2.104176e+00
    5.801788e+00    1.609261e+02    1.923382e+00    1.734902e+08    1.023700e-08    3.401047e-11    9.646395e-09   -2.099176e+00
    5.886247e+00    1.655863e+02    1.867995e+00    1.713219e+08    1.021460e-08    3.292803e-11    9.617230e-09   -2.094176e+00
    5.972678e+00    1.703602e+02    1.813428e+00    1.691381e+08    1.019174e-08    3.188148e-11    9.587435e-09   -2.089176e+00
    6.061128e+00    1.752501e+02    1.759687e+00    1.669385e+08    1.016840e-08    3.086956e-11    9.557000e-09   -2.084176e+00
    6.151650e+00    1.802586e+02    1.706773e+00    1.647230e+08    1.014456e-08    2.989102e-11    9.525910e-09   -2.079176e+00
    6.244294e+00    1.853884e+02    1.654693e+00    1.624916e+08    1.012022e-08    2.894468e-11    9.494150e-09   -2.074176e+00
    6.339107e+00    1.906417e+02    1.603451e+00    1.602439e+08    1.009537e-08    2.802942e-11    9.461710e-09   -2.069176e+00
    6.436145e+00    1.960215e+02    1.553050e+00    1.579801e+08    1.006999e-08    2.714414e-11    9.428570e-09   -2.064176e+00
    6.535450e+00    2.015297e+02    1.503496e+00    1.556998e+08    1.004407e-08    2.628778e-11    9.394720e-09   -2.059176e+00
    6.637081e+00    2.071692e+02    1.454791e+00    1.534031e+08    1.001760e-08    2.545934e-11    9.360145e-09   -2.054176e+00
    6.741075e+00    2.129420e+02    1.406941e+00    1.510897e+08    9.990570e-09    2.465784e-11    9.324830e-09   -2.049176e+00
    6.847482e+00    2.188503e+02    1.359950e+00    1.487597e+08    9.962965e-09    2.388234e-11    9.288765e-09   -2.044176e+00
    6.956352e+00    2.248964e+02    1.313820e+00    1.464129e+08    9.934780e-09    2.313195e-11    9.251930e-09   -2.039176e+00
    7.067719e+00    2.310820e+02    1.268557e+00    1.440494e+08    9.905995e-09    2.240579e-11    9.214310e-09   -2.034176e+00
    7.181631e+00    2.374089e+02    1.224163e+00    1.416690e+08    9.876605e-09    2.170304e-11    9.175895e-09   -2.029176e+00
    7.298121e+00    2.438786e+02    1.180643e+00    1.392720e+08    9.846595e-09    2.102288e-11    9.136675e-09   -2.024176e+00
    7.417222e+00    2.504925e+02    1.138000e+00    1.368582e+08    9.815960e-09    2.036454e-11    9.096630e-09   -2.019176e+00
    7.538965e+00    2.572515e+02    1.096236e+00    1.344279e+08    9.784680e-09    1.972728e-11    9.055745e-09   -2.014176e+00
    7.663376e+00    2.641564e+02    1.055356e+00    1.319812e+08    9.752755e-09    1.911039e-11    9.014010e-09   -2.009176e+00
    7.790480e+00    2.712076e+02    1.015361e+00    1.295183e+08    9.720165e-09    1.851316e-11    8.971415e-09   -2.004176e+00
    7.920282e+00    2.784049e+02    9.762550e-01    1.270396e+08    9.686905e-09    1.793494e-11    8.927940e-09   -1.999176e+00
    8.052796e+00    2.857479e+02    9.380400e-01    1.245453e+08    9.652965e-09    1.737508e-11    8.883575e-09   -1.994176e+00
    8.188022e+00    2.932356e+02    9.007175e-01    1.220360e+08    9.618335e-09    1.683298e-11    8.838310e-09   -1.989176e+00
    8.325954e+00    3.008666e+02    8.642895e-01    1.195120e+08    9.583010e-09    1.630803e-11    8.792135e-09   -1.984176e+00
    8.466572e+00    3.086386e+02    8.287575e-01    1.169741e+08    9.546970e-09    1.579966e-11    8.745030e-09   -1.979176e+00
    8.609849e+00    3.165489e+02    7.941225e-01    1.144228e+08    9.510220e-09    1.530732e-11    8.696990e-09   -1.974176e+00
    8.755761e+00    3.245942e+02    7.603845e-01    1.118591e+08    9.472745e-09    1.483048e-11    8.648005e-09   -1.969176e+00
    8.904233e+00    3.327698e+02    7.275450e-01    1.092839e+08    9.434535e-09    1.436862e-11    8.598060e-09   -1.964176e+00
    9.055228e+00    3.410711e+02    6.956020e-01    1.066980e+08    9.395590e-09    1.392125e-11    8.547150e-09   -1.959176e+00
    9.208660e+00    3.494921e+02    6.645560e-01    1.041028e+08    9.355900e-09    1.348790e-11    8.495270e-09   -1.954176e+00
    9.364436e+00    3.580258e+02    6.344050e-01    1.014996e+08    9.315455e-09    1.306810e-11    8.442400e-09   -1.949176e+00
    9.522463e+00    3.666646e+02    6.051470e-01    9.888970e+07    9.274260e-09    1.266142e-11    8.388540e-09   -1.944176e+00
