# sky130 pfet_01v8 gm/ID Processed Lookup Table
# Corner: fs
# Temperature: 75C
# W = 2.0 um
# L = 0.72 um (720 nm)
# Columns: gm/id [1/V]  gm/gds [V/V]  id/W [A/m]  ft [Hz]  Cgg/W [F/m]  Cgd/W [F/m]  Cgs/W [F/m]  Vov [V]
#         gm/id          gm/gds            id/W              ft           Cgg/W           Cgd/W           Cgs/W             Vov
    1.404416e+00    1.833306e+00    3.246813e+01    1.521385e+09    4.770171e-09    4.810465e-10    4.322382e-09   -2.668424e+00
    1.418154e+00    1.867991e+00    3.223983e+01    1.527923e+09    4.762498e-09    4.694481e-10    4.324355e-09   -2.663424e+00
    1.432089e+00    1.903804e+00    3.201092e+01    1.534437e+09    4.754878e-09    4.579873e-10    4.326247e-09   -2.658424e+00
    1.446225e+00    1.940798e+00    3.178141e+01    1.540925e+09    4.747312e-09    4.466689e-10    4.328056e-09   -2.653424e+00
    1.460566e+00    1.979030e+00    3.155129e+01    1.547384e+09    4.739802e-09    4.354973e-10    4.329781e-09   -2.648424e+00
    1.475115e+00    2.018559e+00    3.132058e+01    1.553812e+09    4.732354e-09    4.244770e-10    4.331421e-09   -2.643424e+00
    1.489876e+00    2.059447e+00    3.108928e+01    1.560206e+09    4.724968e-09    4.136119e-10    4.332974e-09   -2.638424e+00
    1.504853e+00    2.101761e+00    3.085739e+01    1.566563e+09    4.717648e-09    4.029061e-10    4.334440e-09   -2.633424e+00
    1.520050e+00    2.145572e+00    3.062492e+01    1.572881e+09    4.710394e-09    3.923631e-10    4.335817e-09   -2.628424e+00
    1.535470e+00    2.190954e+00    3.039188e+01    1.579155e+09    4.703211e-09    3.819864e-10    4.337105e-09   -2.623424e+00
    1.551119e+00    2.237988e+00    3.015827e+01    1.585383e+09    4.696099e-09    3.717790e-10    4.338302e-09   -2.618424e+00
    1.566999e+00    2.286757e+00    2.992409e+01    1.591563e+09    4.689061e-09    3.617437e-10    4.339409e-09   -2.613424e+00
    1.583114e+00    2.337351e+00    2.968936e+01    1.597690e+09    4.682099e-09    3.518832e-10    4.340425e-09   -2.608424e+00
    1.599469e+00    2.389866e+00    2.945408e+01    1.603762e+09    4.675213e-09    3.421998e-10    4.341350e-09   -2.603424e+00
    1.616068e+00    2.444401e+00    2.921825e+01    1.609775e+09    4.668407e-09    3.326954e-10    4.342182e-09   -2.598424e+00
    1.632913e+00    2.501066e+00    2.898189e+01    1.615725e+09    4.661680e-09    3.233717e-10    4.342922e-09   -2.593424e+00
    1.650010e+00    2.559973e+00    2.874501e+01    1.621609e+09    4.655035e-09    3.142303e-10    4.343570e-09   -2.588424e+00
    1.667362e+00    2.621245e+00    2.850760e+01    1.627423e+09    4.648471e-09    3.052723e-10    4.344126e-09   -2.583424e+00
    1.684972e+00    2.685011e+00    2.826969e+01    1.633163e+09    4.641989e-09    2.964986e-10    4.344590e-09   -2.578424e+00
    1.702845e+00    2.751407e+00    2.803127e+01    1.638825e+09    4.635592e-09    2.879098e-10    4.344961e-09   -2.573424e+00
    1.720983e+00    2.820579e+00    2.779236e+01    1.644405e+09    4.629278e-09    2.795062e-10    4.345241e-09   -2.568424e+00
    1.739390e+00    2.892682e+00    2.755297e+01    1.649898e+09    4.623049e-09    2.712881e-10    4.345429e-09   -2.563424e+00
    1.758071e+00    2.967882e+00    2.731311e+01    1.655300e+09    4.616903e-09    2.632550e-10    4.345526e-09   -2.558424e+00
    1.777026e+00    3.046352e+00    2.707279e+01    1.660606e+09    4.610842e-09    2.554068e-10    4.345532e-09   -2.553424e+00
    1.796259e+00    3.128279e+00    2.683202e+01    1.665811e+09    4.604865e-09    2.477427e-10    4.345448e-09   -2.548424e+00
    1.815774e+00    3.213860e+00    2.659082e+01    1.670910e+09    4.598972e-09    2.402618e-10    4.345274e-09   -2.543424e+00
    1.835573e+00    3.303304e+00    2.634920e+01    1.675897e+09    4.593162e-09    2.329630e-10    4.345011e-09   -2.538424e+00
    1.855656e+00    3.396835e+00    2.610717e+01    1.680767e+09    4.587434e-09    2.258451e-10    4.344660e-09   -2.533424e+00
    1.876028e+00    3.494686e+00    2.586474e+01    1.685515e+09    4.581789e-09    2.189065e-10    4.344221e-09   -2.528424e+00
    1.896688e+00    3.597106e+00    2.562194e+01    1.690133e+09    4.576224e-09    2.121454e-10    4.343695e-09   -2.523424e+00
    1.917639e+00    3.704358e+00    2.537878e+01    1.694616e+09    4.570739e-09    2.055601e-10    4.343083e-09   -2.518424e+00
    1.938881e+00    3.816723e+00    2.513528e+01    1.698957e+09    4.565333e-09    1.991483e-10    4.342385e-09   -2.513424e+00
    1.960415e+00    3.934491e+00    2.489144e+01    1.703150e+09    4.560004e-09    1.929082e-10    4.341602e-09   -2.508424e+00
    1.982239e+00    4.057969e+00    2.464731e+01    1.707186e+09    4.554752e-09    1.868371e-10    4.340737e-09   -2.503424e+00
    2.004355e+00    4.187487e+00    2.440288e+01    1.711060e+09    4.549575e-09    1.809326e-10    4.339788e-09   -2.498424e+00
    2.026762e+00    4.323381e+00    2.415819e+01    1.714762e+09    4.544471e-09    1.751922e-10    4.338757e-09   -2.493424e+00
    2.049457e+00    4.466008e+00    2.391326e+01    1.718287e+09    4.539438e-09    1.696132e-10    4.337644e-09   -2.488424e+00
    2.072439e+00    4.615741e+00    2.366811e+01    1.721624e+09    4.534476e-09    1.641927e-10    4.336452e-09   -2.483424e+00
    2.095706e+00    4.772966e+00    2.342276e+01    1.724768e+09    4.529581e-09    1.589280e-10    4.335179e-09   -2.478424e+00
    2.119255e+00    4.938086e+00    2.317724e+01    1.727709e+09    4.524752e-09    1.538159e-10    4.333829e-09   -2.473424e+00
    2.143083e+00    5.111514e+00    2.293159e+01    1.730438e+09    4.519987e-09    1.488536e-10    4.332400e-09   -2.468424e+00
    2.167186e+00    5.293679e+00    2.268581e+01    1.732948e+09    4.515284e-09    1.440379e-10    4.330894e-09   -2.463424e+00
    2.191560e+00    5.485021e+00    2.243995e+01    1.735230e+09    4.510642e-09    1.393659e-10    4.329312e-09   -2.458424e+00
    2.216201e+00    5.685988e+00    2.219404e+01    1.737276e+09    4.506057e-09    1.348342e-10    4.327654e-09   -2.453424e+00
    2.241104e+00    5.897037e+00    2.194810e+01    1.739078e+09    4.501528e-09    1.304397e-10    4.325920e-09   -2.448424e+00
    2.266263e+00    6.118627e+00    2.170217e+01    1.740626e+09    4.497053e-09    1.261792e-10    4.324114e-09   -2.443424e+00
    2.291674e+00    6.351227e+00    2.145628e+01    1.741914e+09    4.492628e-09    1.220497e-10    4.322233e-09   -2.438424e+00
    2.317331e+00    6.595292e+00    2.121047e+01    1.742935e+09    4.488253e-09    1.180478e-10    4.320279e-09   -2.433424e+00
    2.343229e+00    6.851283e+00    2.096478e+01    1.743680e+09    4.483925e-09    1.141704e-10    4.318253e-09   -2.428424e+00
    2.369364e+00    7.119652e+00    2.071923e+01    1.744143e+09    4.479642e-09    1.104142e-10    4.316155e-09   -2.423424e+00
    2.395729e+00    7.400841e+00    2.047387e+01    1.744319e+09    4.475400e-09    1.067762e-10    4.313986e-09   -2.418424e+00
    2.422320e+00    7.695267e+00    2.022875e+01    1.744202e+09    4.471197e-09    1.032530e-10    4.311745e-09   -2.413424e+00
    2.449133e+00    8.003334e+00    1.998389e+01    1.743787e+09    4.467032e-09    9.984190e-11    4.309433e-09   -2.408424e+00
    2.476164e+00    8.325416e+00    1.973933e+01    1.743069e+09    4.462902e-09    9.653950e-11    4.307051e-09   -2.403424e+00
    2.503410e+00    8.661878e+00    1.949512e+01    1.742046e+09    4.458805e-09    9.334285e-11    4.304600e-09   -2.398424e+00
    2.530867e+00    9.013035e+00    1.925130e+01    1.740714e+09    4.454737e-09    9.024895e-11    4.302078e-09   -2.393424e+00
    2.558536e+00    9.379172e+00    1.900791e+01    1.739074e+09    4.450697e-09    8.725490e-11    4.299486e-09   -2.388424e+00
    2.586413e+00    9.760538e+00    1.876499e+01    1.737122e+09    4.446681e-09    8.435770e-11    4.296825e-09   -2.383424e+00
    2.614501e+00    1.015734e+01    1.852258e+01    1.734860e+09    4.442689e-09    8.155455e-11    4.294094e-09   -2.378424e+00
    2.642799e+00    1.056974e+01    1.828073e+01    1.732289e+09    4.438718e-09    7.884260e-11    4.291294e-09   -2.373424e+00
    2.671310e+00    1.099787e+01    1.803947e+01    1.729409e+09    4.434763e-09    7.621915e-11    4.288423e-09   -2.368424e+00
    2.700037e+00    1.144180e+01    1.779885e+01    1.726224e+09    4.430825e-09    7.368150e-11    4.285482e-09   -2.363424e+00
    2.728982e+00    1.190157e+01    1.755891e+01    1.722736e+09    4.426899e-09    7.122695e-11    4.282472e-09   -2.358424e+00
    2.758154e+00    1.237717e+01    1.731968e+01    1.718950e+09    4.422984e-09    6.885295e-11    4.279391e-09   -2.353424e+00
    2.787557e+00    1.286857e+01    1.708122e+01    1.714870e+09    4.419077e-09    6.655705e-11    4.276240e-09   -2.348424e+00
    2.817199e+00    1.337566e+01    1.684355e+01    1.710501e+09    4.415175e-09    6.433665e-11    4.273016e-09   -2.343424e+00
    2.847089e+00    1.389833e+01    1.660672e+01    1.705849e+09    4.411276e-09    6.218950e-11    4.269722e-09   -2.338424e+00
    2.877234e+00    1.443644e+01    1.637075e+01    1.700919e+09    4.407379e-09    6.011315e-11    4.266356e-09   -2.333424e+00
    2.907647e+00    1.498980e+01    1.613571e+01    1.695719e+09    4.403479e-09    5.810535e-11    4.262916e-09   -2.328424e+00
    2.938338e+00    1.555822e+01    1.590160e+01    1.690254e+09    4.399574e-09    5.616390e-11    4.259403e-09   -2.323424e+00
    2.969319e+00    1.614147e+01    1.566847e+01    1.684531e+09    4.395664e-09    5.428665e-11    4.255816e-09   -2.318424e+00
    3.000602e+00    1.673932e+01    1.543636e+01    1.678558e+09    4.391744e-09    5.247145e-11    4.252153e-09   -2.313424e+00
    3.032200e+00    1.735154e+01    1.520530e+01    1.672341e+09    4.387812e-09    5.071630e-11    4.248415e-09   -2.308424e+00
    3.064130e+00    1.797788e+01    1.497532e+01    1.665888e+09    4.383867e-09    4.901918e-11    4.244600e-09   -2.303424e+00
    3.096403e+00    1.861810e+01    1.474644e+01    1.659206e+09    4.379905e-09    4.737821e-11    4.240707e-09   -2.298424e+00
    3.129037e+00    1.927195e+01    1.451872e+01    1.652301e+09    4.375924e-09    4.579151e-11    4.236735e-09   -2.293424e+00
    3.162045e+00    1.993923e+01    1.429216e+01    1.645182e+09    4.371921e-09    4.425727e-11    4.232683e-09   -2.288424e+00
    3.195447e+00    2.061969e+01    1.406680e+01    1.637853e+09    4.367894e-09    4.277372e-11    4.228549e-09   -2.283424e+00
    3.229256e+00    2.131316e+01    1.384267e+01    1.630323e+09    4.363840e-09    4.133917e-11    4.224333e-09   -2.278424e+00
    3.263491e+00    2.201944e+01    1.361979e+01    1.622598e+09    4.359757e-09    3.995198e-11    4.220032e-09   -2.273424e+00
    3.298169e+00    2.273838e+01    1.339820e+01    1.614683e+09    4.355643e-09    3.861054e-11    4.215647e-09   -2.268424e+00
    3.333307e+00    2.346985e+01    1.317791e+01    1.606585e+09    4.351494e-09    3.731331e-11    4.211174e-09   -2.263424e+00
    3.368927e+00    2.421372e+01    1.295895e+01    1.598310e+09    4.347308e-09    3.605880e-11    4.206613e-09   -2.258424e+00
    3.405042e+00    2.496992e+01    1.274134e+01    1.589863e+09    4.343083e-09    3.484556e-11    4.201960e-09   -2.253424e+00
    3.441675e+00    2.573839e+01    1.252510e+01    1.581249e+09    4.338815e-09    3.367219e-11    4.197216e-09   -2.248424e+00
    3.478843e+00    2.651911e+01    1.231028e+01    1.572474e+09    4.334503e-09    3.253733e-11    4.192379e-09   -2.243424e+00
    3.516568e+00    2.731205e+01    1.209686e+01    1.563542e+09    4.330143e-09    3.143968e-11    4.187445e-09   -2.238424e+00
    3.554870e+00    2.811726e+01    1.188489e+01    1.554458e+09    4.325734e-09    3.037798e-11    4.182413e-09   -2.233424e+00
    3.593767e+00    2.893479e+01    1.167437e+01    1.545227e+09    4.321271e-09    2.935099e-11    4.177281e-09   -2.228424e+00
    3.633283e+00    2.976471e+01    1.146534e+01    1.535851e+09    4.316753e-09    2.835756e-11    4.172048e-09   -2.223424e+00
    3.673437e+00    3.060714e+01    1.125781e+01    1.526336e+09    4.312176e-09    2.739653e-11    4.166710e-09   -2.218424e+00
    3.714251e+00    3.146221e+01    1.105180e+01    1.516684e+09    4.307538e-09    2.646679e-11    4.161265e-09   -2.213424e+00
    3.755748e+00    3.233007e+01    1.084733e+01    1.506900e+09    4.302836e-09    2.556729e-11    4.155712e-09   -2.208424e+00
    3.797949e+00    3.321094e+01    1.064441e+01    1.496986e+09    4.298067e-09    2.469700e-11    4.150046e-09   -2.203424e+00
    3.840882e+00    3.410498e+01    1.044306e+01    1.486945e+09    4.293228e-09    2.385494e-11    4.144266e-09   -2.198424e+00
    3.884564e+00    3.501246e+01    1.024331e+01    1.476780e+09    4.288316e-09    2.304014e-11    4.138371e-09   -2.193424e+00
    3.929025e+00    3.593363e+01    1.004516e+01    1.466494e+09    4.283328e-09    2.225168e-11    4.132355e-09   -2.188424e+00
    3.974286e+00    3.686876e+01    9.848635e+00    1.456089e+09    4.278262e-09    2.148866e-11    4.126217e-09   -2.183424e+00
    4.020373e+00    3.781816e+01    9.653755e+00    1.445567e+09    4.273113e-09    2.075025e-11    4.119954e-09   -2.178424e+00
    4.067315e+00    3.878213e+01    9.460525e+00    1.434931e+09    4.267880e-09    2.003559e-11    4.113562e-09   -2.173424e+00
    4.115135e+00    3.976104e+01    9.268970e+00    1.424182e+09    4.262558e-09    1.934388e-11    4.107039e-09   -2.168424e+00
    4.163863e+00    4.075522e+01    9.079100e+00    1.413322e+09    4.257143e-09    1.867437e-11    4.100382e-09   -2.163424e+00
    4.213527e+00    4.176506e+01    8.890930e+00    1.402352e+09    4.251635e-09    1.802629e-11    4.093586e-09   -2.158424e+00
    4.264154e+00    4.279096e+01    8.704480e+00    1.391275e+09    4.246029e-09    1.739895e-11    4.086650e-09   -2.153424e+00
    4.315772e+00    4.383329e+01    8.519765e+00    1.380090e+09    4.240321e-09    1.679164e-11    4.079568e-09   -2.148424e+00
    4.368415e+00    4.489254e+01    8.336795e+00    1.368801e+09    4.234507e-09    1.620369e-11    4.072338e-09   -2.143424e+00
    4.422113e+00    4.596913e+01    8.155585e+00    1.357407e+09    4.228586e-09    1.563446e-11    4.064957e-09   -2.138424e+00
    4.476898e+00    4.706349e+01    7.976150e+00    1.345909e+09    4.222552e-09    1.508333e-11    4.057420e-09   -2.133424e+00
    4.532803e+00    4.817612e+01    7.798505e+00    1.334308e+09    4.216403e-09    1.454969e-11    4.049724e-09   -2.128424e+00
    4.589859e+00    4.930751e+01    7.622665e+00    1.322605e+09    4.210135e-09    1.403298e-11    4.041864e-09   -2.123424e+00
    4.648106e+00    5.045816e+01    7.448640e+00    1.310801e+09    4.203744e-09    1.353263e-11    4.033836e-09   -2.118424e+00
    4.707576e+00    5.162856e+01    7.276445e+00    1.298896e+09    4.197226e-09    1.304811e-11    4.025637e-09   -2.113424e+00
    4.768302e+00    5.281926e+01    7.106100e+00    1.286890e+09    4.190578e-09    1.257889e-11    4.017262e-09   -2.108424e+00
    4.830328e+00    5.403076e+01    6.937610e+00    1.274783e+09    4.183795e-09    1.212448e-11    4.008707e-09   -2.103424e+00
    4.893687e+00    5.526367e+01    6.770995e+00    1.262576e+09    4.176875e-09    1.168440e-11    3.999968e-09   -2.098424e+00
    4.958421e+00    5.651853e+01    6.606265e+00    1.250268e+09    4.169812e-09    1.125817e-11    3.991040e-09   -2.093424e+00
    5.024568e+00    5.779585e+01    6.443435e+00    1.237859e+09    4.162602e-09    1.084536e-11    3.981918e-09   -2.088424e+00
    5.092172e+00    5.909627e+01    6.282515e+00    1.225351e+09    4.155243e-09    1.044553e-11    3.972598e-09   -2.083424e+00
    5.161276e+00    6.042038e+01    6.123520e+00    1.212741e+09    4.147729e-09    1.005826e-11    3.963075e-09   -2.078424e+00
    5.231919e+00    6.176866e+01    5.966465e+00    1.200029e+09    4.140057e-09    9.683155e-12    3.953344e-09   -2.073424e+00
    5.304144e+00    6.314188e+01    5.811365e+00    1.187217e+09    4.132221e-09    9.319820e-12    3.943400e-09   -2.068424e+00
    5.377998e+00    6.454051e+01    5.658230e+00    1.174301e+09    4.124219e-09    8.967890e-12    3.933238e-09   -2.063424e+00
    5.453531e+00    6.596520e+01    5.507070e+00    1.161284e+09    4.116046e-09    8.626995e-12    3.922854e-09   -2.058424e+00
    5.530780e+00    6.741653e+01    5.357905e+00    1.148162e+09    4.107696e-09    8.296790e-12    3.912242e-09   -2.053424e+00
    5.609805e+00    6.889514e+01    5.210740e+00    1.134937e+09    4.099165e-09    7.976945e-12    3.901396e-09   -2.048424e+00
    5.690642e+00    7.040160e+01    5.065595e+00    1.121607e+09    4.090451e-09    7.667130e-12    3.890311e-09   -2.043424e+00
    5.773347e+00    7.193651e+01    4.922479e+00    1.108171e+09    4.081547e-09    7.367035e-12    3.878983e-09   -2.038424e+00
    5.857965e+00    7.350046e+01    4.781407e+00    1.094629e+09    4.072449e-09    7.076360e-12    3.867404e-09   -2.033424e+00
    5.944548e+00    7.509403e+01    4.642390e+00    1.080980e+09    4.063153e-09    6.794815e-12    3.855572e-09   -2.028424e+00
    6.033146e+00    7.671779e+01    4.505442e+00    1.067222e+09    4.053654e-09    6.522115e-12    3.843478e-09   -2.023424e+00
    6.123809e+00    7.837228e+01    4.370575e+00    1.053355e+09    4.043947e-09    6.258000e-12    3.831119e-09   -2.018424e+00
    6.216588e+00    8.005805e+01    4.237801e+00    1.039379e+09    4.034028e-09    6.002195e-12    3.818487e-09   -2.013424e+00
    6.311532e+00    8.177558e+01    4.107132e+00    1.025291e+09    4.023892e-09    5.754460e-12    3.805578e-09   -2.008424e+00
    6.408692e+00    8.352535e+01    3.978581e+00    1.011092e+09    4.013535e-09    5.514545e-12    3.792385e-09   -2.003424e+00
    6.508117e+00    8.530783e+01    3.852161e+00    9.967808e+08    4.002951e-09    5.282220e-12    3.778904e-09   -1.998424e+00
    6.609857e+00    8.712341e+01    3.727883e+00    9.823564e+08    3.992136e-09    5.057255e-12    3.765127e-09   -1.993424e+00
    6.713959e+00    8.897245e+01    3.605757e+00    9.678181e+08    3.981086e-09    4.839435e-12    3.751050e-09   -1.988424e+00
    6.820469e+00    9.085528e+01    3.485797e+00    9.531655e+08    3.969796e-09    4.628549e-12    3.736667e-09   -1.983424e+00
    6.929433e+00    9.277215e+01    3.368013e+00    9.383984e+08    3.958260e-09    4.424391e-12    3.721971e-09   -1.978424e+00
    7.040893e+00    9.472327e+01    3.252417e+00    9.235164e+08    3.946476e-09    4.226767e-12    3.706957e-09   -1.973424e+00
    7.154890e+00    9.670879e+01    3.139018e+00    9.085196e+08    3.934437e-09    4.035486e-12    3.691619e-09   -1.968424e+00
    7.271460e+00    9.872869e+01    3.027827e+00    8.934079e+08    3.922139e-09    3.850366e-12    3.675952e-09   -1.963424e+00
    7.390640e+00    1.007830e+02    2.918853e+00    8.781819e+08    3.909579e-09    3.671227e-12    3.659950e-09   -1.958424e+00
    7.512458e+00    1.028716e+02    2.812107e+00    8.628424e+08    3.896751e-09    3.497903e-12    3.643608e-09   -1.953424e+00
    7.636941e+00    1.049942e+02    2.707598e+00    8.473902e+08    3.883652e-09    3.330224e-12    3.626918e-09   -1.948424e+00
    7.764109e+00    1.071506e+02    2.605333e+00    8.318268e+08    3.870277e-09    3.168033e-12    3.609877e-09   -1.943424e+00
    7.893977e+00    1.093401e+02    2.505320e+00    8.161540e+08    3.856621e-09    3.011176e-12    3.592480e-09   -1.938424e+00
    8.026554e+00    1.115623e+02    2.407566e+00    8.003739e+08    3.842682e-09    2.859503e-12    3.574720e-09   -1.933424e+00
    8.161841e+00    1.138164e+02    2.312077e+00    7.844893e+08    3.828455e-09    2.712870e-12    3.556593e-09   -1.928424e+00
    8.299831e+00    1.161014e+02    2.218859e+00    7.685031e+08    3.813936e-09    2.571137e-12    3.538094e-09   -1.923424e+00
    8.440508e+00    1.184164e+02    2.127917e+00    7.524196e+08    3.799122e-09    2.434170e-12    3.519218e-09   -1.918424e+00
    8.583849e+00    1.207600e+02    2.039253e+00    7.362428e+08    3.784010e-09    2.301839e-12    3.499960e-09   -1.913424e+00
