# sky130 pfet_01v8 gm/ID Processed Lookup Table
# Corner: fs
# Temperature: 75C
# W = 2.0 um
# L = 2.88 um (2880 nm)
# Columns: gm/id [1/V]  gm/gds [V/V]  id/W [A/m]  ft [Hz]  Cgg/W [F/m]  Cgd/W [F/m]  Cgs/W [F/m]  Vov [V]
#         gm/id          gm/gds            id/W              ft           Cgg/W           Cgd/W           Cgs/W             Vov
    1.602174e+00    2.499258e+00    7.720670e+00    1.001615e+08    1.965549e-08    2.738922e-09    1.721536e-08   -2.709885e+00
    1.617771e+00    2.556617e+00    7.658770e+00    1.005353e+08    1.961452e-08    2.679361e-09    1.722553e-08   -2.704885e+00
    1.633603e+00    2.616318e+00    7.596770e+00    1.009080e+08    1.957356e-08    2.620087e-09    1.723538e-08   -2.699885e+00
    1.649673e+00    2.678494e+00    7.534670e+00    1.012794e+08    1.953264e-08    2.561134e-09    1.724490e-08   -2.694885e+00
    1.665986e+00    2.743290e+00    7.472475e+00    1.016492e+08    1.949180e-08    2.502537e-09    1.725409e-08   -2.689885e+00
    1.682545e+00    2.810856e+00    7.410180e+00    1.020171e+08    1.945103e-08    2.444330e-09    1.726293e-08   -2.684885e+00
    1.699353e+00    2.881356e+00    7.347795e+00    1.023828e+08    1.941038e-08    2.386546e-09    1.727143e-08   -2.679885e+00
    1.716415e+00    2.954965e+00    7.285315e+00    1.027459e+08    1.936985e-08    2.329221e-09    1.727956e-08   -2.674885e+00
    1.733732e+00    3.031870e+00    7.222750e+00    1.031062e+08    1.932947e-08    2.272387e-09    1.728731e-08   -2.669885e+00
    1.751310e+00    3.112271e+00    7.160095e+00    1.034633e+08    1.928926e-08    2.216079e-09    1.736257e-08   -2.664885e+00
    1.769149e+00    3.196383e+00    7.097355e+00    1.038167e+08    1.924925e-08    2.160327e-09    1.736768e-08   -2.659885e+00
    1.787256e+00    3.284438e+00    7.034530e+00    1.041662e+08    1.920946e-08    2.105165e-09    1.737244e-08   -2.654885e+00
    1.805629e+00    3.376680e+00    6.971630e+00    1.045113e+08    1.916989e-08    2.050623e-09    1.737684e-08   -2.649885e+00
    1.824272e+00    3.473374e+00    6.908650e+00    1.048516e+08    1.913058e-08    1.996732e-09    1.738086e-08   -2.644885e+00
    1.843188e+00    3.574804e+00    6.845600e+00    1.051866e+08    1.909155e-08    1.943521e-09    1.738450e-08   -2.639885e+00
    1.862380e+00    3.681275e+00    6.782475e+00    1.055158e+08    1.905281e-08    1.891018e-09    1.738776e-08   -2.634885e+00
    1.881848e+00    3.793111e+00    6.719285e+00    1.058390e+08    1.901438e-08    1.839250e-09    1.739062e-08   -2.629885e+00
    1.901592e+00    3.910660e+00    6.656030e+00    1.061554e+08    1.897627e-08    1.788242e-09    1.739309e-08   -2.624885e+00
    1.921616e+00    4.034298e+00    6.592715e+00    1.064646e+08    1.893851e-08    1.738019e-09    1.739517e-08   -2.619885e+00
    1.941918e+00    4.164425e+00    6.529345e+00    1.067660e+08    1.890113e-08    1.688602e-09    1.739684e-08   -2.614885e+00
    1.962500e+00    4.301471e+00    6.465920e+00    1.070592e+08    1.886410e-08    1.640014e-09    1.739809e-08   -2.609885e+00
    1.983359e+00    4.445892e+00    6.402455e+00    1.073435e+08    1.882748e-08    1.592274e-09    1.739894e-08   -2.604885e+00
    2.004498e+00    4.598181e+00    6.338940e+00    1.076184e+08    1.879126e-08    1.545399e-09    1.739937e-08   -2.599885e+00
    2.025912e+00    4.758861e+00    6.275390e+00    1.078832e+08    1.875545e-08    1.499406e-09    1.739939e-08   -2.594885e+00
    2.047602e+00    4.928495e+00    6.211810e+00    1.081375e+08    1.872008e-08    1.454310e-09    1.739899e-08   -2.589885e+00
    2.069565e+00    5.107678e+00    6.148200e+00    1.083805e+08    1.868513e-08    1.410122e-09    1.739817e-08   -2.584885e+00
    2.091798e+00    5.297047e+00    6.084570e+00    1.086116e+08    1.865064e-08    1.366853e-09    1.739692e-08   -2.579885e+00
    2.114298e+00    5.497281e+00    6.020925e+00    1.088302e+08    1.861659e-08    1.324514e-09    1.739526e-08   -2.574885e+00
    2.137061e+00    5.709099e+00    5.957270e+00    1.090356e+08    1.858300e-08    1.283110e-09    1.739318e-08   -2.569885e+00
    2.160083e+00    5.933266e+00    5.893615e+00    1.092273e+08    1.854988e-08    1.242648e-09    1.739068e-08   -2.564885e+00
    2.183360e+00    6.170594e+00    5.829965e+00    1.094046e+08    1.851723e-08    1.203132e-09    1.738777e-08   -2.559885e+00
    2.206886e+00    6.421941e+00    5.766330e+00    1.095668e+08    1.848505e-08    1.164562e-09    1.738443e-08   -2.554885e+00
    2.230656e+00    6.688208e+00    5.702715e+00    1.097134e+08    1.845334e-08    1.126941e-09    1.738068e-08   -2.549885e+00
    2.254665e+00    6.970354e+00    5.639125e+00    1.098436e+08    1.842210e-08    1.090266e-09    1.737652e-08   -2.544885e+00
    2.278909e+00    7.269380e+00    5.575570e+00    1.099570e+08    1.839133e-08    1.054535e-09    1.737195e-08   -2.539885e+00
    2.303376e+00    7.586339e+00    5.512065e+00    1.100531e+08    1.836104e-08    1.019745e-09    1.736697e-08   -2.534885e+00
    2.328067e+00    7.922334e+00    5.448610e+00    1.101312e+08    1.833121e-08    9.858875e-10    1.736158e-08   -2.529885e+00
    2.352971e+00    8.278512e+00    5.385220e+00    1.101907e+08    1.830185e-08    9.529570e-10    1.735579e-08   -2.524885e+00
    2.378085e+00    8.656075e+00    5.321900e+00    1.102315e+08    1.827294e-08    9.209455e-10    1.734960e-08   -2.519885e+00
    2.403400e+00    9.056262e+00    5.258665e+00    1.102529e+08    1.824450e-08    8.898430e-10    1.734302e-08   -2.514885e+00
    2.428914e+00    9.480365e+00    5.195520e+00    1.102546e+08    1.821649e-08    8.596385e-10    1.733605e-08   -2.509885e+00
    2.454622e+00    9.929714e+00    5.132475e+00    1.102363e+08    1.818893e-08    8.303210e-10    1.732868e-08   -2.504885e+00
    2.480518e+00    1.040567e+01    5.069540e+00    1.101976e+08    1.816180e-08    8.018770e-10    1.732093e-08   -2.499885e+00
    2.506601e+00    1.090964e+01    5.006725e+00    1.101386e+08    1.813508e-08    7.742940e-10    1.731280e-08   -2.494885e+00
    2.532864e+00    1.144307e+01    4.944044e+00    1.100589e+08    1.810878e-08    7.475565e-10    1.730429e-08   -2.489885e+00
    2.559307e+00    1.200742e+01    4.881503e+00    1.099584e+08    1.808289e-08    7.216500e-10    1.729540e-08   -2.484885e+00
    2.585929e+00    1.260417e+01    4.819115e+00    1.098372e+08    1.805738e-08    6.965585e-10    1.728614e-08   -2.479885e+00
    2.612730e+00    1.323484e+01    4.756888e+00    1.096952e+08    1.803225e-08    6.722660e-10    1.727651e-08   -2.474885e+00
    2.639711e+00    1.390095e+01    4.694833e+00    1.095326e+08    1.800749e-08    6.487555e-10    1.726652e-08   -2.469885e+00
    2.666871e+00    1.460403e+01    4.632961e+00    1.093495e+08    1.798309e-08    6.260100e-10    1.725616e-08   -2.464885e+00
    2.694215e+00    1.534563e+01    4.571282e+00    1.091460e+08    1.795902e-08    6.040120e-10    1.724544e-08   -2.459885e+00
    2.721747e+00    1.612728e+01    4.509805e+00    1.089224e+08    1.793529e-08    5.827435e-10    1.723436e-08   -2.454885e+00
    2.749470e+00    1.695052e+01    4.448540e+00    1.086790e+08    1.791187e-08    5.621870e-10    1.722293e-08   -2.449885e+00
    2.777392e+00    1.781690e+01    4.387496e+00    1.084162e+08    1.788875e-08    5.423240e-10    1.721114e-08   -2.444885e+00
    2.805518e+00    1.872791e+01    4.326684e+00    1.081342e+08    1.786591e-08    5.231365e-10    1.719900e-08   -2.439885e+00
    2.833857e+00    1.968510e+01    4.266114e+00    1.078336e+08    1.784335e-08    5.046065e-10    1.718650e-08   -2.434885e+00
    2.862418e+00    2.068993e+01    4.205792e+00    1.075147e+08    1.782105e-08    4.867155e-10    1.717367e-08   -2.429885e+00
    2.891210e+00    2.174386e+01    4.145729e+00    1.071780e+08    1.779898e-08    4.694453e-10    1.716047e-08   -2.424885e+00
    2.920244e+00    2.284837e+01    4.085933e+00    1.068239e+08    1.777715e-08    4.527781e-10    1.714694e-08   -2.419885e+00
    2.949530e+00    2.400484e+01    4.026413e+00    1.064530e+08    1.775553e-08    4.366960e-10    1.713305e-08   -2.414885e+00
    2.979082e+00    2.521471e+01    3.967176e+00    1.060657e+08    1.773410e-08    4.211813e-10    1.711881e-08   -2.409885e+00
    3.008911e+00    2.647932e+01    3.908230e+00    1.056625e+08    1.771286e-08    4.062166e-10    1.710424e-08   -2.404885e+00
    3.039031e+00    2.780004e+01    3.849583e+00    1.052440e+08    1.769178e-08    3.917846e-10    1.708930e-08   -2.399885e+00
    3.069456e+00    2.917817e+01    3.791242e+00    1.048106e+08    1.767086e-08    3.778685e-10    1.707403e-08   -2.394885e+00
    3.100200e+00    3.061501e+01    3.733215e+00    1.043629e+08    1.765007e-08    3.644515e-10    1.705839e-08   -2.389885e+00
    3.131278e+00    3.211184e+01    3.675507e+00    1.039014e+08    1.762941e-08    3.515173e-10    1.704240e-08   -2.384885e+00
    3.162706e+00    3.366990e+01    3.618127e+00    1.034265e+08    1.760884e-08    3.390500e-10    1.702607e-08   -2.379885e+00
    3.194500e+00    3.529042e+01    3.561079e+00    1.029387e+08    1.758838e-08    3.270339e-10    1.700937e-08   -2.374885e+00
    3.226675e+00    3.697460e+01    3.504370e+00    1.024386e+08    1.756798e-08    3.154535e-10    1.699231e-08   -2.369885e+00
    3.259248e+00    3.872364e+01    3.448006e+00    1.019264e+08    1.754764e-08    3.042942e-10    1.697489e-08   -2.364885e+00
    3.292235e+00    4.053870e+01    3.391993e+00    1.014027e+08    1.752735e-08    2.935411e-10    1.695710e-08   -2.359885e+00
    3.325655e+00    4.242097e+01    3.336335e+00    1.008679e+08    1.750708e-08    2.831802e-10    1.693894e-08   -2.354885e+00
    3.359526e+00    4.437163e+01    3.281039e+00    1.003225e+08    1.748684e-08    2.731977e-10    1.692042e-08   -2.349885e+00
    3.393863e+00    4.639180e+01    3.226110e+00    9.976667e+07    1.746659e-08    2.635800e-10    1.690150e-08   -2.344885e+00
    3.428687e+00    4.848266e+01    3.171551e+00    9.920092e+07    1.744633e-08    2.543143e-10    1.688221e-08   -2.339885e+00
    3.464016e+00    5.064539e+01    3.117369e+00    9.862565e+07    1.742603e-08    2.453877e-10    1.686253e-08   -2.334885e+00
    3.499869e+00    5.288113e+01    3.063566e+00    9.804107e+07    1.740568e-08    2.367880e-10    1.684244e-08   -2.329885e+00
    3.536263e+00    5.519106e+01    3.010149e+00    9.744758e+07    1.738528e-08    2.285033e-10    1.682197e-08   -2.324885e+00
    3.573222e+00    5.757640e+01    2.957121e+00    9.684550e+07    1.736480e-08    2.205221e-10    1.680108e-08   -2.319885e+00
    3.610761e+00    6.003833e+01    2.904486e+00    9.623502e+07    1.734423e-08    2.128332e-10    1.677978e-08   -2.314885e+00
    3.648906e+00    6.257815e+01    2.852248e+00    9.561658e+07    1.732355e-08    2.054259e-10    1.675805e-08   -2.309885e+00
    3.687672e+00    6.519702e+01    2.800412e+00    9.499028e+07    1.730275e-08    1.982896e-10    1.673590e-08   -2.304885e+00
    3.727085e+00    6.789634e+01    2.748980e+00    9.435642e+07    1.728182e-08    1.914143e-10    1.671331e-08   -2.299885e+00
    3.767163e+00    7.067733e+01    2.697956e+00    9.371522e+07    1.726073e-08    1.847903e-10    1.669027e-08   -2.294885e+00
    3.807932e+00    7.354143e+01    2.647344e+00    9.306695e+07    1.723948e-08    1.784082e-10    1.666678e-08   -2.289885e+00
    3.849409e+00    7.648995e+01    2.597148e+00    9.241169e+07    1.721805e-08    1.722587e-10    1.664282e-08   -2.284885e+00
    3.891623e+00    7.952444e+01    2.547371e+00    9.174976e+07    1.719642e-08    1.663334e-10    1.661840e-08   -2.279885e+00
    3.934594e+00    8.264627e+01    2.498015e+00    9.108122e+07    1.717458e-08    1.606237e-10    1.659350e-08   -2.274885e+00
    3.978347e+00    8.585704e+01    2.449085e+00    9.040630e+07    1.715252e-08    1.551213e-10    1.656809e-08   -2.269885e+00
    4.022908e+00    8.915831e+01    2.400583e+00    8.972514e+07    1.713022e-08    1.498187e-10    1.654218e-08   -2.264885e+00
    4.068301e+00    9.255175e+01    2.352513e+00    8.903786e+07    1.710765e-08    1.447081e-10    1.651577e-08   -2.259885e+00
    4.114552e+00    9.603901e+01    2.304877e+00    8.834459e+07    1.708482e-08    1.397822e-10    1.648883e-08   -2.254885e+00
    4.161687e+00    9.962180e+01    2.257678e+00    8.764543e+07    1.706170e-08    1.350342e-10    1.646134e-08   -2.249885e+00
    4.209736e+00    1.033021e+02    2.210920e+00    8.694053e+07    1.703828e-08    1.304572e-10    1.643331e-08   -2.244885e+00
    4.258726e+00    1.070816e+02    2.164605e+00    8.622998e+07    1.701454e-08    1.260448e-10    1.640472e-08   -2.239885e+00
    4.308684e+00    1.109625e+02    2.118737e+00    8.551381e+07    1.699047e-08    1.217908e-10    1.637555e-08   -2.234885e+00
    4.359641e+00    1.149465e+02    2.073316e+00    8.479216e+07    1.696605e-08    1.176890e-10    1.634579e-08   -2.229885e+00
    4.411625e+00    1.190358e+02    2.028348e+00    8.406502e+07    1.694127e-08    1.137339e-10    1.631543e-08   -2.224885e+00
    4.464669e+00    1.232327e+02    1.983835e+00    8.333254e+07    1.691610e-08    1.099198e-10    1.628445e-08   -2.219885e+00
    4.518807e+00    1.275394e+02    1.939778e+00    8.259472e+07    1.689054e-08    1.062413e-10    1.625285e-08   -2.214885e+00
    4.574069e+00    1.319581e+02    1.896181e+00    8.185163e+07    1.686456e-08    1.026935e-10    1.622059e-08   -2.209885e+00
    4.630489e+00    1.364912e+02    1.853046e+00    8.110331e+07    1.683816e-08    9.927115e-11    1.618768e-08   -2.204885e+00
    4.688101e+00    1.411411e+02    1.810376e+00    8.034968e+07    1.681132e-08    9.596980e-11    1.615409e-08   -2.199885e+00
    4.746941e+00    1.459106e+02    1.768174e+00    7.959091e+07    1.678401e-08    9.278475e-11    1.611980e-08   -2.194885e+00
    4.807045e+00    1.508021e+02    1.726443e+00    7.882694e+07    1.675622e-08    8.971170e-11    1.608481e-08   -2.189885e+00
    4.868452e+00    1.558183e+02    1.685185e+00    7.805777e+07    1.672794e-08    8.674635e-11    1.604909e-08   -2.184885e+00
    4.931195e+00    1.609620e+02    1.644402e+00    7.728338e+07    1.669914e-08    8.388470e-11    1.601263e-08   -2.179885e+00
    4.995320e+00    1.662362e+02    1.604097e+00    7.650380e+07    1.666982e-08    8.112295e-11    1.597540e-08   -2.174885e+00
    5.060861e+00    1.716437e+02    1.564272e+00    7.571900e+07    1.663995e-08    7.845725e-11    1.593740e-08   -2.169885e+00
    5.127863e+00    1.771875e+02    1.524931e+00    7.492898e+07    1.660952e-08    7.588405e-11    1.589860e-08   -2.164885e+00
    5.196366e+00    1.828709e+02    1.486077e+00    7.413372e+07    1.657851e-08    7.339995e-11    1.585899e-08   -2.159885e+00
    5.266412e+00    1.886966e+02    1.447711e+00    7.333312e+07    1.654690e-08    7.100160e-11    1.581855e-08   -2.154885e+00
    5.338045e+00    1.946682e+02    1.409836e+00    7.252722e+07    1.651467e-08    6.868580e-11    1.577725e-08   -2.149885e+00
    5.411311e+00    2.007889e+02    1.372454e+00    7.171593e+07    1.648180e-08    6.644955e-11    1.573507e-08   -2.144885e+00
    5.486252e+00    2.070618e+02    1.335569e+00    7.089917e+07    1.644830e-08    6.428990e-11    1.569201e-08   -2.139885e+00
    5.562920e+00    2.134907e+02    1.299182e+00    7.007701e+07    1.641411e-08    6.220405e-11    1.564803e-08   -2.134885e+00
    5.641354e+00    2.200787e+02    1.263297e+00    6.924926e+07    1.637924e-08    6.018925e-11    1.560311e-08   -2.129885e+00
    5.721605e+00    2.268292e+02    1.227916e+00    6.841592e+07    1.634366e-08    5.824290e-11    1.555725e-08   -2.124885e+00
    5.803721e+00    2.337460e+02    1.193042e+00    6.757694e+07    1.630736e-08    5.636250e-11    1.551040e-08   -2.119885e+00
    5.887755e+00    2.408324e+02    1.158676e+00    6.673227e+07    1.627032e-08    5.454570e-11    1.546257e-08   -2.114885e+00
    5.973750e+00    2.480919e+02    1.124822e+00    6.588177e+07    1.623251e-08    5.279015e-11    1.541371e-08   -2.109885e+00
    6.061760e+00    2.555283e+02    1.091483e+00    6.502547e+07    1.619392e-08    5.109360e-11    1.536381e-08   -2.104885e+00
    6.151829e+00    2.631446e+02    1.058660e+00    6.416324e+07    1.615454e-08    4.945398e-11    1.531285e-08   -2.099885e+00
    6.244005e+00    2.709441e+02    1.026357e+00    6.329497e+07    1.611433e-08    4.786920e-11    1.526082e-08   -2.094885e+00
    6.338346e+00    2.789308e+02    9.945750e-01    6.242070e+07    1.607330e-08    4.633730e-11    1.520767e-08   -2.089885e+00
    6.434895e+00    2.871076e+02    9.633180e-01    6.154031e+07    1.603140e-08    4.485639e-11    1.515340e-08   -2.084885e+00
    6.533698e+00    2.954774e+02    9.325875e-01    6.065371e+07    1.598864e-08    4.342465e-11    1.509797e-08   -2.079885e+00
    6.634810e+00    3.040436e+02    9.023860e-01    5.976088e+07    1.594498e-08    4.204032e-11    1.504137e-08   -2.074885e+00
    6.738276e+00    3.128090e+02    8.727165e-01    5.886184e+07    1.590041e-08    4.070172e-11    1.498359e-08   -2.069885e+00
    6.844132e+00    3.217760e+02    8.435810e-01    5.795640e+07    1.585491e-08    3.940724e-11    1.492458e-08   -2.064885e+00
    6.952428e+00    3.309469e+02    8.149815e-01    5.704460e+07    1.580847e-08    3.815532e-11    1.486434e-08   -2.059885e+00
    7.063204e+00    3.403239e+02    7.869205e-01    5.612640e+07    1.576107e-08    3.694445e-11    1.480284e-08   -2.054885e+00
    7.176496e+00    3.499089e+02    7.594005e-01    5.520182e+07    1.571268e-08    3.577321e-11    1.474005e-08   -2.049885e+00
    7.292343e+00    3.597032e+02    7.324230e-01    5.427082e+07    1.566329e-08    3.464021e-11    1.467596e-08   -2.044885e+00
    7.410785e+00    3.697080e+02    7.059900e-01    5.333347e+07    1.561288e-08    3.354410e-11    1.461053e-08   -2.039885e+00
    7.531833e+00    3.799236e+02    6.801040e-01    5.238976e+07    1.556144e-08    3.248363e-11    1.454377e-08   -2.034885e+00
    7.655515e+00    3.903496e+02    6.547665e-01    5.143972e+07    1.550895e-08    3.145755e-11    1.447563e-08   -2.029885e+00
    7.781851e+00    4.009857e+02    6.299790e-01    5.048345e+07    1.545540e-08    3.046467e-11    1.440612e-08   -2.024885e+00
    7.910858e+00    4.118305e+02    6.057430e-01    4.952108e+07    1.540076e-08    2.950385e-11    1.433518e-08   -2.019885e+00
    8.042538e+00    4.228821e+02    5.820600e-01    4.855272e+07    1.534502e-08    2.857399e-11    1.426282e-08   -2.014885e+00
    8.176889e+00    4.341376e+02    5.589310e-01    4.757850e+07    1.528818e-08    2.767403e-11    1.418902e-08   -2.009885e+00
    8.313903e+00    4.455932e+02    5.363570e-01    4.659866e+07    1.523020e-08    2.680297e-11    1.411374e-08   -2.004885e+00
    8.453557e+00    4.572439e+02    5.143390e-01    4.561340e+07    1.517109e-08    2.595980e-11    1.403699e-08   -1.999885e+00
    8.595828e+00    4.690846e+02    4.928772e-01    4.462298e+07    1.511082e-08    2.514359e-11    1.395873e-08   -1.994885e+00
    8.740672e+00    4.811076e+02    4.719721e-01    4.362771e+07    1.504939e-08    2.435344e-11    1.387896e-08   -1.989885e+00
    8.888040e+00    4.933055e+02    4.516237e-01    4.262794e+07    1.498679e-08    2.358845e-11    1.379765e-08   -1.984885e+00
    9.037870e+00    5.056686e+02    4.318315e-01    4.162407e+07    1.492300e-08    2.284780e-11    1.371480e-08   -1.979885e+00
    9.190081e+00    5.181863e+02    4.125950e-01    4.061653e+07    1.485801e-08    2.213066e-11    1.363039e-08   -1.974885e+00
    9.344585e+00    5.308465e+02    3.939132e-01    3.960585e+07    1.479182e-08    2.143625e-11    1.354441e-08   -1.969885e+00
    9.501272e+00    5.436351e+02    3.757850e-01    3.859253e+07    1.472441e-08    2.076382e-11    1.345685e-08   -1.964885e+00
    9.660022e+00    5.565370e+02    3.582083e-01    3.757721e+07    1.465579e-08    2.011263e-11    1.336769e-08   -1.959885e+00
    9.820691e+00    5.695350e+02    3.411811e-01    3.656054e+07    1.458594e-08    1.948201e-11    1.327693e-08   -1.954885e+00
