# sky130 pfet_01v8 gm/ID Processed Lookup Table
# Corner: fs
# Temperature: 0C
# W = 2.0 um
# L = 3.78 um (3780 nm)
# Columns: gm/id [1/V]  gm/gds [V/V]  id/W [A/m]  ft [Hz]  Cgg/W [F/m]  Cgd/W [F/m]  Cgs/W [F/m]  Vov [V]
#         gm/id          gm/gds            id/W              ft           Cgg/W           Cgd/W           Cgs/W             Vov
    2.080633e+00    5.422609e+00    5.852680e+00    7.748243e+07    2.501308e-08    2.152149e-09    2.302705e-08   -2.826845e+00
    2.103151e+00    5.635614e+00    5.791785e+00    7.765480e+07    2.496519e-08    2.088324e-09    2.303030e-08   -2.821845e+00
    2.125925e+00    5.861461e+00    5.730875e+00    7.781763e+07    2.491788e-08    2.025675e-09    2.303302e-08   -2.816845e+00
    2.148952e+00    6.101049e+00    5.669955e+00    7.797045e+07    2.487118e-08    1.964223e-09    2.303523e-08   -2.811845e+00
    2.172226e+00    6.355327e+00    5.609030e+00    7.811271e+07    2.482511e-08    1.903990e-09    2.303691e-08   -2.806845e+00
    2.195739e+00    6.625315e+00    5.548115e+00    7.824394e+07    2.477968e-08    1.844994e-09    2.303808e-08   -2.801845e+00
    2.219487e+00    6.912089e+00    5.487215e+00    7.836362e+07    2.473490e-08    1.787247e-09    2.303872e-08   -2.796845e+00
    2.243465e+00    7.216795e+00    5.426330e+00    7.847125e+07    2.469079e-08    1.730764e-09    2.303884e-08   -2.791845e+00
    2.267662e+00    7.540638e+00    5.365480e+00    7.856639e+07    2.464735e-08    1.675553e-09    2.303844e-08   -2.786845e+00
    2.292074e+00    7.884895e+00    5.304665e+00    7.864851e+07    2.460460e-08    1.621623e-09    2.303752e-08   -2.781845e+00
    2.316696e+00    8.250917e+00    5.243895e+00    7.871727e+07    2.456253e-08    1.568979e-09    2.303609e-08   -2.776845e+00
    2.341518e+00    8.640112e+00    5.183180e+00    7.877219e+07    2.452116e-08    1.517622e-09    2.303415e-08   -2.771845e+00
    2.366535e+00    9.053970e+00    5.122530e+00    7.881292e+07    2.448049e-08    1.467555e-09    2.303170e-08   -2.766845e+00
    2.391738e+00    9.494032e+00    5.061955e+00    7.883910e+07    2.444052e-08    1.418774e-09    2.302876e-08   -2.761845e+00
    2.417123e+00    9.961921e+00    5.001465e+00    7.885045e+07    2.440124e-08    1.371276e-09    2.302532e-08   -2.756845e+00
    2.442684e+00    1.045932e+01    4.941069e+00    7.884670e+07    2.436267e-08    1.325054e-09    2.302138e-08   -2.751845e+00
    2.468415e+00    1.098797e+01    4.880775e+00    7.882757e+07    2.432479e-08    1.280099e-09    2.301695e-08   -2.746845e+00
    2.494315e+00    1.154967e+01    4.820595e+00    7.879297e+07    2.428760e-08    1.236403e-09    2.301205e-08   -2.741845e+00
    2.520377e+00    1.214628e+01    4.760537e+00    7.874272e+07    2.425109e-08    1.193952e-09    2.300668e-08   -2.736845e+00
    2.546600e+00    1.277970e+01    4.700615e+00    7.867673e+07    2.421527e-08    1.152734e-09    2.300083e-08   -2.731845e+00
    2.572982e+00    1.345190e+01    4.640836e+00    7.859497e+07    2.418011e-08    1.112734e-09    2.299452e-08   -2.726845e+00
    2.599522e+00    1.416485e+01    4.581210e+00    7.849743e+07    2.414562e-08    1.073933e-09    2.298775e-08   -2.721845e+00
    2.626222e+00    1.492060e+01    4.521749e+00    7.838424e+07    2.411178e-08    1.036316e-09    2.298054e-08   -2.716845e+00
    2.653081e+00    1.572120e+01    4.462462e+00    7.825544e+07    2.407857e-08    9.998615e-10    2.297289e-08   -2.711845e+00
    2.680104e+00    1.656873e+01    4.403360e+00    7.811117e+07    2.404600e-08    9.645510e-10    2.296480e-08   -2.706845e+00
    2.707294e+00    1.746529e+01    4.344451e+00    7.795166e+07    2.401403e-08    9.303620e-10    2.295628e-08   -2.701845e+00
    2.734656e+00    1.841300e+01    4.285745e+00    7.777711e+07    2.398266e-08    8.972735e-10    2.294734e-08   -2.696845e+00
    2.762197e+00    1.941396e+01    4.227253e+00    7.758778e+07    2.395189e-08    8.652625e-10    2.293798e-08   -2.691845e+00
    2.789923e+00    2.047027e+01    4.168984e+00    7.738399e+07    2.392167e-08    8.343055e-10    2.292821e-08   -2.686845e+00
    2.817842e+00    2.158402e+01    4.110945e+00    7.716595e+07    2.389202e-08    8.043780e-10    2.291803e-08   -2.681845e+00
    2.845965e+00    2.275736e+01    4.053147e+00    7.693413e+07    2.386289e-08    7.754565e-10    2.290745e-08   -2.676845e+00
    2.874302e+00    2.399230e+01    3.995596e+00    7.668881e+07    2.383429e-08    7.475155e-10    2.289648e-08   -2.671845e+00
    2.902863e+00    2.529092e+01    3.938304e+00    7.643040e+07    2.380618e-08    7.205310e-10    2.288511e-08   -2.666845e+00
    2.931660e+00    2.665523e+01    3.881276e+00    7.615926e+07    2.377856e-08    6.944770e-10    2.287337e-08   -2.661845e+00
    2.960704e+00    2.808721e+01    3.824520e+00    7.587575e+07    2.375140e-08    6.693285e-10    2.286124e-08   -2.656845e+00
    2.990013e+00    2.958885e+01    3.768046e+00    7.558033e+07    2.372469e-08    6.450605e-10    2.284873e-08   -2.651845e+00
    3.019597e+00    3.116206e+01    3.711858e+00    7.527337e+07    2.369841e-08    6.216485e-10    2.283585e-08   -2.646845e+00
    3.049472e+00    3.280873e+01    3.655965e+00    7.495526e+07    2.367253e-08    5.990660e-10    2.282260e-08   -2.641845e+00
    3.079652e+00    3.453071e+01    3.600373e+00    7.462641e+07    2.364704e-08    5.772895e-10    2.280898e-08   -2.636845e+00
    3.110156e+00    3.632984e+01    3.545088e+00    7.428723e+07    2.362192e-08    5.562940e-10    2.279500e-08   -2.631845e+00
    3.140995e+00    3.820786e+01    3.490117e+00    7.393803e+07    2.359715e-08    5.360555e-10    2.278066e-08   -2.626845e+00
    3.172189e+00    4.016654e+01    3.435466e+00    7.357926e+07    2.357270e-08    5.165495e-10    2.276595e-08   -2.621845e+00
    3.203755e+00    4.220761e+01    3.381139e+00    7.321126e+07    2.354857e-08    4.977527e-10    2.275088e-08   -2.616845e+00
    3.235708e+00    4.433273e+01    3.327144e+00    7.283437e+07    2.352473e-08    4.796420e-10    2.273545e-08   -2.611845e+00
    3.268069e+00    4.654357e+01    3.273484e+00    7.244897e+07    2.350116e-08    4.621945e-10    2.271966e-08   -2.606845e+00
    3.300852e+00    4.884176e+01    3.220166e+00    7.205535e+07    2.347784e-08    4.453880e-10    2.270352e-08   -2.601845e+00
    3.334078e+00    5.122890e+01    3.167193e+00    7.165387e+07    2.345475e-08    4.292008e-10    2.268700e-08   -2.596845e+00
    3.367766e+00    5.370661e+01    3.114571e+00    7.124480e+07    2.343188e-08    4.136114e-10    2.267013e-08   -2.591845e+00
    3.401935e+00    5.627645e+01    3.062303e+00    7.082847e+07    2.340919e-08    3.985991e-10    2.265290e-08   -2.586845e+00
    3.436601e+00    5.893998e+01    3.010395e+00    7.040510e+07    2.338668e-08    3.841435e-10    2.263529e-08   -2.581845e+00
    3.471789e+00    6.169883e+01    2.958849e+00    6.997502e+07    2.336433e-08    3.702250e-10    2.261732e-08   -2.576845e+00
    3.507516e+00    6.455450e+01    2.907671e+00    6.953845e+07    2.334210e-08    3.568242e-10    2.259897e-08   -2.571845e+00
    3.543803e+00    6.750860e+01    2.856863e+00    6.909566e+07    2.331999e-08    3.439226e-10    2.258024e-08   -2.566845e+00
    3.580674e+00    7.056279e+01    2.806430e+00    6.864691e+07    2.329797e-08    3.315019e-10    2.256114e-08   -2.561845e+00
    3.618145e+00    7.371857e+01    2.756375e+00    6.819233e+07    2.327603e-08    3.195445e-10    2.254164e-08   -2.556845e+00
    3.656242e+00    7.697765e+01    2.706702e+00    6.773217e+07    2.325415e-08    3.080335e-10    2.252175e-08   -2.551845e+00
    3.694987e+00    8.034166e+01    2.657413e+00    6.726665e+07    2.323230e-08    2.969523e-10    2.250147e-08   -2.546845e+00
    3.734404e+00    8.381237e+01    2.608512e+00    6.679596e+07    2.321047e-08    2.862848e-10    2.248077e-08   -2.541845e+00
    3.774513e+00    8.739142e+01    2.560002e+00    6.632025e+07    2.318863e-08    2.760155e-10    2.245967e-08   -2.536845e+00
    3.815342e+00    9.108063e+01    2.511885e+00    6.583967e+07    2.316678e-08    2.661296e-10    2.243814e-08   -2.531845e+00
    3.856917e+00    9.488187e+01    2.464165e+00    6.535445e+07    2.314489e-08    2.566125e-10    2.241618e-08   -2.526845e+00
    3.899259e+00    9.879700e+01    2.416845e+00    6.486468e+07    2.312293e-08    2.474503e-10    2.239379e-08   -2.521845e+00
    3.942398e+00    1.028280e+02    2.369927e+00    6.437051e+07    2.310088e-08    2.386295e-10    2.237095e-08   -2.516845e+00
    3.986360e+00    1.069769e+02    2.323414e+00    6.387207e+07    2.307875e-08    2.301371e-10    2.234764e-08   -2.511845e+00
    4.031173e+00    1.112459e+02    2.277309e+00    6.336950e+07    2.305649e-08    2.219605e-10    2.232387e-08   -2.506845e+00
    4.076866e+00    1.156369e+02    2.231613e+00    6.286288e+07    2.303409e-08    2.140876e-10    2.229962e-08   -2.501845e+00
    4.123470e+00    1.201524e+02    2.186330e+00    6.235239e+07    2.301153e-08    2.065069e-10    2.227487e-08   -2.496845e+00
    4.171015e+00    1.247947e+02    2.141461e+00    6.183807e+07    2.298879e-08    1.992070e-10    2.224961e-08   -2.491845e+00
    4.219533e+00    1.295663e+02    2.097010e+00    6.132003e+07    2.296585e-08    1.921771e-10    2.222383e-08   -2.486845e+00
    4.269056e+00    1.344697e+02    2.052978e+00    6.079836e+07    2.294269e-08    1.854070e-10    2.219751e-08   -2.481845e+00
    4.319620e+00    1.395075e+02    2.009368e+00    6.027318e+07    2.291928e-08    1.788866e-10    2.217065e-08   -2.476845e+00
    4.371261e+00    1.446826e+02    1.966181e+00    5.974454e+07    2.289561e-08    1.726062e-10    2.214322e-08   -2.471845e+00
    4.424011e+00    1.499978e+02    1.923421e+00    5.921247e+07    2.287165e-08    1.665565e-10    2.211521e-08   -2.466845e+00
    4.477913e+00    1.554565e+02    1.881090e+00    5.867711e+07    2.284738e-08    1.607287e-10    2.208659e-08   -2.461845e+00
    4.533002e+00    1.610612e+02    1.839188e+00    5.813846e+07    2.282279e-08    1.551142e-10    2.205736e-08   -2.456845e+00
    4.589324e+00    1.668157e+02    1.797720e+00    5.759665e+07    2.279784e-08    1.497047e-10    2.202748e-08   -2.451845e+00
    4.646918e+00    1.727232e+02    1.756686e+00    5.705165e+07    2.277251e-08    1.444925e-10    2.199695e-08   -2.446845e+00
    4.705828e+00    1.787874e+02    1.716089e+00    5.650356e+07    2.274680e-08    1.394699e-10    2.196574e-08   -2.441845e+00
    4.766099e+00    1.850118e+02    1.675930e+00    5.595237e+07    2.272065e-08    1.346295e-10    2.193383e-08   -2.436845e+00
    4.827782e+00    1.914007e+02    1.636213e+00    5.539819e+07    2.269406e-08    1.299643e-10    2.190120e-08   -2.431845e+00
    4.890921e+00    1.979577e+02    1.596939e+00    5.484097e+07    2.266699e-08    1.254677e-10    2.186782e-08   -2.426845e+00
    4.955573e+00    2.046874e+02    1.558109e+00    5.428081e+07    2.263943e-08    1.211332e-10    2.183367e-08   -2.421845e+00
    5.021784e+00    2.115940e+02    1.519726e+00    5.371766e+07    2.261134e-08    1.169544e-10    2.179873e-08   -2.416845e+00
    5.089614e+00    2.186820e+02    1.481792e+00    5.315160e+07    2.258270e-08    1.129256e-10    2.176296e-08   -2.411845e+00
    5.159118e+00    2.259563e+02    1.444309e+00    5.258257e+07    2.255350e-08    1.090409e-10    2.172635e-08   -2.406845e+00
    5.230359e+00    2.334220e+02    1.407279e+00    5.201068e+07    2.252368e-08    1.052949e-10    2.168886e-08   -2.401845e+00
    5.303395e+00    2.410839e+02    1.370704e+00    5.143585e+07    2.249324e-08    1.016822e-10    2.165046e-08   -2.396845e+00
    5.378290e+00    2.489474e+02    1.334586e+00    5.085808e+07    2.246213e-08    9.819785e-11    2.161113e-08   -2.391845e+00
    5.455116e+00    2.570182e+02    1.298927e+00    5.027742e+07    2.243034e-08    9.483690e-11    2.157083e-08   -2.386845e+00
    5.533938e+00    2.653021e+02    1.263729e+00    4.969383e+07    2.239782e-08    9.159475e-11    2.152953e-08   -2.381845e+00
    5.614822e+00    2.738045e+02    1.228994e+00    4.910724e+07    2.236455e-08    8.846690e-11    2.148720e-08   -2.376845e+00
    5.697854e+00    2.825322e+02    1.194724e+00    4.851772e+07    2.233050e-08    8.544900e-11    2.144381e-08   -2.371845e+00
    5.783109e+00    2.914914e+02    1.160921e+00    4.792521e+07    2.229564e-08    8.253695e-11    2.139931e-08   -2.366845e+00
    5.870660e+00    3.006882e+02    1.127587e+00    4.732965e+07    2.225993e-08    7.972675e-11    2.135367e-08   -2.361845e+00
    5.960596e+00    3.101298e+02    1.094725e+00    4.673103e+07    2.222334e-08    7.701460e-11    2.130685e-08   -2.356845e+00
    6.053003e+00    3.198230e+02    1.062336e+00    4.612932e+07    2.218583e-08    7.439690e-11    2.125882e-08   -2.351845e+00
    6.147971e+00    3.297750e+02    1.030422e+00    4.552447e+07    2.214737e-08    7.187010e-11    2.120953e-08   -2.346845e+00
    6.245588e+00    3.399929e+02    9.989860e-01    4.491639e+07    2.210793e-08    6.943080e-11    2.115895e-08   -2.341845e+00
    6.345955e+00    3.504845e+02    9.680300e-01    4.430510e+07    2.206746e-08    6.707580e-11    2.110701e-08   -2.336845e+00
    6.449167e+00    3.612572e+02    9.375560e-01    4.369048e+07    2.202593e-08    6.480200e-11    2.105371e-08   -2.331845e+00
    6.555330e+00    3.723190e+02    9.075660e-01    4.307252e+07    2.198329e-08    6.260635e-11    2.099897e-08   -2.326845e+00
    6.664539e+00    3.836775e+02    8.780630e-01    4.245108e+07    2.193952e-08    6.048605e-11    2.094276e-08   -2.321845e+00
    6.776920e+00    3.953412e+02    8.490480e-01    4.182620e+07    2.189457e-08    5.843835e-11    2.088502e-08   -2.316845e+00
    6.892561e+00    4.073174e+02    8.205245e-01    4.119768e+07    2.184840e-08    5.646055e-11    2.082572e-08   -2.311845e+00
    7.011597e+00    4.196150e+02    7.924935e-01    4.056553e+07    2.180096e-08    5.455015e-11    2.076480e-08   -2.306845e+00
    7.134126e+00    4.322413e+02    7.649585e-01    3.992963e+07    2.175222e-08    5.270470e-11    2.070220e-08   -2.301845e+00
    7.260278e+00    4.452052e+02    7.379215e-01    3.928993e+07    2.170213e-08    5.092190e-11    2.063788e-08   -2.296845e+00
    7.390172e+00    4.585138e+02    7.113840e-01    3.864630e+07    2.165064e-08    4.919942e-11    2.057179e-08   -2.291845e+00
    7.523928e+00    4.721753e+02    6.853495e-01    3.799871e+07    2.159773e-08    4.753514e-11    2.050386e-08   -2.286845e+00
    7.661673e+00    4.861974e+02    6.598200e-01    3.734707e+07    2.154332e-08    4.592698e-11    2.043406e-08   -2.281845e+00
    7.803532e+00    5.005865e+02    6.347970e-01    3.669125e+07    2.148739e-08    4.437293e-11    2.036231e-08   -2.276845e+00
    7.949625e+00    5.153498e+02    6.102840e-01    3.603122e+07    2.142988e-08    4.287109e-11    2.028857e-08   -2.271845e+00
    8.100085e+00    5.304935e+02    5.862825e-01    3.536690e+07    2.137075e-08    4.141959e-11    2.021277e-08   -2.266845e+00
    8.255026e+00    5.460230e+02    5.627955e-01    3.469819e+07    2.130995e-08    4.001668e-11    2.013485e-08   -2.261845e+00
    8.414581e+00    5.619431e+02    5.398245e-01    3.402507e+07    2.124742e-08    3.866064e-11    2.005477e-08   -2.256845e+00
    8.578865e+00    5.782579e+02    5.173720e-01    3.334746e+07    2.118313e-08    3.734983e-11    1.997245e-08   -2.251845e+00
    8.747985e+00    5.949696e+02    4.954405e-01    3.266533e+07    2.111702e-08    3.608267e-11    1.988783e-08   -2.246845e+00
    8.922057e+00    6.120796e+02    4.740318e-01    3.197865e+07    2.104905e-08    3.485765e-11    1.980087e-08   -2.241845e+00
    9.101182e+00    6.295882e+02    4.531478e-01    3.128742e+07    2.097916e-08    3.367331e-11    1.971148e-08   -2.236845e+00
    9.285451e+00    6.474935e+02    4.327905e-01    3.059165e+07    2.090731e-08    3.252825e-11    1.961963e-08   -2.231845e+00
    9.474945e+00    6.657916e+02    4.129618e-01    2.989137e+07    2.083344e-08    3.142111e-11    1.952523e-08   -2.226845e+00
    9.669734e+00    6.844761e+02    3.936632e-01    2.918665e+07    2.075751e-08    3.035060e-11    1.942824e-08   -2.221845e+00
    9.869868e+00    7.035389e+02    3.748961e-01    2.847758e+07    2.067946e-08    2.931547e-11    1.932858e-08   -2.216845e+00
    1.007538e+01    7.229692e+02    3.566618e-01    2.776429e+07    2.059926e-08    2.831451e-11    1.922620e-08   -2.211845e+00
    1.028629e+01    7.427518e+02    3.389613e-01    2.704695e+07    2.051686e-08    2.734656e-11    1.912104e-08   -2.206845e+00
    1.050259e+01    7.628693e+02    3.217954e-01    2.632578e+07    2.043220e-08    2.641052e-11    1.901304e-08   -2.201845e+00
    1.072423e+01    7.833001e+02    3.051646e-01    2.560103e+07    2.034524e-08    2.550530e-11    1.890214e-08   -2.196845e+00
    1.095114e+01    8.040186e+02    2.890689e-01    2.487301e+07    2.025594e-08    2.462988e-11    1.878829e-08   -2.191845e+00
    1.118322e+01    8.249947e+02    2.735081e-01    2.414211e+07    2.016425e-08    2.378325e-11    1.867143e-08   -2.186845e+00
    1.142034e+01    8.461936e+02    2.584816e-01    2.340875e+07    2.007014e-08    2.296446e-11    1.855150e-08   -2.181845e+00
    1.166229e+01    8.675760e+02    2.439882e-01    2.267343e+07    1.997356e-08    2.217259e-11    1.842845e-08   -2.176845e+00
    1.190885e+01    8.890962e+02    2.300264e-01    2.193672e+07    1.987448e-08    2.140673e-11    1.830224e-08   -2.171845e+00
    1.215973e+01    9.107043e+02    2.165939e-01    2.119928e+07    1.977285e-08    2.066605e-11    1.817282e-08   -2.166845e+00
    1.241460e+01    9.323438e+02    2.036881e-01    2.046180e+07    1.966865e-08    1.994971e-11    1.804014e-08   -2.161845e+00
    1.267306e+01    9.539531e+02    1.913056e-01    1.972510e+07    1.956185e-08    1.925690e-11    1.790416e-08   -2.156845e+00
    1.293464e+01    9.754644e+02    1.794424e-01    1.899004e+07    1.945242e-08    1.858687e-11    1.776485e-08   -2.151845e+00
    1.319884e+01    9.968049e+02    1.680937e-01    1.825758e+07    1.934034e-08    1.793887e-11    1.762217e-08   -2.146845e+00
    1.346505e+01    1.017896e+03    1.572540e-01    1.752873e+07    1.922557e-08    1.731219e-11    1.747609e-08   -2.141845e+00
    1.373264e+01    1.038654e+03    1.469171e-01    1.680461e+07    1.910812e-08    1.670614e-11    1.732659e-08   -2.136845e+00
    1.400086e+01    1.058991e+03    1.370759e-01    1.608635e+07    1.898796e-08    1.612004e-11    1.717364e-08   -2.131845e+00
    1.426894e+01    1.078817e+03    1.277225e-01    1.537518e+07    1.886510e-08    1.555328e-11    1.701724e-08   -2.126845e+00
    1.453603e+01    1.098036e+03    1.188482e-01    1.467236e+07    1.873952e-08    1.500520e-11    1.685738e-08   -2.121845e+00
    1.480121e+01    1.116552e+03    1.104434e-01    1.397920e+07    1.861122e-08    1.447524e-11    1.669403e-08   -2.116845e+00
    1.506354e+01    1.134270e+03    1.024976e-01    1.329702e+07    1.848021e-08    1.396279e-11    1.652723e-08   -2.111845e+00
    1.532201e+01    1.151093e+03    9.499975e-02    1.262714e+07    1.834650e-08    1.346732e-11    1.635697e-08   -2.106845e+00
    1.557558e+01    1.166930e+03    8.793765e-02    1.197089e+07    1.821012e-08    1.298827e-11    1.618326e-08   -2.101845e+00
    1.582320e+01    1.181689e+03    8.129855e-02    1.132957e+07    1.807108e-08    1.252512e-11    1.600614e-08   -2.096845e+00
    1.606379e+01    1.195288e+03    7.506900e-02    1.070441e+07    1.792942e-08    1.207738e-11    1.582562e-08   -2.091845e+00
    1.629632e+01    1.207653e+03    6.923480e-02    1.009663e+07    1.778515e-08    1.164455e-11    1.564176e-08   -2.086845e+00
    1.651973e+01    1.218715e+03    6.378125e-02    9.507321e+06    1.763835e-08    1.122617e-11    1.545459e-08   -2.081845e+00
    1.673303e+01    1.228421e+03    5.869315e-02    8.937505e+06    1.748904e-08    1.082178e-11    1.526417e-08   -2.076845e+00
    1.693529e+01    1.236725e+03    5.395485e-02    8.388070e+06    1.733729e-08    1.043094e-11    1.507057e-08   -2.071845e+00
