# sky130 pfet_01v8 gm/ID Processed Lookup Table
# Corner: fs
# Temperature: 0C
# W = 2.0 um
# L = 1.62 um (1620 nm)
# Columns: gm/id [1/V]  gm/gds [V/V]  id/W [A/m]  ft [Hz]  Cgg/W [F/m]  Cgd/W [F/m]  Cgs/W [F/m]  Vov [V]
#         gm/id          gm/gds            id/W              ft           Cgg/W           Cgd/W           Cgs/W             Vov
    1.965285e+00    4.147041e+00    1.418059e+01    4.151558e+08    1.068387e-08    8.503985e-10    9.772890e-09   -2.812726e+00
    1.986744e+00    4.283754e+00    1.404117e+01    4.162798e+08    1.066547e-08    8.253200e-10    9.774420e-09   -2.807726e+00
    2.008491e+00    4.427682e+00    1.390162e+01    4.173646e+08    1.064732e-08    8.007290e-10    9.775730e-09   -2.802726e+00
    2.030527e+00    4.579287e+00    1.376196e+01    4.184080e+08    1.062941e-08    7.766305e-10    9.776830e-09   -2.797726e+00
    2.052846e+00    4.739051e+00    1.362219e+01    4.194076e+08    1.061176e-08    7.530315e-10    9.777715e-09   -2.792726e+00
    2.075450e+00    4.907493e+00    1.348232e+01    4.203610e+08    1.059436e-08    7.299350e-10    9.778380e-09   -2.787726e+00
    2.098334e+00    5.085155e+00    1.334238e+01    4.212655e+08    1.057723e-08    7.073460e-10    9.778835e-09   -2.782726e+00
    2.121495e+00    5.272611e+00    1.320236e+01    4.221191e+08    1.056036e-08    6.852665e-10    9.779080e-09   -2.777726e+00
    2.144929e+00    5.470471e+00    1.306230e+01    4.229189e+08    1.054376e-08    6.636985e-10    9.779110e-09   -2.772726e+00
    2.168634e+00    5.679371e+00    1.292219e+01    4.236626e+08    1.052743e-08    6.426430e-10    9.778930e-09   -2.767726e+00
    2.192603e+00    5.899977e+00    1.278207e+01    4.243476e+08    1.051137e-08    6.220995e-10    9.778540e-09   -2.762726e+00
    2.216832e+00    6.132995e+00    1.264194e+01    4.249715e+08    1.049559e-08    6.020680e-10    9.777945e-09   -2.757726e+00
    2.241315e+00    6.379153e+00    1.250182e+01    4.255320e+08    1.048006e-08    5.825460e-10    9.777140e-09   -2.752726e+00
    2.266047e+00    6.639214e+00    1.236173e+01    4.260266e+08    1.046482e-08    5.635320e-10    9.776135e-09   -2.747726e+00
    2.291022e+00    6.913969e+00    1.222171e+01    4.264533e+08    1.044984e-08    5.450220e-10    9.774930e-09   -2.742726e+00
    2.316234e+00    7.204237e+00    1.208174e+01    4.268094e+08    1.043514e-08    5.270130e-10    9.773530e-09   -2.737726e+00
    2.341677e+00    7.510862e+00    1.194187e+01    4.270935e+08    1.042069e-08    5.094995e-10    9.771930e-09   -2.732726e+00
    2.367344e+00    7.834710e+00    1.180211e+01    4.273030e+08    1.040651e-08    4.924774e-10    9.770135e-09   -2.727726e+00
    2.393232e+00    8.176668e+00    1.166248e+01    4.274367e+08    1.039260e-08    4.759404e-10    9.768155e-09   -2.722726e+00
    2.419333e+00    8.537645e+00    1.152301e+01    4.274928e+08    1.037894e-08    4.598822e-10    9.765985e-09   -2.717726e+00
    2.445644e+00    8.918560e+00    1.138371e+01    4.274699e+08    1.036553e-08    4.442962e-10    9.763625e-09   -2.712726e+00
    2.472157e+00    9.320341e+00    1.124461e+01    4.273667e+08    1.035237e-08    4.291750e-10    9.761090e-09   -2.707726e+00
    2.498872e+00    9.743925e+00    1.110573e+01    4.271821e+08    1.033947e-08    4.145111e-10    9.758370e-09   -2.702726e+00
    2.525783e+00    1.019025e+01    1.096710e+01    4.269158e+08    1.032680e-08    4.002962e-10    9.755475e-09   -2.697726e+00
    2.552889e+00    1.066026e+01    1.082873e+01    4.265671e+08    1.031437e-08    3.865223e-10    9.752405e-09   -2.692726e+00
    2.580189e+00    1.115489e+01    1.069066e+01    4.261354e+08    1.030216e-08    3.731805e-10    9.749160e-09   -2.687726e+00
    2.607680e+00    1.167504e+01    1.055290e+01    4.256211e+08    1.029018e-08    3.602619e-10    9.745750e-09   -2.682726e+00
    2.635364e+00    1.222164e+01    1.041548e+01    4.250240e+08    1.027842e-08    3.477574e-10    9.742175e-09   -2.677726e+00
    2.663241e+00    1.279556e+01    1.027843e+01    4.243446e+08    1.026688e-08    3.356578e-10    9.738430e-09   -2.672726e+00
    2.691316e+00    1.339768e+01    1.014175e+01    4.235836e+08    1.025554e-08    3.239535e-10    9.734530e-09   -2.667726e+00
    2.719590e+00    1.402883e+01    1.000549e+01    4.227418e+08    1.024440e-08    3.126350e-10    9.730465e-09   -2.662726e+00
    2.748069e+00    1.468983e+01    9.869650e+00    4.218200e+08    1.023346e-08    3.016927e-10    9.726250e-09   -2.657726e+00
    2.776759e+00    1.538146e+01    9.734265e+00    4.208197e+08    1.022270e-08    2.911170e-10    9.721875e-09   -2.652726e+00
    2.805665e+00    1.610446e+01    9.599360e+00    4.197420e+08    1.021211e-08    2.808981e-10    9.717350e-09   -2.647726e+00
    2.834796e+00    1.685956e+01    9.464950e+00    4.185885e+08    1.020171e-08    2.710264e-10    9.712670e-09   -2.642726e+00
    2.864161e+00    1.764743e+01    9.331055e+00    4.173606e+08    1.019147e-08    2.614921e-10    9.707845e-09   -2.637726e+00
    2.893770e+00    1.846873e+01    9.197700e+00    4.160604e+08    1.018139e-08    2.522857e-10    9.702870e-09   -2.632726e+00
    2.923634e+00    1.932406e+01    9.064900e+00    4.146891e+08    1.017147e-08    2.433977e-10    9.697745e-09   -2.627726e+00
    2.953763e+00    2.021400e+01    8.932680e+00    4.132490e+08    1.016169e-08    2.348186e-10    9.692480e-09   -2.622726e+00
    2.984171e+00    2.113910e+01    8.801055e+00    4.117421e+08    1.015204e-08    2.265391e-10    9.687070e-09   -2.617726e+00
    3.014869e+00    2.209989e+01    8.670050e+00    4.101702e+08    1.014252e-08    2.185500e-10    9.681515e-09   -2.612726e+00
    3.045874e+00    2.309684e+01    8.539670e+00    4.085351e+08    1.013314e-08    2.108423e-10    9.675820e-09   -2.607726e+00
    3.077197e+00    2.413044e+01    8.409945e+00    4.068389e+08    1.012386e-08    2.034070e-10    9.669980e-09   -2.602726e+00
    3.108856e+00    2.520111e+01    8.280885e+00    4.050837e+08    1.011470e-08    1.962355e-10    9.664005e-09   -2.597726e+00
    3.140864e+00    2.630928e+01    8.152510e+00    4.032710e+08    1.010564e-08    1.893190e-10    9.657885e-09   -2.592726e+00
    3.173238e+00    2.745538e+01    8.024835e+00    4.014034e+08    1.009667e-08    1.826492e-10    9.651625e-09   -2.587726e+00
    3.205997e+00    2.863979e+01    7.897870e+00    3.994822e+08    1.008779e-08    1.762180e-10    9.645220e-09   -2.582726e+00
    3.239158e+00    2.986293e+01    7.771630e+00    3.975095e+08    1.007899e-08    1.700171e-10    9.638675e-09   -2.577726e+00
    3.272733e+00    3.112514e+01    7.646140e+00    3.954873e+08    1.007026e-08    1.640390e-10    9.631990e-09   -2.572726e+00
    3.306747e+00    3.242685e+01    7.521400e+00    3.934168e+08    1.006160e-08    1.582758e-10    9.625165e-09   -2.567726e+00
    3.341214e+00    3.376846e+01    7.397430e+00    3.913000e+08    1.005300e-08    1.527203e-10    9.618190e-09   -2.562726e+00
    3.376157e+00    3.515033e+01    7.274240e+00    3.891387e+08    1.004445e-08    1.473650e-10    9.611075e-09   -2.557726e+00
    3.411591e+00    3.657290e+01    7.151845e+00    3.869344e+08    1.003594e-08    1.422030e-10    9.603815e-09   -2.552726e+00
    3.447542e+00    3.803658e+01    7.030250e+00    3.846884e+08    1.002747e-08    1.372275e-10    9.596405e-09   -2.547726e+00
    3.484023e+00    3.954183e+01    6.909475e+00    3.824023e+08    1.001903e-08    1.324317e-10    9.588845e-09   -2.542726e+00
    3.521060e+00    4.108911e+01    6.789525e+00    3.800775e+08    1.001061e-08    1.278093e-10    9.581135e-09   -2.537726e+00
    3.558671e+00    4.267891e+01    6.670415e+00    3.777154e+08    1.000222e-08    1.233541e-10    9.573270e-09   -2.532726e+00
    3.596881e+00    4.431173e+01    6.552150e+00    3.753171e+08    9.993825e-09    1.190600e-10    9.565250e-09   -2.527726e+00
    3.635710e+00    4.598811e+01    6.434745e+00    3.728838e+08    9.985440e-09    1.149211e-10    9.557075e-09   -2.522726e+00
    3.675182e+00    4.770870e+01    6.318205e+00    3.704169e+08    9.977045e-09    1.109319e-10    9.548735e-09   -2.517726e+00
    3.715318e+00    4.947405e+01    6.202545e+00    3.679173e+08    9.968640e-09    1.070867e-10    9.540230e-09   -2.512726e+00
    3.756148e+00    5.128484e+01    6.087765e+00    3.653861e+08    9.960215e-09    1.033802e-10    9.531560e-09   -2.507726e+00
    3.797692e+00    5.314176e+01    5.973880e+00    3.628244e+08    9.951760e-09    9.980755e-11    9.522720e-09   -2.502726e+00
    3.839973e+00    5.504553e+01    5.860900e+00    3.602328e+08    9.943275e-09    9.636365e-11    9.513700e-09   -2.497726e+00
    3.883026e+00    5.699697e+01    5.748825e+00    3.576126e+08    9.934745e-09    9.304370e-11    9.504505e-09   -2.492726e+00
    3.926868e+00    5.899691e+01    5.637675e+00    3.549645e+08    9.926165e-09    8.984315e-11    9.495130e-09   -2.487726e+00
    3.971535e+00    6.104622e+01    5.527445e+00    3.522893e+08    9.917530e-09    8.675760e-11    9.485565e-09   -2.482726e+00
    4.017050e+00    6.314582e+01    5.418150e+00    3.495874e+08    9.908835e-09    8.378270e-11    9.475805e-09   -2.477726e+00
    4.063442e+00    6.529673e+01    5.309800e+00    3.468601e+08    9.900065e-09    8.091435e-11    9.465850e-09   -2.472726e+00
    4.110750e+00    6.749999e+01    5.202390e+00    3.441078e+08    9.891215e-09    7.814860e-11    9.455690e-09   -2.467726e+00
    4.158992e+00    6.975671e+01    5.095945e+00    3.413312e+08    9.882275e-09    7.548160e-11    9.445325e-09   -2.462726e+00
    4.208213e+00    7.206805e+01    4.990455e+00    3.385308e+08    9.873245e-09    7.290965e-11    9.434745e-09   -2.457726e+00
    4.258441e+00    7.443527e+01    4.885936e+00    3.357073e+08    9.864105e-09    7.042925e-11    9.423940e-09   -2.452726e+00
    4.309710e+00    7.685963e+01    4.782393e+00    3.328610e+08    9.854860e-09    6.803695e-11    9.412915e-09   -2.447726e+00
    4.362057e+00    7.934250e+01    4.679831e+00    3.299925e+08    9.845495e-09    6.572940e-11    9.401650e-09   -2.442726e+00
    4.415521e+00    8.188536e+01    4.578258e+00    3.271024e+08    9.836000e-09    6.350355e-11    9.390150e-09   -2.437726e+00
    4.470137e+00    8.448967e+01    4.477679e+00    3.241911e+08    9.826365e-09    6.135625e-11    9.378400e-09   -2.432726e+00
    4.525949e+00    8.715703e+01    4.378101e+00    3.212588e+08    9.816585e-09    5.928460e-11    9.366390e-09   -2.427726e+00
    4.582996e+00    8.988915e+01    4.279531e+00    3.183060e+08    9.806655e-09    5.728580e-11    9.354120e-09   -2.422726e+00
    4.641322e+00    9.268770e+01    4.181972e+00    3.153330e+08    9.796560e-09    5.535710e-11    9.341575e-09   -2.417726e+00
    4.700972e+00    9.555458e+01    4.085433e+00    3.123402e+08    9.786290e-09    5.349595e-11    9.328750e-09   -2.412726e+00
    4.761992e+00    9.849165e+01    3.989920e+00    3.093279e+08    9.775835e-09    5.169975e-11    9.315635e-09   -2.407726e+00
    4.824430e+00    1.015009e+02    3.895436e+00    3.062962e+08    9.765190e-09    4.996618e-11    9.302220e-09   -2.402726e+00
    4.888339e+00    1.045846e+02    3.801989e+00    3.032454e+08    9.754345e-09    4.829286e-11    9.288495e-09   -2.397726e+00
    4.953768e+00    1.077447e+02    3.709583e+00    3.001757e+08    9.743285e-09    4.667757e-11    9.274450e-09   -2.392726e+00
    5.020771e+00    1.109837e+02    3.618227e+00    2.970873e+08    9.732000e-09    4.511818e-11    9.260075e-09   -2.387726e+00
    5.089405e+00    1.143038e+02    3.527923e+00    2.939803e+08    9.720485e-09    4.361261e-11    9.245355e-09   -2.382726e+00
    5.159729e+00    1.177076e+02    3.438678e+00    2.908548e+08    9.708725e-09    4.215889e-11    9.230285e-09   -2.377726e+00
    5.231803e+00    1.211977e+02    3.350498e+00    2.877111e+08    9.696705e-09    4.075511e-11    9.214850e-09   -2.372726e+00
    5.305691e+00    1.247768e+02    3.263389e+00    2.845491e+08    9.684420e-09    3.939944e-11    9.199035e-09   -2.367726e+00
    5.381458e+00    1.284478e+02    3.177355e+00    2.813687e+08    9.671860e-09    3.809011e-11    9.182825e-09   -2.362726e+00
    5.459171e+00    1.322135e+02    3.092402e+00    2.781703e+08    9.659000e-09    3.682544e-11    9.166215e-09   -2.357726e+00
    5.538903e+00    1.360771e+02    3.008537e+00    2.749535e+08    9.645840e-09    3.560380e-11    9.149190e-09   -2.352726e+00
    5.620728e+00    1.400417e+02    2.925764e+00    2.717184e+08    9.632365e-09    3.442363e-11    9.131730e-09   -2.347726e+00
    5.704720e+00    1.441107e+02    2.844090e+00    2.684650e+08    9.618560e-09    3.328341e-11    9.113825e-09   -2.342726e+00
    5.790960e+00    1.482874e+02    2.763518e+00    2.651932e+08    9.604410e-09    3.218171e-11    9.095455e-09   -2.337726e+00
    5.879529e+00    1.525754e+02    2.684057e+00    2.619028e+08    9.589905e-09    3.111713e-11    9.076610e-09   -2.332726e+00
    5.970514e+00    1.569785e+02    2.605710e+00    2.585938e+08    9.575025e-09    3.008835e-11    9.057270e-09   -2.327726e+00
    6.064001e+00    1.615004e+02    2.528485e+00    2.552657e+08    9.559765e-09    2.909406e-11    9.037420e-09   -2.322726e+00
    6.160087e+00    1.661452e+02    2.452385e+00    2.519188e+08    9.544100e-09    2.813306e-11    9.017045e-09   -2.317726e+00
    6.258861e+00    1.709168e+02    2.377417e+00    2.485524e+08    9.528025e-09    2.720414e-11    8.996120e-09   -2.312726e+00
    6.360426e+00    1.758197e+02    2.303588e+00    2.451667e+08    9.511515e-09    2.630616e-11    8.974635e-09   -2.307726e+00
    6.464880e+00    1.808579e+02    2.230902e+00    2.417609e+08    9.494560e-09    2.543802e-11    8.952565e-09   -2.302726e+00
    6.572329e+00    1.860360e+02    2.159365e+00    2.383352e+08    9.477140e-09    2.459868e-11    8.929895e-09   -2.297726e+00
    6.682883e+00    1.913587e+02    2.088983e+00    2.348890e+08    9.459240e-09    2.378711e-11    8.906600e-09   -2.292726e+00
    6.796651e+00    1.968305e+02    2.019763e+00    2.314219e+08    9.440845e-09    2.300235e-11    8.882665e-09   -2.287726e+00
    6.913748e+00    2.024562e+02    1.951709e+00    2.279339e+08    9.421930e-09    2.224344e-11    8.858070e-09   -2.282726e+00
    7.034294e+00    2.082409e+02    1.884828e+00    2.244241e+08    9.402490e-09    2.150949e-11    8.832790e-09   -2.277726e+00
    7.158405e+00    2.141893e+02    1.819127e+00    2.208925e+08    9.382495e-09    2.079963e-11    8.806800e-09   -2.272726e+00
    7.286208e+00    2.203067e+02    1.754610e+00    2.173384e+08    9.361935e-09    2.011302e-11    8.780085e-09   -2.267726e+00
    7.417826e+00    2.265977e+02    1.691284e+00    2.137617e+08    9.340785e-09    1.944885e-11    8.752615e-09   -2.262726e+00
    7.553391e+00    2.330679e+02    1.629155e+00    2.101618e+08    9.319030e-09    1.880638e-11    8.724375e-09   -2.257726e+00
    7.693026e+00    2.397220e+02    1.568229e+00    2.065382e+08    9.296650e-09    1.818482e-11    8.695335e-09   -2.252726e+00
    7.836860e+00    2.465652e+02    1.508513e+00    2.028906e+08    9.273620e-09    1.758348e-11    8.665470e-09   -2.247726e+00
    7.985033e+00    2.536024e+02    1.450012e+00    1.992186e+08    9.249930e-09    1.700167e-11    8.634755e-09   -2.242726e+00
    8.137670e+00    2.608384e+02    1.392731e+00    1.955218e+08    9.225550e-09    1.643871e-11    8.603170e-09   -2.237726e+00
    8.294899e+00    2.682777e+02    1.336677e+00    1.917999e+08    9.200460e-09    1.589398e-11    8.570685e-09   -2.232726e+00
    8.456852e+00    2.759249e+02    1.281857e+00    1.880525e+08    9.174645e-09    1.536686e-11    8.537275e-09   -2.227726e+00
    8.623650e+00    2.837839e+02    1.228275e+00    1.842794e+08    9.148080e-09    1.485674e-11    8.502915e-09   -2.222726e+00
    8.795420e+00    2.918587e+02    1.175937e+00    1.804804e+08    9.120750e-09    1.436307e-11    8.467580e-09   -2.217726e+00
    8.972266e+00    3.001522e+02    1.124848e+00    1.766555e+08    9.092620e-09    1.388530e-11    8.431240e-09   -2.212726e+00
    9.154309e+00    3.086675e+02    1.075014e+00    1.728045e+08    9.063685e-09    1.342289e-11    8.393870e-09   -2.207726e+00
    9.341637e+00    3.174063e+02    1.026439e+00    1.689276e+08    9.033910e-09    1.297534e-11    8.355440e-09   -2.202726e+00
    9.534346e+00    3.263702e+02    9.791290e-01    1.650251e+08    9.003285e-09    1.254215e-11    8.315930e-09   -2.197726e+00
    9.732506e+00    3.355595e+02    9.330870e-01    1.610973e+08    8.971780e-09    1.212285e-11    8.275305e-09   -2.192726e+00
    9.936177e+00    3.449737e+02    8.883175e-01    1.571450e+08    8.939375e-09    1.171699e-11    8.233540e-09   -2.187726e+00
    1.014539e+01    3.546106e+02    8.448235e-01    1.531685e+08    8.906055e-09    1.132413e-11    8.190610e-09   -2.182726e+00
    1.036018e+01    3.644677e+02    8.026075e-01    1.491693e+08    8.871790e-09    1.094383e-11    8.146490e-09   -2.177726e+00
    1.058053e+01    3.745397e+02    7.616725e-01    1.451484e+08    8.836565e-09    1.057570e-11    8.101150e-09   -2.172726e+00
    1.080639e+01    3.848206e+02    7.220190e-01    1.411071e+08    8.800365e-09    1.021934e-11    8.054565e-09   -2.167726e+00
    1.103771e+01    3.953023e+02    6.836485e-01    1.370476e+08    8.763160e-09    9.874375e-12    8.006715e-09   -2.162726e+00
    1.127439e+01    4.059743e+02    6.465595e-01    1.329718e+08    8.724935e-09    9.540430e-12    7.957565e-09   -2.157726e+00
    1.151627e+01    4.168243e+02    6.107520e-01    1.288823e+08    8.685675e-09    9.217160e-12    7.907100e-09   -2.152726e+00
    1.176315e+01    4.278369e+02    5.762230e-01    1.247819e+08    8.645355e-09    8.904215e-12    7.855290e-09   -2.147726e+00
    1.201483e+01    4.389952e+02    5.429685e-01    1.206740e+08    8.603965e-09    8.601280e-12    7.802120e-09   -2.142726e+00
    1.227097e+01    4.502782e+02    5.109845e-01    1.165621e+08    8.561490e-09    8.308025e-12    7.747560e-09   -2.137726e+00
    1.253126e+01    4.616629e+02    4.802635e-01    1.124505e+08    8.517905e-09    8.024150e-12    7.691600e-09   -2.132726e+00
    1.279526e+01    4.731229e+02    4.507983e-01    1.083437e+08    8.473205e-09    7.749360e-12    7.634215e-09   -2.127726e+00
    1.306251e+01    4.846287e+02    4.225792e-01    1.042467e+08    8.427380e-09    7.483365e-12    7.575385e-09   -2.122726e+00
    1.333244e+01    4.961467e+02    3.955948e-01    1.001648e+08    8.380410e-09    7.225895e-12    7.515100e-09   -2.117726e+00
    1.360447e+01    5.076423e+02    3.698320e-01    9.610412e+07    8.332290e-09    6.976680e-12    7.453345e-09   -2.112726e+00
    1.387790e+01    5.190759e+02    3.452758e-01    9.207080e+07    8.283010e-09    6.735465e-12    7.390105e-09   -2.107726e+00
    1.415198e+01    5.304051e+02    3.219090e-01    8.807146e+07    8.232565e-09    6.502005e-12    7.325375e-09   -2.102726e+00
    1.442588e+01    5.415859e+02    2.997126e-01    8.411307e+07    8.180950e-09    6.276050e-12    7.259150e-09   -2.097726e+00
    1.469870e+01    5.525709e+02    2.786654e-01    8.020283e+07    8.128165e-09    6.057380e-12    7.191415e-09   -2.092726e+00
    1.496951e+01    5.633109e+02    2.587443e-01    7.634818e+07    8.074205e-09    5.845760e-12    7.122170e-09   -2.087726e+00
    1.523729e+01    5.737562e+02    2.399239e-01    7.255660e+07    8.019080e-09    5.640980e-12    7.051420e-09   -2.082726e+00
    1.550100e+01    5.838551e+02    2.221770e-01    6.883573e+07    7.962785e-09    5.442830e-12    6.979170e-09   -2.077726e+00
    1.575955e+01    5.935561e+02    2.054741e-01    6.519304e+07    7.905330e-09    5.251105e-12    6.905415e-09   -2.072726e+00
    1.601184e+01    6.028099e+02    1.897844e-01    6.163587e+07    7.846725e-09    5.065610e-12    6.830175e-09   -2.067726e+00
    1.625674e+01    6.115662e+02    1.750750e-01    5.817128e+07    7.786980e-09    4.886154e-12    6.753455e-09   -2.062726e+00
    1.649316e+01    6.197793e+02    1.613112e-01    5.480594e+07    7.726115e-09    4.712554e-12    6.675275e-09   -2.057726e+00
