# sky130 pfet_01v8 gm/ID Processed Lookup Table
# Corner: fs
# Temperature: 0C
# W = 2.0 um
# L = 4.68 um (4680 nm)
# Columns: gm/id [1/V]  gm/gds [V/V]  id/W [A/m]  ft [Hz]  Cgg/W [F/m]  Cgd/W [F/m]  Cgs/W [F/m]  Vov [V]
#         gm/id          gm/gds            id/W              ft           Cgg/W           Cgd/W           Cgs/W             Vov
    2.096939e+00    5.668558e+00    4.687961e+00    5.050978e+07    3.097523e-08    2.749328e-09    2.851613e-08   -2.829046e+00
    2.119670e+00    5.899265e+00    4.638802e+00    5.062204e+07    3.091395e-08    2.668031e-09    2.852025e-08   -2.824046e+00
    2.142653e+00    6.144381e+00    4.589635e+00    5.072792e+07    3.085341e-08    2.588187e-09    2.852372e-08   -2.819046e+00
    2.165885e+00    6.404958e+00    4.540465e+00    5.082709e+07    3.079361e-08    2.509827e-09    2.852655e-08   -2.814046e+00
    2.189359e+00    6.682111e+00    4.491296e+00    5.091919e+07    3.073459e-08    2.432981e-09    2.852873e-08   -2.809046e+00
    2.213070e+00    6.977047e+00    4.442136e+00    5.100390e+07    3.067636e-08    2.357674e-09    2.853025e-08   -2.804046e+00
    2.237010e+00    7.291036e+00    4.392991e+00    5.108085e+07    3.061895e-08    2.283928e-09    2.853113e-08   -2.799046e+00
    2.261172e+00    7.625446e+00    4.343866e+00    5.114971e+07    3.056237e-08    2.211761e-09    2.853136e-08   -2.794046e+00
    2.285550e+00    7.981726e+00    4.294771e+00    5.121022e+07    3.050664e-08    2.141190e-09    2.853095e-08   -2.789046e+00
    2.310137e+00    8.361419e+00    4.245710e+00    5.126201e+07    3.045177e-08    2.072227e-09    2.852989e-08   -2.784046e+00
    2.334924e+00    8.766149e+00    4.196692e+00    5.130484e+07    3.039776e-08    2.004882e-09    2.852818e-08   -2.779046e+00
    2.359904e+00    9.197645e+00    4.147723e+00    5.133841e+07    3.034463e-08    1.939160e-09    2.852584e-08   -2.774046e+00
    2.385072e+00    9.657721e+00    4.098812e+00    5.136248e+07    3.029239e-08    1.875065e-09    2.852287e-08   -2.769046e+00
    2.410420e+00    1.014830e+01    4.049966e+00    5.137688e+07    3.024103e-08    1.812597e-09    2.851927e-08   -2.764046e+00
    2.435942e+00    1.067139e+01    4.001193e+00    5.138133e+07    3.019057e-08    1.751753e-09    2.851504e-08   -2.759046e+00
    2.461632e+00    1.122909e+01    3.952502e+00    5.137571e+07    3.014099e-08    1.692527e-09    2.851020e-08   -2.754046e+00
    2.487486e+00    1.182360e+01    3.903900e+00    5.135988e+07    3.009230e-08    1.634912e-09    2.850475e-08   -2.749046e+00
    2.513497e+00    1.245721e+01    3.855395e+00    5.133370e+07    3.004450e-08    1.578896e-09    2.849870e-08   -2.744046e+00
    2.539665e+00    1.313231e+01    3.806998e+00    5.129715e+07    2.999757e-08    1.524466e-09    2.849204e-08   -2.739046e+00
    2.565987e+00    1.385137e+01    3.758714e+00    5.125014e+07    2.995151e-08    1.471608e-09    2.848481e-08   -2.734046e+00
    2.592461e+00    1.461691e+01    3.710552e+00    5.119270e+07    2.990631e-08    1.420302e-09    2.847699e-08   -2.729046e+00
    2.619085e+00    1.543158e+01    3.662522e+00    5.112479e+07    2.986196e-08    1.370529e-09    2.846859e-08   -2.724046e+00
    2.645864e+00    1.629807e+01    3.614631e+00    5.104655e+07    2.981845e-08    1.322268e-09    2.845964e-08   -2.719046e+00
    2.672796e+00    1.721914e+01    3.566886e+00    5.095798e+07    2.977577e-08    1.275496e-09    2.845012e-08   -2.714046e+00
    2.699887e+00    1.819762e+01    3.519298e+00    5.085925e+07    2.973389e-08    1.230189e-09    2.844006e-08   -2.709046e+00
    2.727142e+00    1.923638e+01    3.471872e+00    5.075049e+07    2.969280e-08    1.186319e-09    2.842946e-08   -2.704046e+00
    2.754562e+00    2.033833e+01    3.424617e+00    5.063181e+07    2.965249e-08    1.143859e-09    2.841832e-08   -2.699046e+00
    2.782160e+00    2.150647e+01    3.377541e+00    5.050349e+07    2.961294e-08    1.102783e-09    2.840666e-08   -2.694046e+00
    2.809940e+00    2.274374e+01    3.330651e+00    5.036565e+07    2.957413e-08    1.063060e-09    2.839448e-08   -2.689046e+00
    2.837911e+00    2.405318e+01    3.283954e+00    5.021853e+07    2.953603e-08    1.024660e-09    2.838178e-08   -2.684046e+00
    2.866086e+00    2.543785e+01    3.237458e+00    5.006240e+07    2.949862e-08    9.875530e-10    2.836859e-08   -2.679046e+00
    2.894472e+00    2.690075e+01    3.191168e+00    4.989747e+07    2.946189e-08    9.517070e-10    2.835489e-08   -2.674046e+00
    2.923083e+00    2.844496e+01    3.145092e+00    4.972403e+07    2.942580e-08    9.170910e-10    2.834070e-08   -2.669046e+00
    2.951932e+00    3.007354e+01    3.099237e+00    4.954232e+07    2.939036e-08    8.836730e-10    2.832603e-08   -2.664046e+00
    2.981030e+00    3.178949e+01    3.053607e+00    4.935261e+07    2.935551e-08    8.514210e-10    2.831088e-08   -2.659046e+00
    3.010394e+00    3.359588e+01    3.008209e+00    4.915517e+07    2.932124e-08    8.203030e-10    2.829525e-08   -2.654046e+00
    3.040036e+00    3.549570e+01    2.963050e+00    4.895028e+07    2.928753e-08    7.902865e-10    2.827915e-08   -2.649046e+00
    3.069973e+00    3.749195e+01    2.918134e+00    4.873818e+07    2.925436e-08    7.613400e-10    2.826258e-08   -2.644046e+00
    3.100218e+00    3.958758e+01    2.873466e+00    4.851915e+07    2.922168e-08    7.334315e-10    2.824556e-08   -2.639046e+00
    3.130791e+00    4.178559e+01    2.829052e+00    4.829348e+07    2.918950e-08    7.065295e-10    2.822806e-08   -2.634046e+00
    3.161706e+00    4.408883e+01    2.784896e+00    4.806139e+07    2.915776e-08    6.806025e-10    2.821011e-08   -2.629046e+00
    3.192981e+00    4.650024e+01    2.741003e+00    4.782315e+07    2.912646e-08    6.556205e-10    2.819171e-08   -2.624046e+00
    3.224632e+00    4.902262e+01    2.697377e+00    4.757898e+07    2.909557e-08    6.315525e-10    2.817285e-08   -2.619046e+00
    3.256680e+00    5.165888e+01    2.654024e+00    4.732915e+07    2.906506e-08    6.083690e-10    2.815353e-08   -2.614046e+00
    3.289140e+00    5.441175e+01    2.610946e+00    4.707387e+07    2.903490e-08    5.860405e-10    2.813376e-08   -2.609046e+00
    3.322029e+00    5.728398e+01    2.568147e+00    4.681332e+07    2.900508e-08    5.645380e-10    2.811354e-08   -2.604046e+00
    3.355370e+00    6.027839e+01    2.525632e+00    4.654776e+07    2.897556e-08    5.438335e-10    2.809286e-08   -2.599046e+00
    3.389181e+00    6.339768e+01    2.483404e+00    4.627740e+07    2.894632e-08    5.239000e-10    2.807172e-08   -2.594046e+00
    3.423480e+00    6.664455e+01    2.441466e+00    4.600239e+07    2.891733e-08    5.047100e-10    2.805011e-08   -2.589046e+00
    3.458286e+00    7.002167e+01    2.399822e+00    4.572291e+07    2.888858e-08    4.862373e-10    2.802805e-08   -2.584046e+00
    3.493621e+00    7.353172e+01    2.358475e+00    4.543917e+07    2.886002e-08    4.684565e-10    2.800552e-08   -2.579046e+00
    3.529505e+00    7.717741e+01    2.317427e+00    4.515133e+07    2.883165e-08    4.513426e-10    2.798252e-08   -2.574046e+00
    3.565959e+00    8.096141e+01    2.276682e+00    4.485953e+07    2.880343e-08    4.348717e-10    2.795904e-08   -2.569046e+00
    3.603007e+00    8.488634e+01    2.236242e+00    4.456394e+07    2.877533e-08    4.190199e-10    2.793507e-08   -2.564046e+00
    3.640663e+00    8.895483e+01    2.196111e+00    4.426466e+07    2.874735e-08    4.037647e-10    2.791062e-08   -2.559046e+00
    3.678960e+00    9.316974e+01    2.156290e+00    4.396191e+07    2.871943e-08    3.890839e-10    2.788567e-08   -2.554046e+00
    3.717912e+00    9.753359e+01    2.116782e+00    4.365571e+07    2.869158e-08    3.749561e-10    2.786022e-08   -2.549046e+00
    3.757548e+00    1.020492e+02    2.077591e+00    4.334626e+07    2.866375e-08    3.613607e-10    2.783425e-08   -2.544046e+00
    3.797886e+00    1.067194e+02    2.038717e+00    4.303362e+07    2.863592e-08    3.482774e-10    2.780776e-08   -2.539046e+00
    3.838959e+00    1.115469e+02    2.000164e+00    4.271796e+07    2.860807e-08    3.356870e-10    2.778074e-08   -2.534046e+00
    3.880787e+00    1.165346e+02    1.961932e+00    4.239933e+07    2.858018e-08    3.235706e-10    2.775317e-08   -2.529046e+00
    3.923394e+00    1.216853e+02    1.924025e+00    4.207782e+07    2.855221e-08    3.119103e-10    2.772505e-08   -2.524046e+00
    3.966812e+00    1.270021e+02    1.886445e+00    4.175356e+07    2.852414e-08    3.006885e-10    2.769636e-08   -2.519046e+00
    4.011065e+00    1.324880e+02    1.849195e+00    4.142660e+07    2.849595e-08    2.898884e-10    2.766709e-08   -2.514046e+00
    4.056186e+00    1.381461e+02    1.812274e+00    4.109706e+07    2.846762e-08    2.794938e-10    2.763722e-08   -2.509046e+00
    4.102198e+00    1.439794e+02    1.775686e+00    4.076496e+07    2.843910e-08    2.694891e-10    2.760674e-08   -2.504046e+00
    4.149135e+00    1.499915e+02    1.739432e+00    4.043040e+07    2.841039e-08    2.598591e-10    2.757564e-08   -2.499046e+00
    4.197028e+00    1.561855e+02    1.703515e+00    4.009344e+07    2.838146e-08    2.505893e-10    2.754389e-08   -2.494046e+00
    4.245906e+00    1.625649e+02    1.667936e+00    3.975412e+07    2.835226e-08    2.416658e-10    2.751148e-08   -2.489046e+00
    4.295806e+00    1.691332e+02    1.632697e+00    3.941253e+07    2.832280e-08    2.330751e-10    2.747840e-08   -2.484046e+00
    4.346767e+00    1.758945e+02    1.597799e+00    3.906874e+07    2.829301e-08    2.248042e-10    2.744462e-08   -2.479046e+00
    4.398815e+00    1.828521e+02    1.563245e+00    3.872273e+07    2.826291e-08    2.168408e-10    2.741012e-08   -2.474046e+00
    4.451993e+00    1.900101e+02    1.529035e+00    3.837459e+07    2.823244e-08    2.091727e-10    2.737488e-08   -2.469046e+00
    4.506338e+00    1.973727e+02    1.495173e+00    3.802436e+07    2.820158e-08    2.017886e-10    2.733888e-08   -2.464046e+00
    4.561890e+00    2.049439e+02    1.461658e+00    3.767205e+07    2.817031e-08    1.946775e-10    2.730210e-08   -2.459046e+00
    4.618693e+00    2.127284e+02    1.428494e+00    3.731775e+07    2.813858e-08    1.878286e-10    2.726451e-08   -2.454046e+00
    4.676785e+00    2.207305e+02    1.395681e+00    3.696143e+07    2.810639e-08    1.812317e-10    2.722608e-08   -2.449046e+00
    4.736215e+00    2.289549e+02    1.363222e+00    3.660316e+07    2.807368e-08    1.748771e-10    2.718679e-08   -2.444046e+00
    4.797026e+00    2.374066e+02    1.331117e+00    3.624293e+07    2.804045e-08    1.687554e-10    2.714663e-08   -2.439046e+00
    4.859266e+00    2.460904e+02    1.299368e+00    3.588079e+07    2.800664e-08    1.628575e-10    2.710554e-08   -2.434046e+00
    4.922990e+00    2.550119e+02    1.267978e+00    3.551676e+07    2.797224e-08    1.571746e-10    2.706351e-08   -2.429046e+00
    4.988241e+00    2.641760e+02    1.236946e+00    3.515081e+07    2.793721e-08    1.516986e-10    2.702050e-08   -2.424046e+00
    5.055079e+00    2.735888e+02    1.206276e+00    3.478299e+07    2.790152e-08    1.464213e-10    2.697649e-08   -2.419046e+00
    5.123560e+00    2.832560e+02    1.175968e+00    3.441333e+07    2.786513e-08    1.413351e-10    2.693143e-08   -2.414046e+00
    5.193739e+00    2.931834e+02    1.146025e+00    3.404178e+07    2.782801e-08    1.364327e-10    2.688531e-08   -2.409046e+00
    5.265680e+00    3.033776e+02    1.116448e+00    3.366840e+07    2.779012e-08    1.317069e-10    2.683807e-08   -2.404046e+00
    5.339438e+00    3.138444e+02    1.087237e+00    3.329312e+07    2.775144e-08    1.271509e-10    2.678968e-08   -2.399046e+00
    5.415088e+00    3.245911e+02    1.058396e+00    3.291600e+07    2.771191e-08    1.227583e-10    2.674012e-08   -2.394046e+00
    5.492694e+00    3.356245e+02    1.029925e+00    3.253703e+07    2.767152e-08    1.185228e-10    2.668933e-08   -2.389046e+00
    5.572318e+00    3.469510e+02    1.001826e+00    3.215613e+07    2.763022e-08    1.144383e-10    2.663728e-08   -2.384046e+00
    5.654045e+00    3.585787e+02    9.741000e-01    3.177337e+07    2.758796e-08    1.104992e-10    2.658392e-08   -2.379046e+00
    5.737946e+00    3.705149e+02    9.467500e-01    3.138872e+07    2.754471e-08    1.067000e-10    2.652921e-08   -2.374046e+00
    5.824091e+00    3.827668e+02    9.197770e-01    3.100211e+07    2.750044e-08    1.030352e-10    2.647311e-08   -2.369046e+00
    5.912574e+00    3.953430e+02    8.931820e-01    3.061357e+07    2.745508e-08    9.949975e-11    2.641556e-08   -2.364046e+00
    6.003472e+00    4.082510e+02    8.669675e-01    3.022305e+07    2.740862e-08    9.608885e-11    2.635653e-08   -2.359046e+00
    6.096873e+00    4.214994e+02    8.411345e-01    2.983053e+07    2.736099e-08    9.279780e-11    2.629597e-08   -2.354046e+00
    6.192869e+00    4.350964e+02    8.156850e-01    2.943597e+07    2.731216e-08    8.962205e-11    2.623382e-08   -2.349046e+00
    6.291555e+00    4.490510e+02    7.906205e-01    2.903936e+07    2.726209e-08    8.655735e-11    2.617003e-08   -2.344046e+00
    6.393021e+00    4.633715e+02    7.659430e-01    2.864064e+07    2.721071e-08    8.359950e-11    2.610454e-08   -2.339046e+00
    6.497366e+00    4.780668e+02    7.416545e-01    2.823978e+07    2.715800e-08    8.074455e-11    2.603732e-08   -2.334046e+00
    6.604704e+00    4.931457e+02    7.177555e-01    2.783674e+07    2.710389e-08    7.798870e-11    2.596828e-08   -2.329046e+00
    6.715123e+00    5.086170e+02    6.942495e-01    2.743145e+07    2.704835e-08    7.532820e-11    2.589739e-08   -2.324046e+00
    6.828748e+00    5.244893e+02    6.711365e-01    2.702390e+07    2.699132e-08    7.275965e-11    2.582458e-08   -2.319046e+00
    6.945680e+00    5.407720e+02    6.484195e-01    2.661402e+07    2.693274e-08    7.027955e-11    2.574979e-08   -2.314046e+00
    7.066034e+00    5.574737e+02    6.261000e-01    2.620175e+07    2.687257e-08    6.788475e-11    2.567296e-08   -2.309046e+00
    7.189926e+00    5.746022e+02    6.041800e-01    2.578706e+07    2.681076e-08    6.557210e-11    2.559402e-08   -2.304046e+00
    7.317482e+00    5.921657e+02    5.826605e-01    2.536989e+07    2.674724e-08    6.333860e-11    2.551292e-08   -2.299046e+00
    7.448810e+00    6.101728e+02    5.615445e-01    2.495017e+07    2.668196e-08    6.118135e-11    2.542958e-08   -2.294046e+00
    7.584042e+00    6.286299e+02    5.408330e-01    2.452786e+07    2.661488e-08    5.909765e-11    2.534394e-08   -2.289046e+00
    7.723299e+00    6.475441e+02    5.205280e-01    2.410290e+07    2.654592e-08    5.708480e-11    2.525592e-08   -2.284046e+00
    7.866702e+00    6.669216e+02    5.006315e-01    2.367524e+07    2.647504e-08    5.514030e-11    2.516547e-08   -2.279046e+00
    8.014377e+00    6.867676e+02    4.811454e-01    2.324484e+07    2.640217e-08    5.326170e-11    2.507250e-08   -2.274046e+00
    8.166443e+00    7.070856e+02    4.620713e-01    2.281163e+07    2.632726e-08    5.144660e-11    2.497696e-08   -2.269046e+00
    8.323026e+00    7.278793e+02    4.434112e-01    2.237559e+07    2.625025e-08    4.969275e-11    2.487875e-08   -2.264046e+00
    8.484240e+00    7.491495e+02    4.251667e-01    2.193667e+07    2.617108e-08    4.799802e-11    2.477782e-08   -2.259046e+00
    8.650204e+00    7.708968e+02    4.073396e-01    2.149485e+07    2.608968e-08    4.636029e-11    2.467409e-08   -2.254046e+00
    8.821028e+00    7.931192e+02    3.899315e-01    2.105010e+07    2.600600e-08    4.477757e-11    2.456748e-08   -2.249046e+00
    8.996810e+00    8.158124e+02    3.729442e-01    2.060240e+07    2.591998e-08    4.324792e-11    2.445792e-08   -2.244046e+00
    9.177651e+00    8.389703e+02    3.563790e-01    2.015177e+07    2.583155e-08    4.176949e-11    2.434533e-08   -2.239046e+00
    9.363634e+00    8.625837e+02    3.402374e-01    1.969822e+07    2.574066e-08    4.034050e-11    2.422964e-08   -2.234046e+00
    9.554834e+00    8.866406e+02    3.245208e-01    1.924177e+07    2.564725e-08    3.895923e-11    2.411077e-08   -2.229046e+00
    9.751308e+00    9.111254e+02    3.092304e-01    1.878249e+07    2.555125e-08    3.762403e-11    2.398865e-08   -2.224046e+00
    9.953101e+00    9.360190e+02    2.943671e-01    1.832043e+07    2.545260e-08    3.633332e-11    2.386320e-08   -2.219046e+00
    1.016023e+01    9.612983e+02    2.799320e-01    1.785570e+07    2.535125e-08    3.508556e-11    2.373435e-08   -2.214046e+00
    1.037271e+01    9.869356e+02    2.659256e-01    1.738841e+07    2.524715e-08    3.387930e-11    2.360201e-08   -2.209046e+00
    1.059050e+01    1.012898e+03    2.523483e-01    1.691873e+07    2.514023e-08    3.271311e-11    2.346614e-08   -2.204046e+00
    1.081355e+01    1.039149e+03    2.392006e-01    1.644684e+07    2.503043e-08    3.158562e-11    2.332666e-08   -2.199046e+00
    1.104178e+01    1.065644e+03    2.264822e-01    1.597295e+07    2.491772e-08    3.049555e-11    2.318348e-08   -2.194046e+00
    1.127506e+01    1.092334e+03    2.141928e-01    1.549732e+07    2.480202e-08    2.944162e-11    2.303656e-08   -2.189046e+00
    1.151323e+01    1.119163e+03    2.023315e-01    1.502026e+07    2.468330e-08    2.842261e-11    2.288581e-08   -2.184046e+00
    1.175608e+01    1.146070e+03    1.908975e-01    1.454212e+07    2.456150e-08    2.743736e-11    2.273119e-08   -2.179046e+00
    1.200336e+01    1.172986e+03    1.798889e-01    1.406328e+07    2.443659e-08    2.648475e-11    2.257263e-08   -2.174046e+00
    1.225475e+01    1.199836e+03    1.693040e-01    1.358418e+07    2.430852e-08    2.556367e-11    2.241008e-08   -2.169046e+00
    1.250990e+01    1.226535e+03    1.591402e-01    1.310531e+07    2.417724e-08    2.467310e-11    2.224348e-08   -2.164046e+00
    1.276838e+01    1.252997e+03    1.493946e-01    1.262720e+07    2.404274e-08    2.381201e-11    2.207279e-08   -2.159046e+00
    1.302971e+01    1.279125e+03    1.400637e-01    1.215045e+07    2.390497e-08    2.297945e-11    2.189798e-08   -2.154046e+00
    1.329335e+01    1.304817e+03    1.311433e-01    1.167569e+07    2.376390e-08    2.217446e-11    2.171898e-08   -2.149046e+00
    1.355867e+01    1.329966e+03    1.226287e-01    1.120361e+07    2.361953e-08    2.139616e-11    2.153578e-08   -2.144046e+00
    1.382500e+01    1.354461e+03    1.145146e-01    1.073493e+07    2.347183e-08    2.064366e-11    2.134835e-08   -2.139046e+00
    1.409159e+01    1.378186e+03    1.067949e-01    1.027041e+07    2.332078e-08    1.991614e-11    2.115666e-08   -2.134046e+00
    1.435765e+01    1.401023e+03    9.946310e-02    9.810865e+06    2.316638e-08    1.921276e-11    2.096071e-08   -2.129046e+00
    1.462228e+01    1.422852e+03    9.251180e-02    9.357109e+06    2.300863e-08    1.853277e-11    2.076048e-08   -2.124046e+00
    1.488459e+01    1.443555e+03    8.593300e-02    8.910001e+06    2.284753e-08    1.787538e-11    2.055598e-08   -2.119046e+00
    1.514360e+01    1.463016e+03    7.971805e-02    8.470390e+06    2.268310e-08    1.723990e-11    2.034721e-08   -2.114046e+00
    1.539831e+01    1.481122e+03    7.385760e-02    8.039138e+06    2.251536e-08    1.662560e-11    2.013418e-08   -2.109046e+00
    1.564766e+01    1.497767e+03    6.834180e-02    7.617089e+06    2.234431e-08    1.603181e-11    1.991694e-08   -2.104046e+00
    1.589063e+01    1.512856e+03    6.316015e-02    7.205070e+06    2.217003e-08    1.545787e-11    1.969551e-08   -2.099046e+00
    1.612616e+01    1.526299e+03    5.830150e-02    6.803870e+06    2.199252e-08    1.490315e-11    1.946993e-08   -2.094046e+00
    1.635322e+01    1.538024e+03    5.375440e-02    6.414239e+06    2.181184e-08    1.436703e-11    1.924025e-08   -2.089046e+00
    1.657078e+01    1.547967e+03    4.950688e-02    6.036862e+06    2.162805e-08    1.384893e-11    1.900654e-08   -2.084046e+00
    1.677790e+01    1.556087e+03    4.554657e-02    5.672365e+06    2.144122e-08    1.334826e-11    1.876887e-08   -2.079046e+00
    1.697369e+01    1.562356e+03    4.186087e-02    5.321290e+06    2.125141e-08    1.286449e-11    1.852732e-08   -2.074046e+00
