# sky130 pfet_01v8 gm/ID Processed Lookup Table
# Corner: fs
# Temperature: 0C
# W = 2.0 um
# L = 5.4 um (5400 nm)
# Columns: gm/id [1/V]  gm/gds [V/V]  id/W [A/m]  ft [Hz]  Cgg/W [F/m]  Cgd/W [F/m]  Cgs/W [F/m]  Vov [V]
#         gm/id          gm/gds            id/W              ft           Cgg/W           Cgd/W           Cgs/W             Vov
    2.105261e+00    5.830103e+00    4.040919e+00    3.787676e+07    3.574650e-08    3.250058e-09    3.288386e-08   -2.830381e+00
    2.128080e+00    6.072195e+00    3.998378e+00    3.796111e+07    3.567411e-08    3.154263e-09    3.288871e-08   -2.825381e+00
    2.151150e+00    6.329688e+00    3.955831e+00    3.804061e+07    3.560255e-08    3.060137e-09    3.289283e-08   -2.820381e+00
    2.174464e+00    6.603727e+00    3.913284e+00    3.811500e+07    3.553185e-08    2.967720e-09    3.289621e-08   -2.815381e+00
    2.198017e+00    6.895543e+00    3.870741e+00    3.818401e+07    3.546205e-08    2.877047e-09    3.289883e-08   -2.810381e+00
    2.221803e+00    7.206440e+00    3.828206e+00    3.824738e+07    3.539316e-08    2.788153e-09    3.290071e-08   -2.805381e+00
    2.245814e+00    7.537835e+00    3.785687e+00    3.830486e+07    3.532521e-08    2.701065e-09    3.290183e-08   -2.800381e+00
    2.270043e+00    7.891221e+00    3.743189e+00    3.835619e+07    3.525823e-08    2.615811e-09    3.290221e-08   -2.795381e+00
    2.294484e+00    8.268208e+00    3.700717e+00    3.840115e+07    3.519223e-08    2.532408e-09    3.290182e-08   -2.790381e+00
    2.319129e+00    8.670496e+00    3.658279e+00    3.843952e+07    3.512723e-08    2.450878e-09    3.290070e-08   -2.785381e+00
    2.343969e+00    9.099900e+00    3.615879e+00    3.847103e+07    3.506325e-08    2.371232e-09    3.289883e-08   -2.780381e+00
    2.368999e+00    9.558336e+00    3.573526e+00    3.849554e+07    3.500029e-08    2.293480e-09    3.289622e-08   -2.775381e+00
    2.394213e+00    1.004785e+01    3.531225e+00    3.851286e+07    3.493836e-08    2.217631e-09    3.289287e-08   -2.770381e+00
    2.419601e+00    1.057058e+01    3.488983e+00    3.852278e+07    3.487747e-08    2.143684e-09    3.288880e-08   -2.765381e+00
    2.445158e+00    1.112880e+01    3.446807e+00    3.852519e+07    3.481764e-08    2.071641e-09    3.288400e-08   -2.760381e+00
    2.470881e+00    1.172488e+01    3.404705e+00    3.851998e+07    3.475885e-08    2.001495e-09    3.287848e-08   -2.755381e+00
    2.496762e+00    1.236134e+01    3.362684e+00    3.850703e+07    3.470110e-08    1.933241e-09    3.287225e-08   -2.750381e+00
    2.522799e+00    1.304077e+01    3.320749e+00    3.848629e+07    3.464440e-08    1.866868e-09    3.286532e-08   -2.745381e+00
    2.548987e+00    1.376590e+01    3.278910e+00    3.845765e+07    3.458873e-08    1.802361e-09    3.285770e-08   -2.740381e+00
    2.575326e+00    1.453959e+01    3.237173e+00    3.842114e+07    3.453409e-08    1.739705e-09    3.284938e-08   -2.735381e+00
    2.601815e+00    1.536478e+01    3.195545e+00    3.837675e+07    3.448047e-08    1.678879e-09    3.284040e-08   -2.730381e+00
    2.628452e+00    1.624453e+01    3.154033e+00    3.832449e+07    3.442786e-08    1.619862e-09    3.283074e-08   -2.725381e+00
    2.655240e+00    1.718200e+01    3.112645e+00    3.826442e+07    3.437624e-08    1.562632e-09    3.282043e-08   -2.720381e+00
    2.682182e+00    1.818045e+01    3.071387e+00    3.819661e+07    3.432561e-08    1.507161e-09    3.280947e-08   -2.715381e+00
    2.709279e+00    1.924322e+01    3.030267e+00    3.812111e+07    3.427593e-08    1.453422e-09    3.279786e-08   -2.710381e+00
    2.736540e+00    2.037375e+01    2.989291e+00    3.803810e+07    3.422720e-08    1.401385e-09    3.278562e-08   -2.705381e+00
    2.763969e+00    2.157556e+01    2.948466e+00    3.794768e+07    3.417939e-08    1.351018e-09    3.277276e-08   -2.700381e+00
    2.791572e+00    2.285222e+01    2.907799e+00    3.784997e+07    3.413248e-08    1.302290e-09    3.275929e-08   -2.695381e+00
    2.819360e+00    2.420740e+01    2.867295e+00    3.774515e+07    3.408645e-08    1.255166e-09    3.274521e-08   -2.690381e+00
    2.847339e+00    2.564480e+01    2.826961e+00    3.763338e+07    3.404128e-08    1.209612e-09    3.273053e-08   -2.685381e+00
    2.875522e+00    2.716822e+01    2.786804e+00    3.751486e+07    3.399694e-08    1.165591e-09    3.271527e-08   -2.680381e+00
    2.903920e+00    2.878143e+01    2.746828e+00    3.738978e+07    3.395341e-08    1.123069e-09    3.269942e-08   -2.675381e+00
    2.932545e+00    3.048830e+01    2.707040e+00    3.725832e+07    3.391066e-08    1.082007e-09    3.268300e-08   -2.670381e+00
    2.961409e+00    3.229272e+01    2.667445e+00    3.712069e+07    3.386866e-08    1.042368e-09    3.266601e-08   -2.665381e+00
    2.990526e+00    3.419858e+01    2.628048e+00    3.697708e+07    3.382738e-08    1.004115e-09    3.264845e-08   -2.660381e+00
    3.019912e+00    3.620982e+01    2.588854e+00    3.682772e+07    3.378681e-08    9.672100e-10    3.263035e-08   -2.655381e+00
    3.049579e+00    3.833039e+01    2.549868e+00    3.667279e+07    3.374690e-08    9.316150e-10    3.261169e-08   -2.650381e+00
    3.079543e+00    4.056421e+01    2.511095e+00    3.651249e+07    3.370763e-08    8.972920e-10    3.259249e-08   -2.645381e+00
    3.109824e+00    4.291530e+01    2.472539e+00    3.634705e+07    3.366897e-08    8.642040e-10    3.257274e-08   -2.640381e+00
    3.140432e+00    4.538756e+01    2.434205e+00    3.617665e+07    3.363089e-08    8.323135e-10    3.255247e-08   -2.635381e+00
    3.171390e+00    4.798502e+01    2.396096e+00    3.600149e+07    3.359337e-08    8.015840e-10    3.253165e-08   -2.630381e+00
    3.202711e+00    5.071154e+01    2.358217e+00    3.582174e+07    3.355636e-08    7.719780e-10    3.251030e-08   -2.625381e+00
    3.234412e+00    5.357111e+01    2.320571e+00    3.563758e+07    3.351985e-08    7.434600e-10    3.248841e-08   -2.620381e+00
    3.266515e+00    5.656773e+01    2.283161e+00    3.544922e+07    3.348379e-08    7.159945e-10    3.246600e-08   -2.615381e+00
    3.299035e+00    5.970521e+01    2.245992e+00    3.525679e+07    3.344817e-08    6.895470e-10    3.244305e-08   -2.610381e+00
    3.331992e+00    6.298758e+01    2.209066e+00    3.506049e+07    3.341295e-08    6.640825e-10    3.241958e-08   -2.605381e+00
    3.365405e+00    6.641868e+01    2.172386e+00    3.486045e+07    3.337810e-08    6.395685e-10    3.239557e-08   -2.600381e+00
    3.399294e+00    7.000248e+01    2.135957e+00    3.465685e+07    3.334359e-08    6.159710e-10    3.237102e-08   -2.595381e+00
    3.433674e+00    7.374274e+01    2.099780e+00    3.444978e+07    3.330938e-08    5.932590e-10    3.234594e-08   -2.590381e+00
    3.468569e+00    7.764347e+01    2.063859e+00    3.423941e+07    3.327546e-08    5.714005e-10    3.232030e-08   -2.585381e+00
    3.504000e+00    8.170857e+01    2.028195e+00    3.402589e+07    3.324179e-08    5.503655e-10    3.229414e-08   -2.580381e+00
    3.539984e+00    8.594179e+01    1.992792e+00    3.380930e+07    3.320834e-08    5.301240e-10    3.226741e-08   -2.575381e+00
    3.576547e+00    9.034711e+01    1.957651e+00    3.358979e+07    3.317508e-08    5.106475e-10    3.224013e-08   -2.570381e+00
    3.613705e+00    9.492845e+01    1.922776e+00    3.336746e+07    3.314198e-08    4.919076e-10    3.221229e-08   -2.565381e+00
    3.651483e+00    9.968964e+01    1.888169e+00    3.314241e+07    3.310901e-08    4.738772e-10    3.218386e-08   -2.560381e+00
    3.689906e+00    1.046347e+02    1.853831e+00    3.291476e+07    3.307613e-08    4.565301e-10    3.215487e-08   -2.555381e+00
    3.728991e+00    1.097674e+02    1.819765e+00    3.268456e+07    3.304334e-08    4.398405e-10    3.212528e-08   -2.550381e+00
    3.768767e+00    1.150918e+02    1.785972e+00    3.245197e+07    3.301058e-08    4.237838e-10    3.209510e-08   -2.545381e+00
    3.809254e+00    1.206119e+02    1.752456e+00    3.221700e+07    3.297784e-08    4.083360e-10    3.206429e-08   -2.540381e+00
    3.850481e+00    1.263319e+02    1.719218e+00    3.197979e+07    3.294507e-08    3.934739e-10    3.203287e-08   -2.535381e+00
    3.892470e+00    1.322555e+02    1.686259e+00    3.174036e+07    3.291226e-08    3.791752e-10    3.200082e-08   -2.530381e+00
    3.935247e+00    1.383871e+02    1.653581e+00    3.149881e+07    3.287937e-08    3.654182e-10    3.196811e-08   -2.525381e+00
    3.978842e+00    1.447309e+02    1.621187e+00    3.125521e+07    3.284637e-08    3.521822e-10    3.193474e-08   -2.520381e+00
    4.023282e+00    1.512910e+02    1.589077e+00    3.100962e+07    3.281324e-08    3.394470e-10    3.190068e-08   -2.515381e+00
    4.068594e+00    1.580718e+02    1.557254e+00    3.076210e+07    3.277993e-08    3.271931e-10    3.186594e-08   -2.510381e+00
    4.114811e+00    1.650777e+02    1.525719e+00    3.051270e+07    3.274643e-08    3.154020e-10    3.183048e-08   -2.505381e+00
    4.161956e+00    1.723130e+02    1.494474e+00    3.026144e+07    3.271270e-08    3.040556e-10    3.179429e-08   -2.500381e+00
    4.210067e+00    1.797825e+02    1.463521e+00    3.000843e+07    3.267870e-08    2.931367e-10    3.175734e-08   -2.495381e+00
    4.259175e+00    1.874906e+02    1.432859e+00    2.975365e+07    3.264442e-08    2.826284e-10    3.171963e-08   -2.490381e+00
    4.309316e+00    1.954424e+02    1.402493e+00    2.949721e+07    3.260981e-08    2.725147e-10    3.168112e-08   -2.485381e+00
    4.360521e+00    2.036426e+02    1.372422e+00    2.923908e+07    3.257485e-08    2.627804e-10    3.164179e-08   -2.480381e+00
    4.412830e+00    2.120964e+02    1.342649e+00    2.897936e+07    3.253950e-08    2.534104e-10    3.160164e-08   -2.475381e+00
    4.466276e+00    2.208085e+02    1.313173e+00    2.871802e+07    3.250373e-08    2.443904e-10    3.156060e-08   -2.470381e+00
    4.520899e+00    2.297845e+02    1.283999e+00    2.845513e+07    3.246751e-08    2.357069e-10    3.151869e-08   -2.465381e+00
    4.576740e+00    2.390296e+02    1.255126e+00    2.819070e+07    3.243081e-08    2.273465e-10    3.147585e-08   -2.460381e+00
    4.633842e+00    2.485497e+02    1.226556e+00    2.792476e+07    3.239359e-08    2.192966e-10    3.143208e-08   -2.455381e+00
    4.692247e+00    2.583502e+02    1.198290e+00    2.765734e+07    3.235581e-08    2.115451e-10    3.138732e-08   -2.450381e+00
    4.751999e+00    2.684372e+02    1.170330e+00    2.738846e+07    3.231745e-08    2.040803e-10    3.134156e-08   -2.445381e+00
    4.813145e+00    2.788164e+02    1.142676e+00    2.711811e+07    3.227846e-08    1.968910e-10    3.129476e-08   -2.440381e+00
    4.875736e+00    2.894946e+02    1.115331e+00    2.684635e+07    3.223880e-08    1.899663e-10    3.124690e-08   -2.435381e+00
    4.939814e+00    3.004774e+02    1.088296e+00    2.657313e+07    3.219846e-08    1.832960e-10    3.119792e-08   -2.430381e+00
    5.005445e+00    3.117725e+02    1.061572e+00    2.629854e+07    3.215737e-08    1.768701e-10    3.114781e-08   -2.425381e+00
    5.072670e+00    3.233857e+02    1.035160e+00    2.602251e+07    3.211552e-08    1.706792e-10    3.109653e-08   -2.420381e+00
    5.141552e+00    3.353245e+02    1.009062e+00    2.574511e+07    3.207285e-08    1.647140e-10    3.104403e-08   -2.415381e+00
    5.212147e+00    3.475957e+02    9.832790e-01    2.546629e+07    3.202933e-08    1.589658e-10    3.099027e-08   -2.410381e+00
    5.284521e+00    3.602074e+02    9.578125e-01    2.518611e+07    3.198492e-08    1.534261e-10    3.093521e-08   -2.405381e+00
    5.358731e+00    3.731665e+02    9.326635e-01    2.490452e+07    3.193956e-08    1.480870e-10    3.087882e-08   -2.400381e+00
    5.434842e+00    3.864809e+02    9.078340e-01    2.462152e+07    3.189324e-08    1.429406e-10    3.082104e-08   -2.395381e+00
    5.512924e+00    4.001586e+02    8.833250e-01    2.433712e+07    3.184590e-08    1.379796e-10    3.076183e-08   -2.390381e+00
    5.593051e+00    4.142081e+02    8.591375e-01    2.405131e+07    3.179749e-08    1.331967e-10    3.070115e-08   -2.385381e+00
    5.675290e+00    4.286375e+02    8.352735e-01    2.376408e+07    3.174796e-08    1.285853e-10    3.063894e-08   -2.380381e+00
    5.759724e+00    4.434552e+02    8.117335e-01    2.347542e+07    3.169728e-08    1.241386e-10    3.057516e-08   -2.375381e+00
    5.846425e+00    4.586702e+02    7.885200e-01    2.318530e+07    3.164540e-08    1.198504e-10    3.050975e-08   -2.370381e+00
    5.935476e+00    4.742912e+02    7.656340e-01    2.289371e+07    3.159226e-08    1.157147e-10    3.044266e-08   -2.365381e+00
    6.026966e+00    4.903272e+02    7.430765e-01    2.260063e+07    3.153783e-08    1.117256e-10    3.037382e-08   -2.360381e+00
    6.120976e+00    5.067872e+02    7.208495e-01    2.230605e+07    3.148204e-08    1.078776e-10    3.030320e-08   -2.355381e+00
    6.217603e+00    5.236809e+02    6.989540e-01    2.200993e+07    3.142484e-08    1.041654e-10    3.023073e-08   -2.350381e+00
    6.316934e+00    5.410172e+02    6.773920e-01    2.171225e+07    3.136619e-08    1.005839e-10    3.015635e-08   -2.345381e+00
    6.419075e+00    5.588055e+02    6.561640e-01    2.141298e+07    3.130602e-08    9.712800e-11    3.007999e-08   -2.340381e+00
    6.524116e+00    5.770547e+02    6.352725e-01    2.111209e+07    3.124429e-08    9.379320e-11    3.000158e-08   -2.335381e+00
    6.632166e+00    5.957750e+02    6.147185e-01    2.080955e+07    3.118094e-08    9.057490e-11    2.992109e-08   -2.330381e+00
    6.743323e+00    6.149740e+02    5.945040e-01    2.050532e+07    3.111590e-08    8.746875e-11    2.983842e-08   -2.325381e+00
    6.857703e+00    6.346620e+02    5.746300e-01    2.019937e+07    3.104912e-08    8.447060e-11    2.975352e-08   -2.320381e+00
    6.975418e+00    6.548474e+02    5.550980e-01    1.989165e+07    3.098055e-08    8.157640e-11    2.966630e-08   -2.315381e+00
    7.096576e+00    6.755378e+02    5.359100e-01    1.958214e+07    3.091013e-08    7.878240e-11    2.957671e-08   -2.310381e+00
    7.221294e+00    6.967414e+02    5.170675e-01    1.927079e+07    3.083777e-08    7.608485e-11    2.948466e-08   -2.305381e+00
    7.349696e+00    7.184661e+02    4.985716e-01    1.895755e+07    3.076343e-08    7.348025e-11    2.939009e-08   -2.300381e+00
    7.481897e+00    7.407175e+02    4.804244e-01    1.864239e+07    3.068706e-08    7.096515e-11    2.929292e-08   -2.295381e+00
    7.618019e+00    7.635023e+02    4.626272e-01    1.832527e+07    3.060857e-08    6.853635e-11    2.919306e-08   -2.290381e+00
    7.758184e+00    7.868250e+02    4.451819e-01    1.800615e+07    3.052789e-08    6.619070e-11    2.909045e-08   -2.285381e+00
    7.902515e+00    8.106893e+02    4.280898e-01    1.768498e+07    3.044498e-08    6.392515e-11    2.898498e-08   -2.280381e+00
    8.051134e+00    8.350979e+02    4.113526e-01    1.736173e+07    3.035976e-08    6.173685e-11    2.887661e-08   -2.275381e+00
    8.204165e+00    8.600516e+02    3.949718e-01    1.703638e+07    3.027215e-08    5.962300e-11    2.876523e-08   -2.270381e+00
    8.361725e+00    8.855494e+02    3.789489e-01    1.670888e+07    3.018210e-08    5.758095e-11    2.865076e-08   -2.265381e+00
    8.523931e+00    9.115885e+02    3.632856e-01    1.637920e+07    3.008954e-08    5.560815e-11    2.853311e-08   -2.260381e+00
    8.690894e+00    9.381637e+02    3.479832e-01    1.604733e+07    2.999439e-08    5.370215e-11    2.841221e-08   -2.255381e+00
    8.862723e+00    9.652673e+02    3.330432e-01    1.571326e+07    2.989658e-08    5.186055e-11    2.828797e-08   -2.250381e+00
    9.039516e+00    9.928885e+02    3.184670e-01    1.537697e+07    2.979606e-08    5.008105e-11    2.816030e-08   -2.245381e+00
    9.221366e+00    1.021014e+03    3.042557e-01    1.503848e+07    2.969273e-08    4.836154e-11    2.802911e-08   -2.240381e+00
    9.408354e+00    1.049625e+03    2.904108e-01    1.469780e+07    2.958655e-08    4.669986e-11    2.789432e-08   -2.235381e+00
    9.600548e+00    1.078701e+03    2.769332e-01    1.435495e+07    2.947743e-08    4.509400e-11    2.775585e-08   -2.230381e+00
    9.797998e+00    1.108217e+03    2.638240e-01    1.400997e+07    2.936532e-08    4.354203e-11    2.761359e-08   -2.225381e+00
    1.000074e+01    1.138140e+03    2.510840e-01    1.366293e+07    2.925013e-08    4.204208e-11    2.746748e-08   -2.220381e+00
    1.020880e+01    1.168436e+03    2.387139e-01    1.331390e+07    2.913181e-08    4.059234e-11    2.731743e-08   -2.215381e+00
    1.042216e+01    1.199062e+03    2.267143e-01    1.296298e+07    2.901029e-08    3.919109e-11    2.716335e-08   -2.210381e+00
    1.064079e+01    1.229972e+03    2.150855e-01    1.261029e+07    2.888550e-08    3.783667e-11    2.700516e-08   -2.205381e+00
    1.086463e+01    1.261111e+03    2.038275e-01    1.225599e+07    2.875739e-08    3.652746e-11    2.684278e-08   -2.200381e+00
    1.109357e+01    1.292417e+03    1.929403e-01    1.190023e+07    2.862589e-08    3.526195e-11    2.667614e-08   -2.195381e+00
    1.132748e+01    1.323824e+03    1.824234e-01    1.154323e+07    2.849094e-08    3.403863e-11    2.650515e-08   -2.190381e+00
    1.156620e+01    1.355256e+03    1.722760e-01    1.118522e+07    2.835248e-08    3.285607e-11    2.632974e-08   -2.185381e+00
    1.180949e+01    1.386629e+03    1.624972e-01    1.082646e+07    2.821048e-08    3.171292e-11    2.614986e-08   -2.180381e+00
    1.205708e+01    1.417853e+03    1.530854e-01    1.046727e+07    2.806486e-08    3.060784e-11    2.596543e-08   -2.175381e+00
    1.230867e+01    1.448830e+03    1.440388e-01    1.010797e+07    2.791560e-08    2.953956e-11    2.577638e-08   -2.170381e+00
    1.256386e+01    1.479453e+03    1.353553e-01    9.748947e+06    2.776264e-08    2.850684e-11    2.558266e-08   -2.165381e+00
    1.282222e+01    1.509611e+03    1.270321e-01    9.390613e+06    2.760595e-08    2.750851e-11    2.538422e-08   -2.160381e+00
    1.308325e+01    1.539182e+03    1.190659e-01    9.033419e+06    2.744549e-08    2.654342e-11    2.518102e-08   -2.155381e+00
    1.334639e+01    1.568042e+03    1.114530e-01    8.677847e+06    2.728123e-08    2.561047e-11    2.497299e-08   -2.150381e+00
    1.361101e+01    1.596061e+03    1.041894e-01    8.324420e+06    2.711316e-08    2.470861e-11    2.476013e-08   -2.145381e+00
    1.387642e+01    1.623103e+03    9.727010e-02    7.973690e+06    2.694125e-08    2.383682e-11    2.454240e-08   -2.140381e+00
    1.414186e+01    1.649031e+03    9.068990e-02    7.626238e+06    2.676549e-08    2.299410e-11    2.431976e-08   -2.135381e+00
    1.440651e+01    1.673710e+03    8.444280e-02    7.282670e+06    2.658587e-08    2.217950e-11    2.409222e-08   -2.130381e+00
    1.466950e+01    1.697002e+03    7.852235e-02    6.943608e+06    2.640241e-08    2.139212e-11    2.385977e-08   -2.125381e+00
    1.492988e+01    1.718774e+03    7.292155e-02    6.609687e+06    2.621510e-08    2.063106e-11    2.362241e-08   -2.120381e+00
    1.518671e+01    1.738897e+03    6.763265e-02    6.281552e+06    2.602396e-08    1.989547e-11    2.338015e-08   -2.115381e+00
    1.543897e+01    1.757250e+03    6.264755e-02    5.959840e+06    2.582902e-08    1.918453e-11    2.313301e-08   -2.110381e+00
    1.568562e+01    1.773725e+03    5.795750e-02    5.645181e+06    2.563030e-08    1.849744e-11    2.288103e-08   -2.105381e+00
    1.592563e+01    1.788223e+03    5.355340e-02    5.338190e+06    2.542786e-08    1.783343e-11    2.262425e-08   -2.100381e+00
    1.615795e+01    1.800661e+03    4.942552e-02    5.039444e+06    2.522174e-08    1.719177e-11    2.236273e-08   -2.095381e+00
    1.638156e+01    1.810971e+03    4.556384e-02    4.749494e+06    2.501199e-08    1.657172e-11    2.209652e-08   -2.090381e+00
    1.659547e+01    1.819107e+03    4.195794e-02    4.468841e+06    2.479870e-08    1.597261e-11    2.182571e-08   -2.085381e+00
    1.679876e+01    1.825042e+03    3.859711e-02    4.197940e+06    2.458193e-08    1.539375e-11    2.155038e-08   -2.080381e+00
    1.699055e+01    1.828768e+03    3.547042e-02    3.937179e+06    2.436177e-08    1.483451e-11    2.127064e-08   -2.075381e+00
