# sky130 nfet_01v8 gm/ID Processed Lookup Table
# Corner: fs
# Temperature: 75C
# W = 2.0 um
# L = 3.06 um (3060 nm)
# Columns: gm/id [1/V]  gm/gds [V/V]  id/W [A/m]  ft [Hz]  Cgg/W [F/m]  Cgd/W [F/m]  Cgs/W [F/m]  Vov [V]
#         gm/id          gm/gds            id/W              ft           Cgg/W           Cgd/W           Cgs/W             Vov
    2.371071e+01    1.766761e+02    3.004222e-07    1.760472e+02    6.439730e-09    2.340886e-13    5.661725e-10   -5.254584e-01
    2.370909e+01    1.766641e+02    3.382341e-07    1.982170e+02    6.438900e-09    2.420172e-13    5.880015e-10   -5.204584e-01
    2.370737e+01    1.766514e+02    3.808020e-07    2.231467e+02    6.438910e-09    2.502328e-13    6.107180e-10   -5.154584e-01
    2.370556e+01    1.766380e+02    4.287234e-07    2.511751e+02    6.439780e-09    2.587462e-13    6.343550e-10   -5.104584e-01
    2.370363e+01    1.766236e+02    4.826708e-07    2.826810e+02    6.441535e-09    2.675688e-13    6.589455e-10   -5.054584e-01
    2.370157e+01    1.766086e+02    5.434015e-07    3.180893e+02    6.444200e-09    2.767121e-13    6.845230e-10   -5.004584e-01
    2.369942e+01    1.765925e+02    6.117665e-07    3.578755e+02    6.447800e-09    2.861883e-13    7.111230e-10   -4.954584e-01
    2.369711e+01    1.765754e+02    6.887250e-07    4.025717e+02    6.452355e-09    2.960101e-13    7.387795e-10   -4.904584e-01
    2.369467e+01    1.765574e+02    7.753555e-07    4.527728e+02    6.457900e-09    3.061905e-13    7.675295e-10   -4.854584e-01
    2.369208e+01    1.765383e+02    8.728715e-07    5.091454e+02    6.464455e-09    3.167430e-13    7.974100e-10   -4.804584e-01
    2.368934e+01    1.765180e+02    9.826390e-07    5.724333e+02    6.472055e-09    3.276816e-13    8.284580e-10   -4.754584e-01
    2.368643e+01    1.764965e+02    1.106195e-06    6.434703e+02    6.480715e-09    3.390209e-13    8.607125e-10   -4.704584e-01
    2.368334e+01    1.764738e+02    1.245268e-06    7.231851e+02    6.490475e-09    3.507760e-13    8.942105e-10   -4.654584e-01
    2.368007e+01    1.764497e+02    1.401803e-06    8.126171e+02    6.501360e-09    3.629623e-13    9.289920e-10   -4.604584e-01
    2.367661e+01    1.764242e+02    1.577989e-06    9.129265e+02    6.513400e-09    3.755962e-13    9.650960e-10   -4.554584e-01
    2.367293e+01    1.763971e+02    1.776287e-06    1.025408e+03    6.526625e-09    3.886944e-13    1.002562e-09   -4.504584e-01
    2.366905e+01    1.763685e+02    1.999466e-06    1.151508e+03    6.541060e-09    4.022740e-13    1.041430e-09   -4.454584e-01
    2.366492e+01    1.763382e+02    2.250641e-06    1.292836e+03    6.556740e-09    4.163532e-13    1.081740e-09   -4.404584e-01
    2.366055e+01    1.763061e+02    2.533316e-06    1.451193e+03    6.573690e-09    4.309505e-13    1.123534e-09   -4.354584e-01
    2.365593e+01    1.762722e+02    2.851429e-06    1.628579e+03    6.591950e-09    4.460849e-13    1.166850e-09   -4.304584e-01
    2.365101e+01    1.762362e+02    3.209412e-06    1.827228e+03    6.611540e-09    4.617766e-13    1.211729e-09   -4.254584e-01
    2.364582e+01    1.761982e+02    3.612247e-06    2.049628e+03    6.632495e-09    4.780460e-13    1.258212e-09   -4.204584e-01
    2.364032e+01    1.761580e+02    4.065535e-06    2.298546e+03    6.654845e-09    4.949143e-13    1.306338e-09   -4.154584e-01
    2.363450e+01    1.761154e+02    4.575577e-06    2.577066e+03    6.678620e-09    5.124035e-13    1.356146e-09   -4.104584e-01
    2.362832e+01    1.760704e+02    5.149450e-06    2.888614e+03    6.703850e-09    5.305365e-13    1.407676e-09   -4.054584e-01
    2.362178e+01    1.760227e+02    5.795115e-06    3.237007e+03    6.730560e-09    5.493365e-13    1.460965e-09   -4.004584e-01
    2.361488e+01    1.759725e+02    6.521515e-06    3.626484e+03    6.758785e-09    5.688280e-13    1.516053e-09   -3.954584e-01
    2.360755e+01    1.759192e+02    7.338710e-06    4.061755e+03    6.788550e-09    5.890360e-13    1.572974e-09   -3.904584e-01
    2.359980e+01    1.758631e+02    8.257995e-06    4.548058e+03    6.819885e-09    6.099860e-13    1.631766e-09   -3.854584e-01
    2.359160e+01    1.758037e+02    9.292060e-06    5.091204e+03    6.852815e-09    6.317055e-13    1.692461e-09   -3.804584e-01
    2.358291e+01    1.757410e+02    1.045518e-05    5.697650e+03    6.887365e-09    6.542210e-13    1.755094e-09   -3.754584e-01
    2.357373e+01    1.756748e+02    1.176335e-05    6.374562e+03    6.923555e-09    6.775620e-13    1.819696e-09   -3.704584e-01
    2.356402e+01    1.756049e+02    1.323459e-05    7.129876e+03    6.961420e-09    7.017570e-13    1.886297e-09   -3.654584e-01
    2.355375e+01    1.755312e+02    1.488908e-05    7.972409e+03    7.000975e-09    7.268365e-13    1.954926e-09   -3.604584e-01
    2.354290e+01    1.754534e+02    1.674953e-05    8.911929e+03    7.042240e-09    7.528320e-13    2.025609e-09   -3.554584e-01
    2.353142e+01    1.753714e+02    1.884139e-05    9.959257e+03    7.085235e-09    7.797755e-13    2.098369e-09   -3.504584e-01
    2.351929e+01    1.752849e+02    2.119325e-05    1.112637e+04    7.129985e-09    8.077000e-13    2.173231e-09   -3.454584e-01
    2.350648e+01    1.751939e+02    2.383721e-05    1.242656e+04    7.176495e-09    8.366400e-13    2.250212e-09   -3.404584e-01
    2.349294e+01    1.750980e+02    2.680924e-05    1.387449e+04    7.224785e-09    8.666300e-13    2.329331e-09   -3.354584e-01
    2.347865e+01    1.749971e+02    3.014973e-05    1.548644e+04    7.274870e-09    8.977070e-13    2.410601e-09   -3.304584e-01
    2.346357e+01    1.748910e+02    3.390396e-05    1.728038e+04    7.326750e-09    9.299080e-13    2.494035e-09   -3.254584e-01
    2.344765e+01    1.747793e+02    3.812272e-05    1.927617e+04    7.380445e-09    9.632710e-13    2.579640e-09   -3.204584e-01
    2.343086e+01    1.746623e+02    4.286292e-05    2.149580e+04    7.435950e-09    9.978365e-13    2.667422e-09   -3.154584e-01
    2.341315e+01    1.745390e+02    4.818835e-05    2.396350e+04    7.493275e-09    1.033644e-12    2.757384e-09   -3.104584e-01
    2.339449e+01    1.744099e+02    5.417050e-05    2.670611e+04    7.552415e-09    1.070736e-12    2.849525e-09   -3.054584e-01
    2.337480e+01    1.742744e+02    6.088950e-05    2.975319e+04    7.613370e-09    1.109156e-12    2.943839e-09   -3.004584e-01
    2.335409e+01    1.741326e+02    6.843490e-05    3.313736e+04    7.676140e-09    1.148947e-12    3.040321e-09   -2.954584e-01
    2.333228e+01    1.739840e+02    7.690720e-05    3.689468e+04    7.740705e-09    1.190155e-12    3.138955e-09   -2.904584e-01
    2.330932e+01    1.738288e+02    8.641870e-05    4.106478e+04    7.807070e-09    1.232827e-12    3.239729e-09   -2.854584e-01
    2.328518e+01    1.736664e+02    9.709510e-05    4.569144e+04    7.875210e-09    1.277010e-12    3.342622e-09   -2.804584e-01
    2.325981e+01    1.734971e+02    1.090769e-04    5.082289e+04    7.945110e-09    1.322755e-12    3.447611e-09   -2.754584e-01
    2.323315e+01    1.733205e+02    1.225215e-04    5.651215e+04    8.016755e-09    1.370112e-12    3.554669e-09   -2.704584e-01
    2.320516e+01    1.731367e+02    1.376044e-04    6.281773e+04    8.090115e-09    1.419133e-12    3.663765e-09   -2.654584e-01
    2.317578e+01    1.729455e+02    1.545219e-04    6.980380e+04    8.165175e-09    1.469871e-12    3.774865e-09   -2.604584e-01
    2.314499e+01    1.727470e+02    1.734932e-04    7.754114e+04    8.241900e-09    1.522382e-12    3.887930e-09   -2.554584e-01
    2.311272e+01    1.725412e+02    1.947630e-04    8.610749e+04    8.320255e-09    1.576722e-12    4.002917e-09   -2.504584e-01
    2.307894e+01    1.723282e+02    2.186043e-04    9.558819e+04    8.400215e-09    1.632947e-12    4.119779e-09   -2.454584e-01
    2.304360e+01    1.721082e+02    2.453217e-04    1.060771e+05    8.481735e-09    1.691120e-12    4.238465e-09   -2.404584e-01
    2.300666e+01    1.718812e+02    2.752546e-04    1.176772e+05    8.564775e-09    1.751299e-12    4.358924e-09   -2.354584e-01
    2.296810e+01    1.716478e+02    3.087816e-04    1.305017e+05    8.649290e-09    1.813549e-12    4.481096e-09   -2.304584e-01
    2.292787e+01    1.714083e+02    3.463240e-04    1.446743e+05    8.735240e-09    1.877932e-12    4.604921e-09   -2.254584e-01
    2.288593e+01    1.711630e+02    3.883511e-04    1.603312e+05    8.822570e-09    1.944516e-12    4.730334e-09   -2.204584e-01
    2.284228e+01    1.709127e+02    4.353851e-04    1.776214e+05    8.911235e-09    2.013366e-12    4.857266e-09   -2.154584e-01
    2.279690e+01    1.706581e+02    4.880070e-04    1.967083e+05    9.001175e-09    2.084554e-12    4.985648e-09   -2.104584e-01
    2.274976e+01    1.703999e+02    5.468625e-04    2.177709e+05    9.092330e-09    2.158150e-12    5.115405e-09   -2.054584e-01
    2.270087e+01    1.701392e+02    6.126690e-04    2.410048e+05    9.184655e-09    2.234227e-12    5.246460e-09   -2.004584e-01
    2.265025e+01    1.698771e+02    6.862230e-04    2.666248e+05    9.278075e-09    2.312860e-12    5.378735e-09   -1.954584e-01
    2.259787e+01    1.696149e+02    7.684105e-04    2.948654e+05    9.372535e-09    2.394128e-12    5.512150e-09   -1.904584e-01
    2.254379e+01    1.693542e+02    8.602120e-04    3.259836e+05    9.467970e-09    2.478106e-12    5.646620e-09   -1.854584e-01
    2.248803e+01    1.690968e+02    9.627165e-04    3.602603e+05    9.564310e-09    2.564878e-12    5.782055e-09   -1.804584e-01
    2.243064e+01    1.688445e+02    1.077131e-03    3.980029e+05    9.661490e-09    2.654526e-12    5.918375e-09   -1.754584e-01
    2.237166e+01    1.685996e+02    1.204793e-03    4.395475e+05    9.759440e-09    2.747135e-12    6.055485e-09   -1.704584e-01
    2.231118e+01    1.683644e+02    1.347183e-03    4.852619e+05    9.858090e-09    2.842794e-12    6.193295e-09   -1.654584e-01
    2.224927e+01    1.681417e+02    1.505939e-03    5.355481e+05    9.957375e-09    2.941591e-12    6.331720e-09   -1.604584e-01
    2.218602e+01    1.679343e+02    1.682879e-03    5.908463e+05    1.005722e-08    3.043619e-12    6.470660e-09   -1.554584e-01
    2.212154e+01    1.677457e+02    1.880006e-03    6.516380e+05    1.015753e-08    3.148972e-12    6.610030e-09   -1.504584e-01
    2.205595e+01    1.675792e+02    2.099542e-03    7.184493e+05    1.025827e-08    3.257748e-12    6.749735e-09   -1.454584e-01
    2.198937e+01    1.674387e+02    2.343939e-03    7.918567e+05    1.035936e-08    3.370045e-12    6.889680e-09   -1.404584e-01
    2.192196e+01    1.673284e+02    2.615909e-03    8.724918e+05    1.046070e-08    3.485967e-12    7.029775e-09   -1.354584e-01
    2.185385e+01    1.672527e+02    2.918447e-03    9.610453e+05    1.056224e-08    3.605618e-12    7.169930e-09   -1.304584e-01
    2.178521e+01    1.672163e+02    3.254860e-03    1.058273e+06    1.066391e-08    3.729106e-12    7.310050e-09   -1.254584e-01
    2.171617e+01    1.672241e+02    3.628803e-03    1.165004e+06    1.076562e-08    3.856541e-12    7.450050e-09   -1.204584e-01
    2.164690e+01    1.672813e+02    4.044308e-03    1.282146e+06    1.086733e-08    3.988038e-12    7.589835e-09   -1.154584e-01
    2.157755e+01    1.673934e+02    4.505828e-03    1.410693e+06    1.096894e-08    4.123713e-12    7.729320e-09   -1.104584e-01
    2.150828e+01    1.675660e+02    5.018275e-03    1.551734e+06    1.107039e-08    4.263686e-12    7.868415e-09   -1.054584e-01
    2.143918e+01    1.678048e+02    5.587070e-03    1.706461e+06    1.117162e-08    4.408079e-12    8.007045e-09   -1.004584e-01
    2.137039e+01    1.681158e+02    6.218190e-03    1.876178e+06    1.127256e-08    4.557022e-12    8.145120e-09   -9.545840e-02
    2.130198e+01    1.685048e+02    6.918225e-03    2.062311e+06    1.137315e-08    4.710641e-12    8.282565e-09   -9.045840e-02
    2.123399e+01    1.689775e+02    7.694450e-03    2.266420e+06    1.147332e-08    4.869073e-12    8.419300e-09   -8.545840e-02
    2.116644e+01    1.695398e+02    8.554865e-03    2.490203e+06    1.157301e-08    5.032455e-12    8.555250e-09   -8.045840e-02
    2.109928e+01    1.701970e+02    9.508290e-03    2.735513e+06    1.167217e-08    5.200925e-12    8.690340e-09   -7.545840e-02
    2.103241e+01    1.709544e+02    1.056444e-02    3.004362e+06    1.177073e-08    5.374630e-12    8.824500e-09   -7.045840e-02
    2.096569e+01    1.718168e+02    1.173398e-02    3.298933e+06    1.186864e-08    5.553725e-12    8.957665e-09   -6.545840e-02
    2.089889e+01    1.727882e+02    1.302864e-02    3.621587e+06    1.196585e-08    5.738355e-12    9.089775e-09   -6.045840e-02
    2.083173e+01    1.738722e+02    1.446131e-02    3.974868e+06    1.206231e-08    5.928685e-12    9.220755e-09   -5.545840e-02
    2.076386e+01    1.750716e+02    1.604611e-02    4.361507e+06    1.215798e-08    6.124870e-12    9.350560e-09   -5.045840e-02
    2.069483e+01    1.763883e+02    1.779849e-02    4.784428e+06    1.225279e-08    6.327085e-12    9.479130e-09   -4.545840e-02
    2.062415e+01    1.778232e+02    1.973535e-02    5.246741e+06    1.234672e-08    6.535505e-12    9.606410e-09   -4.045840e-02
    2.055124e+01    1.793760e+02    2.187515e-02    5.751737e+06    1.243971e-08    6.750295e-12    9.732355e-09   -3.545840e-02
    2.047549e+01    1.810452e+02    2.423795e-02    6.302879e+06    1.253174e-08    6.971650e-12    9.856920e-09   -3.045840e-02
    2.039621e+01    1.828279e+02    2.684556e-02    6.903791e+06    1.262276e-08    7.199750e-12    9.980055e-09   -2.545840e-02
    2.031268e+01    1.847201e+02    2.972161e-02    7.558234e+06    1.271275e-08    7.434790e-12    1.010173e-08   -2.045840e-02
    2.022415e+01    1.867160e+02    3.289164e-02    8.270079e+06    1.280166e-08    7.676975e-12    1.022190e-08   -1.545840e-02
    2.012983e+01    1.888084e+02    3.638317e-02    9.043271e+06    1.288948e-08    7.926505e-12    1.034054e-08   -1.045840e-02
    2.002899e+01    1.909887e+02    4.022570e-02    9.881807e+06    1.297616e-08    8.183590e-12    1.045760e-08   -5.458400e-03
    1.992086e+01    1.932468e+02    4.445085e-02    1.078967e+07    1.306171e-08    8.448455e-12    1.057308e-08   -4.584000e-04
    1.980475e+01    1.955712e+02    4.909227e-02    1.177081e+07    1.314607e-08    8.721325e-12    1.068694e-08    4.541600e-03
    1.967999e+01    1.979488e+02    5.418570e-02    1.282904e+07    1.322925e-08    9.002425e-12    1.079916e-08    9.541600e-03
    1.954598e+01    2.003656e+02    5.976895e-02    1.396803e+07    1.331122e-08    9.291995e-12    1.090973e-08    1.454160e-02
    1.940225e+01    2.028060e+02    6.588170e-02    1.519121e+07    1.339198e-08    9.590290e-12    1.101863e-08    1.954160e-02
    1.924836e+01    2.052541e+02    7.256565e-02    1.650173e+07    1.347148e-08    9.897555e-12    1.112584e-08    2.454160e-02
    1.908401e+01    2.076924e+02    7.986415e-02    1.790236e+07    1.354975e-08    1.021406e-11    1.123135e-08    2.954160e-02
    1.890902e+01    2.101037e+02    8.782215e-02    1.939549e+07    1.362675e-08    1.054007e-11    1.133515e-08    3.454160e-02
    1.872331e+01    2.124698e+02    9.648610e-02    2.098300e+07    1.370250e-08    1.087586e-11    1.143725e-08    3.954160e-02
    1.852692e+01    2.147725e+02    1.059036e-01    2.266626e+07    1.377698e-08    1.122172e-11    1.153763e-08    4.454160e-02
    1.832001e+01    2.169939e+02    1.161231e-01    2.444606e+07    1.385019e-08    1.157796e-11    1.163630e-08    4.954160e-02
    1.810285e+01    2.191164e+02    1.271939e-01    2.632255e+07    1.392212e-08    1.194487e-11    1.173326e-08    5.454160e-02
    1.787584e+01    2.211229e+02    1.391653e-01    2.829526e+07    1.399278e-08    1.232278e-11    1.182850e-08    5.954160e-02
    1.763943e+01    2.229970e+02    1.520874e-01    3.036306e+07    1.406217e-08    1.271201e-11    1.192204e-08    6.454160e-02
    1.739420e+01    2.247236e+02    1.660091e-01    3.252412e+07    1.413028e-08    1.311290e-11    1.201389e-08    6.954160e-02
    1.714079e+01    2.262887e+02    1.809794e-01    3.477596e+07    1.419715e-08    1.352579e-11    1.210403e-08    7.454160e-02
    1.687991e+01    2.276796e+02    1.970462e-01    3.711549e+07    1.426274e-08    1.395105e-11    1.219250e-08    7.954160e-02
    1.661230e+01    2.288853e+02    2.142559e-01    3.953892e+07    1.432709e-08    1.438905e-11    1.227931e-08    8.454160e-02
    1.633876e+01    2.298961e+02    2.326537e-01    4.204193e+07    1.439019e-08    1.484017e-11    1.236446e-08    8.954160e-02
    1.606011e+01    2.307042e+02    2.522827e-01    4.461968e+07    1.445206e-08    1.530481e-11    1.244796e-08    9.454160e-02
    1.577719e+01    2.313036e+02    2.731839e-01    4.726684e+07    1.451270e-08    1.578339e-11    1.252985e-08    9.954160e-02
    1.549083e+01    2.316899e+02    2.953959e-01    4.997766e+07    1.457214e-08    1.627631e-11    1.261012e-08    1.045416e-01
    1.520185e+01    2.318605e+02    3.189547e-01    5.274609e+07    1.463037e-08    1.678403e-11    1.268880e-08    1.095416e-01
    1.491108e+01    2.318146e+02    3.438935e-01    5.556581e+07    1.468743e-08    1.730700e-11    1.276590e-08    1.145416e-01
    1.461930e+01    2.315528e+02    3.702425e-01    5.843031e+07    1.474330e-08    1.784568e-11    1.284146e-08    1.195416e-01
    1.432725e+01    2.310775e+02    3.980288e-01    6.133297e+07    1.479802e-08    1.840055e-11    1.291549e-08    1.245416e-01
    1.403567e+01    2.303922e+02    4.272765e-01    6.426715e+07    1.485160e-08    1.897214e-11    1.298801e-08    1.295416e-01
    1.374523e+01    2.295021e+02    4.580063e-01    6.722634e+07    1.490404e-08    1.956093e-11    1.305903e-08    1.345416e-01
    1.345655e+01    2.284134e+02    4.902359e-01    7.020396e+07    1.495538e-08    2.016748e-11    1.312859e-08    1.395416e-01
    1.317024e+01    2.271334e+02    5.239795e-01    7.319377e+07    1.500562e-08    2.079233e-11    1.319671e-08    1.445416e-01
    1.288682e+01    2.256700e+02    5.592485e-01    7.618966e+07    1.505479e-08    2.143606e-11    1.326340e-08    1.495416e-01
    1.260680e+01    2.240325e+02    5.960510e-01    7.918596e+07    1.510289e-08    2.209928e-11    1.332871e-08    1.545416e-01
    1.233060e+01    2.222301e+02    6.343925e-01    8.217711e+07    1.514996e-08    2.278257e-11    1.339263e-08    1.595416e-01
    1.205862e+01    2.202730e+02    6.742760e-01    8.515808e+07    1.519601e-08    2.348658e-11    1.345521e-08    1.645416e-01
    1.179120e+01    2.181713e+02    7.157005e-01    8.812410e+07    1.524104e-08    2.421197e-11    1.351646e-08    1.695416e-01
    1.152863e+01    2.159357e+02    7.586645e-01    9.107089e+07    1.528510e-08    2.495943e-11    1.357642e-08    1.745416e-01
    1.127119e+01    2.135767e+02    8.031625e-01    9.399454e+07    1.532818e-08    2.572964e-11    1.363511e-08    1.795416e-01
    1.101908e+01    2.111050e+02    8.491875e-01    9.689164e+07    1.537031e-08    2.652336e-11    1.369254e-08    1.845416e-01
    1.077247e+01    2.085310e+02    8.967315e-01    9.975909e+07    1.541152e-08    2.734131e-11    1.374874e-08    1.895416e-01
    1.053151e+01    2.058651e+02    9.457840e-01    1.025943e+08    1.545182e-08    2.818430e-11    1.380375e-08    1.945416e-01
    1.029630e+01    2.031175e+02    9.963330e-01    1.053950e+08    1.549122e-08    2.905312e-11    1.385758e-08    1.995416e-01
    1.006691e+01    2.002975e+02    1.048365e+00    1.081594e+08    1.552976e-08    2.994862e-11    1.391026e-08    2.045416e-01
    9.843388e+00    1.974149e+02    1.101866e+00    1.108860e+08    1.556743e-08    3.087166e-11    1.396182e-08    2.095416e-01
    9.625763e+00    1.944786e+02    1.156821e+00    1.135737e+08    1.560428e-08    3.182314e-11    1.401227e-08    2.145416e-01
    9.414015e+00    1.914969e+02    1.213213e+00    1.162217e+08    1.564030e-08    3.280399e-11    1.406164e-08    2.195416e-01
    9.208132e+00    1.884780e+02    1.271027e+00    1.188295e+08    1.567553e-08    3.381520e-11    1.410996e-08    2.245416e-01
    9.008063e+00    1.854293e+02    1.330246e+00    1.213969e+08    1.570999e-08    3.485773e-11    1.415725e-08    2.295416e-01
