# sky130 nfet_01v8 gm/ID Processed Lookup Table
# Corner: fs
# Temperature: 75C
# W = 2.0 um
# L = 2.52 um (2520 nm)
# Columns: gm/id [1/V]  gm/gds [V/V]  id/W [A/m]  ft [Hz]  Cgg/W [F/m]  Cgd/W [F/m]  Cgs/W [F/m]  Vov [V]
#         gm/id          gm/gds            id/W              ft           Cgg/W           Cgd/W           Cgs/W             Vov
    2.334076e+01    1.580985e+02    3.996285e-07    2.775375e+02    5.348965e-09    1.981736e-13    4.894520e-10   -5.268895e-01
    2.333914e+01    1.580876e+02    4.490953e-07    3.118840e+02    5.348725e-09    2.048017e-13    5.080650e-10   -5.218895e-01
    2.333742e+01    1.580761e+02    5.046810e-07    3.504314e+02    5.349175e-09    2.116663e-13    5.274185e-10   -5.168895e-01
    2.333560e+01    1.580638e+02    5.671415e-07    3.936850e+02    5.350345e-09    2.187762e-13    5.475385e-10   -5.118895e-01
    2.333368e+01    1.580508e+02    6.373265e-07    4.422107e+02    5.352245e-09    2.261405e-13    5.684510e-10   -5.068895e-01
    2.333163e+01    1.580371e+02    7.161900e-07    4.966405e+02    5.354900e-09    2.337688e-13    5.901840e-10   -5.018895e-01
    2.332946e+01    1.580225e+02    8.048035e-07    5.576808e+02    5.358325e-09    2.416707e-13    6.127645e-10   -4.968895e-01
    2.332717e+01    1.580071e+02    9.043710e-07    6.261204e+02    5.362545e-09    2.498567e-13    6.362215e-10   -4.918895e-01
    2.332472e+01    1.579907e+02    1.016245e-06    7.028401e+02    5.367580e-09    2.583369e-13    6.605845e-10   -4.868895e-01
    2.332215e+01    1.579734e+02    1.141944e-06    7.888239e+02    5.373450e-09    2.671225e-13    6.858825e-10   -4.818895e-01
    2.331942e+01    1.579551e+02    1.283173e-06    8.851689e+02    5.380180e-09    2.762248e-13    7.121455e-10   -4.768895e-01
    2.331653e+01    1.579357e+02    1.441848e-06    9.930995e+02    5.387790e-09    2.856553e-13    7.394040e-10   -4.718895e-01
    2.331347e+01    1.579152e+02    1.620121e-06    1.113982e+03    5.396300e-09    2.954263e-13    7.676880e-10   -4.668895e-01
    2.331022e+01    1.578935e+02    1.820407e-06    1.249339e+03    5.405735e-09    3.055503e-13    7.970295e-10   -4.618895e-01
    2.330678e+01    1.578705e+02    2.045419e-06    1.400866e+03    5.416120e-09    3.160404e-13    8.274590e-10   -4.568895e-01
    2.330314e+01    1.578461e+02    2.298203e-06    1.570454e+03    5.427475e-09    3.269097e-13    8.590085e-10   -4.518895e-01
    2.329931e+01    1.578205e+02    2.582180e-06    1.760209e+03    5.439830e-09    3.381725e-13    8.917090e-10   -4.468895e-01
    2.329522e+01    1.577932e+02    2.901187e-06    1.972474e+03    5.453200e-09    3.498429e-13    9.255930e-10   -4.418895e-01
    2.329092e+01    1.577645e+02    3.259539e-06    2.209861e+03    5.467615e-09    3.619358e-13    9.606920e-10   -4.368895e-01
    2.328635e+01    1.577339e+02    3.662071e-06    2.475269e+03    5.483095e-09    3.744668e-13    9.970375e-10   -4.318895e-01
    2.328151e+01    1.577019e+02    4.114217e-06    2.771928e+03    5.499670e-09    3.874516e-13    1.034662e-09   -4.268895e-01
    2.327640e+01    1.576678e+02    4.622074e-06    3.103430e+03    5.517355e-09    4.009066e-13    1.073596e-09   -4.218895e-01
    2.327099e+01    1.576319e+02    5.192485e-06    3.473761e+03    5.536180e-09    4.148489e-13    1.113872e-09   -4.168895e-01
    2.326527e+01    1.575939e+02    5.833125e-06    3.887352e+03    5.556170e-09    4.292960e-13    1.155520e-09   -4.118895e-01
    2.325920e+01    1.575537e+02    6.552615e-06    4.349131e+03    5.577340e-09    4.442661e-13    1.198570e-09   -4.068895e-01
    2.325280e+01    1.575113e+02    7.360620e-06    4.864560e+03    5.599720e-09    4.597778e-13    1.243053e-09   -4.018895e-01
    2.324602e+01    1.574665e+02    8.267990e-06    5.439702e+03    5.623330e-09    4.758503e-13    1.288998e-09   -3.968895e-01
    2.323886e+01    1.574192e+02    9.286890e-06    6.081287e+03    5.648195e-09    4.925039e-13    1.336433e-09   -3.918895e-01
    2.323127e+01    1.573693e+02    1.043097e-05    6.796780e+03    5.674330e-09    5.097590e-13    1.385385e-09   -3.868895e-01
    2.322326e+01    1.573165e+02    1.171554e-05    7.594453e+03    5.701760e-09    5.276365e-13    1.435882e-09   -3.818895e-01
    2.321478e+01    1.572610e+02    1.315775e-05    8.483472e+03    5.730505e-09    5.461590e-13    1.487950e-09   -3.768895e-01
    2.320584e+01    1.572023e+02    1.477687e-05    9.474001e+03    5.760580e-09    5.653485e-13    1.541612e-09   -3.718895e-01
    2.319637e+01    1.571404e+02    1.659446e-05    1.057728e+04    5.792010e-09    5.852285e-13    1.596891e-09   -3.668895e-01
    2.318638e+01    1.570752e+02    1.863470e-05    1.180577e+04    5.824805e-09    6.058225e-13    1.653810e-09   -3.618895e-01
    2.317582e+01    1.570065e+02    2.092473e-05    1.317323e+04    5.858990e-09    6.271560e-13    1.712388e-09   -3.568895e-01
    2.316468e+01    1.569342e+02    2.349489e-05    1.469493e+04    5.894570e-09    6.492545e-13    1.772644e-09   -3.518895e-01
    2.315291e+01    1.568580e+02    2.637924e-05    1.638772e+04    5.931565e-09    6.721435e-13    1.834594e-09   -3.468895e-01
    2.314049e+01    1.567778e+02    2.961589e-05    1.827025e+04    5.969980e-09    6.958505e-13    1.898253e-09   -3.418895e-01
    2.312737e+01    1.566933e+02    3.324754e-05    2.036307e+04    6.009835e-09    7.204030e-13    1.963634e-09   -3.368895e-01
    2.311354e+01    1.566046e+02    3.732202e-05    2.268899e+04    6.051130e-09    7.458300e-13    2.030748e-09   -3.318895e-01
    2.309896e+01    1.565114e+02    4.189284e-05    2.527310e+04    6.093880e-09    7.721610e-13    2.099601e-09   -3.268895e-01
    2.308357e+01    1.564134e+02    4.701994e-05    2.814312e+04    6.138085e-09    7.994260e-13    2.170202e-09   -3.218895e-01
    2.306737e+01    1.563106e+02    5.277035e-05    3.132970e+04    6.183750e-09    8.276560e-13    2.242552e-09   -3.168895e-01
    2.305028e+01    1.562028e+02    5.921910e-05    3.486656e+04    6.230875e-09    8.568835e-13    2.316654e-09   -3.118895e-01
    2.303231e+01    1.560896e+02    6.645005e-05    3.879094e+04    6.279465e-09    8.871415e-13    2.392504e-09   -3.068895e-01
    2.301337e+01    1.559713e+02    7.455710e-05    4.314386e+04    6.329515e-09    9.184635e-13    2.470100e-09   -3.018895e-01
    2.299344e+01    1.558472e+02    8.364510e-05    4.797054e+04    6.381020e-09    9.508845e-13    2.549433e-09   -2.968895e-01
    2.297249e+01    1.557176e+02    9.383125e-05    5.332080e+04    6.433970e-09    9.844400e-13    2.630495e-09   -2.918895e-01
    2.295046e+01    1.555820e+02    1.052465e-04    5.924942e+04    6.488365e-09    1.019167e-12    2.713271e-09   -2.868895e-01
    2.292730e+01    1.554405e+02    1.180373e-04    6.581679e+04    6.544185e-09    1.055104e-12    2.797746e-09   -2.818895e-01
    2.290298e+01    1.552929e+02    1.323668e-04    7.308930e+04    6.601420e-09    1.092288e-12    2.883901e-09   -2.768895e-01
    2.287745e+01    1.551393e+02    1.484174e-04    8.113994e+04    6.660055e-09    1.130760e-12    2.971714e-09   -2.718895e-01
    2.285067e+01    1.549793e+02    1.663925e-04    9.004900e+04    6.720070e-09    1.170561e-12    3.061160e-09   -2.668895e-01
    2.282259e+01    1.548131e+02    1.865190e-04    9.990460e+04    6.781450e-09    1.211732e-12    3.152211e-09   -2.618895e-01
    2.279317e+01    1.546406e+02    2.090499e-04    1.108038e+05    6.844160e-09    1.254318e-12    3.244836e-09   -2.568895e-01
    2.276238e+01    1.544620e+02    2.342672e-04    1.228528e+05    6.908190e-09    1.298361e-12    3.339000e-09   -2.518895e-01
    2.273017e+01    1.542771e+02    2.624851e-04    1.361685e+05    6.973500e-09    1.343907e-12    3.434668e-09   -2.468895e-01
    2.269649e+01    1.540862e+02    2.940535e-04    1.508788e+05    7.040065e-09    1.391003e-12    3.531798e-09   -2.418895e-01
    2.266130e+01    1.538894e+02    3.293618e-04    1.671243e+05    7.107855e-09    1.439697e-12    3.630348e-09   -2.368895e-01
    2.262459e+01    1.536870e+02    3.688434e-04    1.850589e+05    7.176835e-09    1.490037e-12    3.730273e-09   -2.318895e-01
    2.258633e+01    1.534795e+02    4.129804e-04    2.048514e+05    7.246965e-09    1.542073e-12    3.831522e-09   -2.268895e-01
    2.254648e+01    1.532670e+02    4.623086e-04    2.266868e+05    7.318205e-09    1.595858e-12    3.934046e-09   -2.218895e-01
    2.250502e+01    1.530501e+02    5.174235e-04    2.507671e+05    7.390520e-09    1.651444e-12    4.037792e-09   -2.168895e-01
    2.246192e+01    1.528295e+02    5.789870e-04    2.773142e+05    7.463865e-09    1.708885e-12    4.142702e-09   -2.118895e-01
    2.241720e+01    1.526057e+02    6.477330e-04    3.065703e+05    7.538195e-09    1.768236e-12    4.248719e-09   -2.068895e-01
    2.237084e+01    1.523798e+02    7.244765e-04    3.388007e+05    7.613465e-09    1.829555e-12    4.355781e-09   -2.018895e-01
    2.232284e+01    1.521525e+02    8.101215e-04    3.742957e+05    7.689620e-09    1.892902e-12    4.463827e-09   -1.968895e-01
    2.227321e+01    1.519249e+02    9.056700e-04    4.133716e+05    7.766625e-09    1.958333e-12    4.572793e-09   -1.918895e-01
    2.222199e+01    1.516985e+02    1.012233e-03    4.563760e+05    7.844415e-09    2.025913e-12    4.682610e-09   -1.868895e-01
    2.216919e+01    1.514745e+02    1.131039e-03    5.036874e+05    7.922945e-09    2.095702e-12    4.793213e-09   -1.818895e-01
    2.211486e+01    1.512547e+02    1.263452e-03    5.557199e+05    8.002160e-09    2.167767e-12    4.904534e-09   -1.768895e-01
    2.205906e+01    1.510407e+02    1.410978e-03    6.129262e+05    8.082005e-09    2.242175e-12    5.016500e-09   -1.718895e-01
    2.200183e+01    1.508346e+02    1.575285e-03    6.758008e+05    8.162425e-09    2.318991e-12    5.129040e-09   -1.668895e-01
    2.194326e+01    1.506388e+02    1.758215e-03    7.448843e+05    8.243365e-09    2.398286e-12    5.242085e-09   -1.618895e-01
    2.188344e+01    1.504555e+02    1.961808e-03    8.207675e+05    8.324765e-09    2.480133e-12    5.355560e-09   -1.568895e-01
    2.182246e+01    1.502875e+02    2.188314e-03    9.040964e+05    8.406570e-09    2.564603e-12    5.469390e-09   -1.518895e-01
    2.176043e+01    1.501377e+02    2.440223e-03    9.955759e+05    8.488730e-09    2.651772e-12    5.583505e-09   -1.468895e-01
    2.169748e+01    1.500094e+02    2.720279e-03    1.095980e+06    8.571175e-09    2.741719e-12    5.697835e-09   -1.418895e-01
    2.163373e+01    1.499059e+02    3.031516e-03    1.206151e+06    8.653855e-09    2.834521e-12    5.812300e-09   -1.368895e-01
    2.156933e+01    1.498309e+02    3.377280e-03    1.327015e+06    8.736710e-09    2.930261e-12    5.926830e-09   -1.318895e-01
    2.150441e+01    1.497883e+02    3.761264e-03    1.459581e+06    8.819685e-09    3.029020e-12    6.041355e-09   -1.268895e-01
    2.143913e+01    1.497824e+02    4.187542e-03    1.604958e+06    8.902720e-09    3.130887e-12    6.155795e-09   -1.218895e-01
    2.137365e+01    1.498174e+02    4.660608e-03    1.764356e+06    8.985765e-09    3.235947e-12    6.270090e-09   -1.168895e-01
    2.130811e+01    1.498981e+02    5.185415e-03    1.939103e+06    9.068755e-09    3.344290e-12    6.384170e-09   -1.118895e-01
    2.124264e+01    1.500292e+02    5.767435e-03    2.130650e+06    9.151645e-09    3.456012e-12    6.497955e-09   -1.068895e-01
    2.117740e+01    1.502154e+02    6.412680e-03    2.340587e+06    9.234375e-09    3.571205e-12    6.611390e-09   -1.018895e-01
    2.111250e+01    1.504620e+02    7.127795e-03    2.570653e+06    9.316900e-09    3.689968e-12    6.724400e-09   -9.688950e-02
    2.104802e+01    1.507739e+02    7.920095e-03    2.822753e+06    9.399155e-09    3.812400e-12    6.836930e-09   -9.188950e-02
    2.098404e+01    1.511561e+02    8.797635e-03    3.098962e+06    9.481105e-09    3.938606e-12    6.948910e-09   -8.688950e-02
    2.092060e+01    1.516136e+02    9.769295e-03    3.401554e+06    9.562690e-09    4.068690e-12    7.060285e-09   -8.188950e-02
    2.085768e+01    1.521515e+02    1.084485e-02    3.733003e+06    9.643865e-09    4.202762e-12    7.170995e-09   -7.688950e-02
    2.079523e+01    1.527742e+02    1.203503e-02    4.095999e+06    9.724590e-09    4.340933e-12    7.280980e-09   -7.188950e-02
    2.073315e+01    1.534861e+02    1.335169e-02    4.493474e+06    9.804815e-09    4.483318e-12    7.390185e-09   -6.688950e-02
    2.067127e+01    1.542912e+02    1.480780e-02    4.928596e+06    9.884495e-09    4.630035e-12    7.498565e-09   -6.188950e-02
    2.060937e+01    1.551929e+02    1.641763e-02    5.404793e+06    9.963595e-09    4.781207e-12    7.606065e-09   -5.688950e-02
    2.054715e+01    1.561941e+02    1.819682e-02    5.925757e+06    1.004208e-08    4.936957e-12    7.712640e-09   -5.188950e-02
    2.048426e+01    1.572971e+02    2.016253e-02    6.495450e+06    1.011990e-08    5.097415e-12    7.818240e-09   -4.688950e-02
    2.042025e+01    1.585031e+02    2.233350e-02    7.118107e+06    1.019702e-08    5.262710e-12    7.922830e-09   -4.188950e-02
    2.035466e+01    1.598128e+02    2.473021e-02    7.798242e+06    1.027342e-08    5.432980e-12    8.026360e-09   -3.688950e-02
    2.028688e+01    1.612254e+02    2.737501e-02    8.540607e+06    1.034906e-08    5.608365e-12    8.128805e-09   -3.188950e-02
    2.021634e+01    1.627396e+02    3.029219e-02    9.350235e+06    1.042391e-08    5.789005e-12    8.230115e-09   -2.688950e-02
    2.014235e+01    1.643527e+02    3.350813e-02    1.023237e+07    1.049794e-08    5.975055e-12    8.330270e-09   -2.188950e-02
    2.006420e+01    1.660604e+02    3.705141e-02    1.119246e+07    1.057113e-08    6.166665e-12    8.429230e-09   -1.688950e-02
    1.998119e+01    1.678579e+02    4.095287e-02    1.223611e+07    1.064345e-08    6.363990e-12    8.526970e-09   -1.188950e-02
    1.989255e+01    1.697386e+02    4.524575e-02    1.336907e+07    1.071488e-08    6.567190e-12    8.623470e-09   -6.889500e-03
    1.979754e+01    1.716946e+02    4.996571e-02    1.459712e+07    1.078540e-08    6.776435e-12    8.718700e-09   -1.889500e-03
    1.969544e+01    1.737168e+02    5.515085e-02    1.592607e+07    1.085499e-08    6.991890e-12    8.812640e-09    3.110500e-03
    1.958556e+01    1.757949e+02    6.084185e-02    1.736167e+07    1.092363e-08    7.213740e-12    8.905275e-09    8.110500e-03
    1.946725e+01    1.779176e+02    6.708185e-02    1.890951e+07    1.099131e-08    7.442165e-12    8.996585e-09    1.311050e-02
    1.933994e+01    1.800720e+02    7.391645e-02    2.057496e+07    1.105802e-08    7.677345e-12    9.086555e-09    1.811050e-02
    1.920314e+01    1.822445e+02    8.139365e-02    2.236310e+07    1.112374e-08    7.919480e-12    9.175180e-09    2.311050e-02
    1.905642e+01    1.844208e+02    8.956375e-02    2.427858e+07    1.118846e-08    8.168770e-12    9.262440e-09    2.811050e-02
    1.889950e+01    1.865859e+02    9.847915e-02    2.632557e+07    1.125219e-08    8.425415e-12    9.348335e-09    3.311050e-02
    1.873216e+01    1.887240e+02    1.081943e-01    2.850766e+07    1.131490e-08    8.689630e-12    9.432855e-09    3.811050e-02
    1.855431e+01    1.908194e+02    1.187653e-01    3.082779e+07    1.137659e-08    8.961630e-12    9.516000e-09    4.311050e-02
    1.836598e+01    1.928559e+02    1.302498e-01    3.328811e+07    1.143726e-08    9.241645e-12    9.597765e-09    4.811050e-02
    1.816728e+01    1.948175e+02    1.427067e-01    3.588999e+07    1.149691e-08    9.529900e-12    9.678145e-09    5.311050e-02
    1.795847e+01    1.966888e+02    1.561957e-01    3.863391e+07    1.155553e-08    9.826640e-12    9.757150e-09    5.811050e-02
    1.773988e+01    1.984545e+02    1.707772e-01    4.151943e+07    1.161313e-08    1.013211e-11    9.834775e-09    6.311050e-02
    1.751196e+01    2.001003e+02    1.865115e-01    4.454516e+07    1.166970e-08    1.044656e-11    9.911030e-09    6.811050e-02
    1.727521e+01    2.016125e+02    2.034590e-01    4.770874e+07    1.172526e-08    1.077026e-11    9.985915e-09    7.311050e-02
    1.703025e+01    2.029788e+02    2.216792e-01    5.100682e+07    1.177980e-08    1.110348e-11    1.005944e-08    7.811050e-02
    1.677773e+01    2.041879e+02    2.412309e-01    5.443514e+07    1.183333e-08    1.144650e-11    1.013162e-08    8.311050e-02
    1.651836e+01    2.052298e+02    2.621711e-01    5.798848e+07    1.188585e-08    1.179961e-11    1.020245e-08    8.811050e-02
    1.625289e+01    2.060960e+02    2.845554e-01    6.166080e+07    1.193737e-08    1.216310e-11    1.027194e-08    9.311050e-02
    1.598211e+01    2.067795e+02    3.084369e-01    6.544522e+07    1.198789e-08    1.253728e-11    1.034012e-08    9.811050e-02
    1.570681e+01    2.072748e+02    3.338665e-01    6.933418e+07    1.203743e-08    1.292248e-11    1.040699e-08    1.031105e-01
    1.542779e+01    2.075780e+02    3.608922e-01    7.331942e+07    1.208600e-08    1.331902e-11    1.047256e-08    1.081105e-01
    1.514587e+01    2.076869e+02    3.895587e-01    7.739230e+07    1.213360e-08    1.372724e-11    1.053685e-08    1.131105e-01
    1.486181e+01    2.076004e+02    4.199075e-01    8.154358e+07    1.218024e-08    1.414748e-11    1.059988e-08    1.181105e-01
    1.457639e+01    2.073191e+02    4.519765e-01    8.576376e+07    1.222594e-08    1.458013e-11    1.066165e-08    1.231105e-01
    1.429035e+01    2.068454e+02    4.858001e-01    9.004329e+07    1.227070e-08    1.502553e-11    1.072219e-08    1.281105e-01
    1.400440e+01    2.061823e+02    5.214085e-01    9.437229e+07    1.231455e-08    1.548411e-11    1.078151e-08    1.331105e-01
    1.371920e+01    2.053343e+02    5.588285e-01    9.874105e+07    1.235748e-08    1.595623e-11    1.083963e-08    1.381105e-01
    1.343540e+01    2.043072e+02    5.980825e-01    1.031400e+08    1.239952e-08    1.644232e-11    1.089657e-08    1.431105e-01
    1.315357e+01    2.031074e+02    6.391890e-01    1.075596e+08    1.244067e-08    1.694279e-11    1.095234e-08    1.481105e-01
    1.287426e+01    2.017422e+02    6.821625e-01    1.119908e+08    1.248095e-08    1.745812e-11    1.100697e-08    1.531105e-01
    1.259796e+01    2.002200e+02    7.270150e-01    1.164249e+08    1.252039e-08    1.798874e-11    1.106047e-08    1.581105e-01
    1.232511e+01    1.985490e+02    7.737535e-01    1.208536e+08    1.255897e-08    1.853511e-11    1.111286e-08    1.631105e-01
    1.205614e+01    1.967386e+02    8.223820e-01    1.252691e+08    1.259673e-08    1.909775e-11    1.116415e-08    1.681105e-01
    1.179138e+01    1.947981e+02    8.729010e-01    1.296641e+08    1.263368e-08    1.967714e-11    1.121439e-08    1.731105e-01
    1.153116e+01    1.927371e+02    9.253075e-01    1.340320e+08    1.266983e-08    2.027382e-11    1.126357e-08    1.781105e-01
    1.127574e+01    1.905655e+02    9.795975e-01    1.383667e+08    1.270520e-08    2.088832e-11    1.131172e-08    1.831105e-01
    1.102537e+01    1.882926e+02    1.035762e+00    1.426628e+08    1.273980e-08    2.152120e-11    1.135886e-08    1.881105e-01
    1.078023e+01    1.859285e+02    1.093790e+00    1.469154e+08    1.277364e-08    2.217304e-11    1.140501e-08    1.931105e-01
    1.054047e+01    1.834823e+02    1.153670e+00    1.511204e+08    1.280675e-08    2.284444e-11    1.145018e-08    1.981105e-01
    1.030622e+01    1.809634e+02    1.215387e+00    1.552740e+08    1.283913e-08    2.353602e-11    1.149441e-08    2.031105e-01
    1.007758e+01    1.783808e+02    1.278925e+00    1.593733e+08    1.287081e-08    2.424841e-11    1.153770e-08    2.081105e-01
    9.854601e+00    1.757429e+02    1.344266e+00    1.634159e+08    1.290178e-08    2.498229e-11    1.158007e-08    2.131105e-01
    9.637322e+00    1.730583e+02    1.411390e+00    1.673998e+08    1.293209e-08    2.573834e-11    1.162155e-08    2.181105e-01
    9.425764e+00    1.703345e+02    1.480279e+00    1.713236e+08    1.296173e-08    2.651726e-11    1.166216e-08    2.231105e-01
    9.219910e+00    1.675790e+02    1.550911e+00    1.751864e+08    1.299072e-08    2.731980e-11    1.170191e-08    2.281105e-01
