# sky130 nfet_01v8 gm/ID Processed Lookup Table
# Corner: fs
# Temperature: 75C
# W = 2.0 um
# L = 2.7 um (2700 nm)
# Columns: gm/id [1/V]  gm/gds [V/V]  id/W [A/m]  ft [Hz]  Cgg/W [F/m]  Cgd/W [F/m]  Cgs/W [F/m]  Vov [V]
#         gm/id          gm/gds            id/W              ft           Cgg/W           Cgd/W           Cgs/W             Vov
    2.347910e+01    1.646727e+02    3.605187e-07    2.358296e+02    5.712565e-09    2.101186e-13    5.150235e-10   -5.263468e-01
    2.347748e+01    1.646614e+02    4.054248e-07    2.652062e+02    5.712130e-09    2.171797e-13    5.347115e-10   -5.213468e-01
    2.347576e+01    1.646493e+02    4.559205e-07    2.982000e+02    5.712435e-09    2.244941e-13    5.551895e-10   -5.163468e-01
    2.347394e+01    1.646367e+02    5.127010e-07    3.352488e+02    5.713510e-09    2.320712e-13    5.764845e-10   -5.113468e-01
    2.347201e+01    1.646232e+02    5.765475e-07    3.768440e+02    5.715365e-09    2.399210e-13    5.986270e-10   -5.063468e-01
    2.346996e+01    1.646090e+02    6.483385e-07    4.235340e+02    5.718025e-09    2.480537e-13    6.216450e-10   -5.013468e-01
    2.346779e+01    1.645939e+02    7.290610e-07    4.759327e+02    5.721510e-09    2.564798e-13    6.455690e-10   -4.963468e-01
    2.346550e+01    1.645779e+02    8.198245e-07    5.347260e+02    5.725845e-09    2.652103e-13    6.704305e-10   -4.913468e-01
    2.346307e+01    1.645610e+02    9.218770e-07    6.006801e+02    5.731055e-09    2.742566e-13    6.962600e-10   -4.863468e-01
    2.346048e+01    1.645430e+02    1.036620e-06    6.746524e+02    5.737155e-09    2.836305e-13    7.230900e-10   -4.813468e-01
    2.345774e+01    1.645240e+02    1.165630e-06    7.575980e+02    5.744180e-09    2.933441e-13    7.509530e-10   -4.763468e-01
    2.345485e+01    1.645039e+02    1.310676e-06    8.505858e+02    5.752145e-09    3.034102e-13    7.798815e-10   -4.713468e-01
    2.345178e+01    1.644826e+02    1.473749e-06    9.548074e+02    5.761075e-09    3.138417e-13    8.099090e-10   -4.663468e-01
    2.344853e+01    1.644600e+02    1.657085e-06    1.071593e+03    5.770995e-09    3.246523e-13    8.410690e-10   -4.613468e-01
    2.344508e+01    1.644362e+02    1.863198e-06    1.202423e+03    5.781940e-09    3.358561e-13    8.733955e-10   -4.563468e-01
    2.344143e+01    1.644109e+02    2.094910e-06    1.348954e+03    5.793920e-09    3.474675e-13    9.069230e-10   -4.513468e-01
    2.343756e+01    1.643841e+02    2.355394e-06    1.513025e+03    5.806975e-09    3.595016e-13    9.416855e-10   -4.463468e-01
    2.343348e+01    1.643559e+02    2.648215e-06    1.696695e+03    5.821120e-09    3.719739e-13    9.777180e-10   -4.413468e-01
    2.342913e+01    1.643258e+02    2.977376e-06    1.902244e+03    5.836385e-09    3.849006e-13    1.015055e-09   -4.363468e-01
    2.342455e+01    1.642942e+02    3.347376e-06    2.132223e+03    5.852795e-09    3.982982e-13    1.053730e-09   -4.313468e-01
    2.341969e+01    1.642607e+02    3.763268e-06    2.389462e+03    5.870380e-09    4.121841e-13    1.093780e-09   -4.263468e-01
    2.341455e+01    1.642252e+02    4.230725e-06    2.677117e+03    5.889160e-09    4.265760e-13    1.135237e-09   -4.213468e-01
    2.340911e+01    1.641878e+02    4.756122e-06    2.998691e+03    5.909165e-09    4.414924e-13    1.178137e-09   -4.163468e-01
    2.340334e+01    1.641481e+02    5.346615e-06    3.358083e+03    5.930420e-09    4.569521e-13    1.222512e-09   -4.113468e-01
    2.339723e+01    1.641063e+02    6.010245e-06    3.759625e+03    5.952950e-09    4.729749e-13    1.268397e-09   -4.063468e-01
    2.339079e+01    1.640621e+02    6.756030e-06    4.208131e+03    5.976780e-09    4.895811e-13    1.315823e-09   -4.013468e-01
    2.338396e+01    1.640154e+02    7.594105e-06    4.708944e+03    6.001935e-09    5.067915e-13    1.364823e-09   -3.963468e-01
    2.337673e+01    1.639659e+02    8.535845e-06    5.267997e+03    6.028440e-09    5.246285e-13    1.415429e-09   -3.913468e-01
    2.336909e+01    1.639138e+02    9.594010e-06    5.891877e+03    6.056315e-09    5.431130e-13    1.467669e-09   -3.863468e-01
    2.336101e+01    1.638587e+02    1.078293e-05    6.587887e+03    6.085585e-09    5.622695e-13    1.521574e-09   -3.813468e-01
    2.335246e+01    1.638006e+02    1.211869e-05    7.364131e+03    6.116270e-09    5.821205e-13    1.577172e-09   -3.763468e-01
    2.334342e+01    1.637393e+02    1.361931e-05    8.229589e+03    6.148390e-09    6.026915e-13    1.634488e-09   -3.713468e-01
    2.333386e+01    1.636746e+02    1.530503e-05    9.194206e+03    6.181970e-09    6.240075e-13    1.693551e-09   -3.663468e-01
    2.332377e+01    1.636064e+02    1.719857e-05    1.026900e+04    6.217030e-09    6.460945e-13    1.754382e-09   -3.613468e-01
    2.331310e+01    1.635345e+02    1.932537e-05    1.146619e+04    6.253580e-09    6.689790e-13    1.817003e-09   -3.563468e-01
    2.330184e+01    1.634587e+02    2.171398e-05    1.279929e+04    6.291640e-09    6.926895e-13    1.881436e-09   -3.513468e-01
    2.328993e+01    1.633789e+02    2.439641e-05    1.428324e+04    6.331220e-09    7.172540e-13    1.947699e-09   -3.463468e-01
    2.327737e+01    1.632949e+02    2.740853e-05    1.593458e+04    6.372345e-09    7.427020e-13    2.015807e-09   -3.413468e-01
    2.326411e+01    1.632065e+02    3.079057e-05    1.777160e+04    6.415015e-09    7.690635e-13    2.085776e-09   -3.363468e-01
    2.325011e+01    1.631135e+02    3.458756e-05    1.981449e+04    6.459250e-09    7.963700e-13    2.157618e-09   -3.313468e-01
    2.323533e+01    1.630156e+02    3.885000e-05    2.208561e+04    6.505050e-09    8.246535e-13    2.231340e-09   -3.263468e-01
    2.321976e+01    1.629130e+02    4.363441e-05    2.460964e+04    6.552420e-09    8.539470e-13    2.306951e-09   -3.213468e-01
    2.320333e+01    1.628051e+02    4.900411e-05    2.741376e+04    6.601375e-09    8.842840e-13    2.384454e-09   -3.163468e-01
    2.318603e+01    1.626918e+02    5.502995e-05    3.052809e+04    6.651905e-09    9.157000e-13    2.463851e-09   -3.113468e-01
    2.316779e+01    1.625732e+02    6.179130e-05    3.398575e+04    6.704020e-09    9.482310e-13    2.545140e-09   -3.063468e-01
    2.314858e+01    1.624486e+02    6.937690e-05    3.782334e+04    6.757710e-09    9.819130e-13    2.628316e-09   -3.013468e-01
    2.312837e+01    1.623184e+02    7.788605e-05    4.208118e+04    6.812975e-09    1.016785e-12    2.713375e-09   -2.963468e-01
    2.310709e+01    1.621821e+02    8.742980e-05    4.680374e+04    6.869805e-09    1.052885e-12    2.800302e-09   -2.913468e-01
    2.308472e+01    1.620396e+02    9.813225e-05    5.203989e+04    6.928195e-09    1.090254e-12    2.889085e-09   -2.863468e-01
    2.306120e+01    1.618908e+02    1.101322e-04    5.784364e+04    6.988125e-09    1.128932e-12    2.979707e-09   -2.813468e-01
    2.303650e+01    1.617356e+02    1.235846e-04    6.427426e+04    7.049590e-09    1.168962e-12    3.072148e-09   -2.763468e-01
    2.301055e+01    1.615739e+02    1.386627e-04    7.139709e+04    7.112565e-09    1.210388e-12    3.166384e-09   -2.713468e-01
    2.298332e+01    1.614055e+02    1.555597e-04    7.928384e+04    7.177040e-09    1.253254e-12    3.262387e-09   -2.663468e-01
    2.295478e+01    1.612305e+02    1.744914e-04    8.801361e+04    7.242980e-09    1.297605e-12    3.360128e-09   -2.613468e-01
    2.292485e+01    1.610489e+02    1.956984e-04    9.767304e+04    7.310370e-09    1.343489e-12    3.459574e-09   -2.563468e-01
    2.289351e+01    1.608606e+02    2.194494e-04    1.083574e+05    7.379180e-09    1.390954e-12    3.560686e-09   -2.513468e-01
    2.286073e+01    1.606660e+02    2.460433e-04    1.201716e+05    7.449375e-09    1.440050e-12    3.663425e-09   -2.463468e-01
    2.282643e+01    1.604648e+02    2.758138e-04    1.332301e+05    7.520935e-09    1.490827e-12    3.767747e-09   -2.413468e-01
    2.279061e+01    1.602575e+02    3.091324e-04    1.476593e+05    7.593810e-09    1.543336e-12    3.873607e-09   -2.363468e-01
    2.275323e+01    1.600443e+02    3.464124e-04    1.635972e+05    7.667975e-09    1.597633e-12    3.980954e-09   -2.313468e-01
    2.271424e+01    1.598254e+02    3.881140e-04    1.811954e+05    7.743380e-09    1.653772e-12    4.089735e-09   -2.263468e-01
    2.267362e+01    1.596015e+02    4.347492e-04    2.006197e+05    7.819990e-09    1.711808e-12    4.199894e-09   -2.213468e-01
    2.263136e+01    1.593729e+02    4.868873e-04    2.220523e+05    7.897760e-09    1.771800e-12    4.311375e-09   -2.163468e-01
    2.258743e+01    1.591403e+02    5.451605e-04    2.456922e+05    7.976640e-09    1.833807e-12    4.424115e-09   -2.113468e-01
    2.254183e+01    1.589044e+02    6.102715e-04    2.717574e+05    8.056585e-09    1.897889e-12    4.538052e-09   -2.063468e-01
    2.249454e+01    1.586663e+02    6.830005e-04    3.004866e+05    8.137540e-09    1.964110e-12    4.653117e-09   -2.013468e-01
    2.244557e+01    1.584268e+02    7.642130e-04    3.321406e+05    8.219460e-09    2.032533e-12    4.769246e-09   -1.963468e-01
    2.239494e+01    1.581871e+02    8.548695e-04    3.670053e+05    8.302285e-09    2.103222e-12    4.886366e-09   -1.913468e-01
    2.234267e+01    1.579487e+02    9.560340e-04    4.053926e+05    8.385960e-09    2.176247e-12    5.004405e-09   -1.863468e-01
    2.228879e+01    1.577130e+02    1.068886e-03    4.476441e+05    8.470430e-09    2.251675e-12    5.123295e-09   -1.813468e-01
    2.223334e+01    1.574817e+02    1.194734e-03    4.941329e+05    8.555635e-09    2.329577e-12    5.242950e-09   -1.763468e-01
    2.217638e+01    1.572568e+02    1.335023e-03    5.452670e+05    8.641520e-09    2.410026e-12    5.363305e-09   -1.713468e-01
    2.211796e+01    1.570405e+02    1.491355e-03    6.014923e+05    8.728025e-09    2.493096e-12    5.484275e-09   -1.663468e-01
    2.205817e+01    1.568352e+02    1.665501e-03    6.632970e+05    8.815080e-09    2.578864e-12    5.605785e-09   -1.613468e-01
    2.199709e+01    1.566435e+02    1.859420e-03    7.312134e+05    8.902635e-09    2.667408e-12    5.727755e-09   -1.563468e-01
    2.193483e+01    1.564682e+02    2.075277e-03    8.058251e+05    8.990620e-09    2.758809e-12    5.850105e-09   -1.513468e-01
    2.187150e+01    1.563124e+02    2.315465e-03    8.877694e+05    9.078975e-09    2.853148e-12    5.972755e-09   -1.463468e-01
    2.180721e+01    1.561797e+02    2.582630e-03    9.777438e+05    9.167635e-09    2.950510e-12    6.095630e-09   -1.413468e-01
    2.174214e+01    1.560738e+02    2.879687e-03    1.076512e+06    9.256545e-09    3.050982e-12    6.218645e-09   -1.363468e-01
    2.167638e+01    1.559985e+02    3.209863e-03    1.184908e+06    9.345630e-09    3.154654e-12    6.341725e-09   -1.313468e-01
    2.161010e+01    1.559580e+02    3.576714e-03    1.303847e+06    9.434840e-09    3.261617e-12    6.464785e-09   -1.263468e-01
    2.154344e+01    1.559568e+02    3.984168e-03    1.434328e+06    9.524110e-09    3.371963e-12    6.587755e-09   -1.213468e-01
    2.147659e+01    1.559995e+02    4.436557e-03    1.577449e+06    9.613380e-09    3.485791e-12    6.710555e-09   -1.163468e-01
    2.140965e+01    1.560911e+02    4.938661e-03    1.734409e+06    9.702585e-09    3.603199e-12    6.833105e-09   -1.113468e-01
    2.134281e+01    1.562366e+02    5.495750e-03    1.906523e+06    9.791665e-09    3.724288e-12    6.955340e-09   -1.063468e-01
    2.127616e+01    1.564411e+02    6.113640e-03    2.095228e+06    9.880570e-09    3.849163e-12    7.077175e-09   -1.013468e-01
    2.120984e+01    1.567100e+02    6.798740e-03    2.302100e+06    9.969235e-09    3.977931e-12    7.198555e-09   -9.634680e-02
    2.114394e+01    1.570488e+02    7.558115e-03    2.528859e+06    1.005761e-08    4.110703e-12    7.319395e-09   -9.134680e-02
    2.107850e+01    1.574626e+02    8.399545e-03    2.777386e+06    1.014564e-08    4.247590e-12    7.439635e-09   -8.634680e-02
    2.101357e+01    1.579568e+02    9.331610e-03    3.049737e+06    1.023326e-08    4.388711e-12    7.559210e-09   -8.134680e-02
    2.094912e+01    1.585363e+02    1.036375e-02    3.348146e+06    1.032045e-08    4.534183e-12    7.678050e-09   -7.634680e-02
    2.088507e+01    1.592060e+02    1.150635e-02    3.675050e+06    1.040712e-08    4.684130e-12    7.796105e-09   -7.134680e-02
    2.082132e+01    1.599706e+02    1.277085e-02    4.033094e+06    1.049325e-08    4.838679e-12    7.913305e-09   -6.634680e-02
    2.075767e+01    1.608339e+02    1.416980e-02    4.425137e+06    1.057878e-08    4.997958e-12    8.029605e-09   -6.134680e-02
    2.069387e+01    1.617995e+02    1.571698e-02    4.854271e+06    1.066368e-08    5.162100e-12    8.144940e-09   -5.634680e-02
    2.062961e+01    1.628702e+02    1.742752e-02    5.323823e+06    1.074789e-08    5.331245e-12    8.259270e-09   -5.134680e-02
    2.056451e+01    1.640482e+02    1.931798e-02    5.837359e+06    1.083138e-08    5.505535e-12    8.372535e-09   -4.634680e-02
    2.049809e+01    1.653345e+02    2.140648e-02    6.398679e+06    1.091412e-08    5.685110e-12    8.484700e-09   -4.134680e-02
    2.042986e+01    1.667296e+02    2.371279e-02    7.011827e+06    1.099606e-08    5.870125e-12    8.595710e-09   -3.634680e-02
    2.035921e+01    1.682325e+02    2.625846e-02    7.681069e+06    1.107717e-08    6.060735e-12    8.705535e-09   -3.134680e-02
    2.028551e+01    1.698412e+02    2.906694e-02    8.410884e+06    1.115742e-08    6.257090e-12    8.814135e-09   -2.634680e-02
    2.020806e+01    1.715525e+02    3.216365e-02    9.205950e+06    1.123677e-08    6.459360e-12    8.921470e-09   -2.134680e-02
    2.012614e+01    1.733619e+02    3.557612e-02    1.007109e+07    1.131521e-08    6.667710e-12    9.027510e-09   -1.634680e-02
    2.003902e+01    1.752634e+02    3.933401e-02    1.101129e+07    1.139270e-08    6.882315e-12    9.132230e-09   -1.134680e-02
    1.994592e+01    1.772498e+02    4.346929e-02    1.203158e+07    1.146923e-08    7.103350e-12    9.235595e-09   -6.346800e-03
    1.984611e+01    1.793125e+02    4.801616e-02    1.313706e+07    1.154476e-08    7.331000e-12    9.337580e-09   -1.346800e-03
    1.973888e+01    1.814415e+02    5.301120e-02    1.433279e+07    1.161928e-08    7.565455e-12    9.438175e-09    3.653200e-03
    1.962351e+01    1.836255e+02    5.849335e-02    1.562375e+07    1.169279e-08    7.806905e-12    9.537350e-09    8.653200e-03
    1.949942e+01    1.858521e+02    6.450380e-02    1.701478e+07    1.176524e-08    8.055560e-12    9.635085e-09    1.365320e-02
    1.936603e+01    1.881077e+02    7.108610e-02    1.851047e+07    1.183663e-08    8.311620e-12    9.731375e-09    1.865320e-02
    1.922289e+01    1.903777e+02    7.828595e-02    2.011508e+07    1.190696e-08    8.575295e-12    9.826205e-09    2.365320e-02
    1.906962e+01    1.926468e+02    8.615120e-02    2.183255e+07    1.197621e-08    8.846810e-12    9.919560e-09    2.865320e-02
    1.890596e+01    1.948990e+02    9.473155e-02    2.366626e+07    1.204437e-08    9.126395e-12    1.001144e-08    3.365320e-02
    1.873174e+01    1.971177e+02    1.040786e-01    2.561912e+07    1.211143e-08    9.414275e-12    1.010183e-08    3.865320e-02
    1.854694e+01    1.992862e+02    1.142452e-01    2.769339e+07    1.217739e-08    9.710695e-12    1.019073e-08    4.365320e-02
    1.835160e+01    2.013879e+02    1.252858e-01    2.989062e+07    1.224225e-08    1.001591e-11    1.027813e-08    4.865320e-02
    1.814593e+01    2.034059e+02    1.372557e-01    3.221166e+07    1.230600e-08    1.033016e-11    1.036405e-08    5.365320e-02
    1.793022e+01    2.053244e+02    1.502109e-01    3.465652e+07    1.236864e-08    1.065373e-11    1.044848e-08    5.865320e-02
    1.770485e+01    2.071277e+02    1.642076e-01    3.722446e+07    1.243018e-08    1.098687e-11    1.053142e-08    6.365320e-02
    1.747032e+01    2.088009e+02    1.793023e-01    3.991382e+07    1.249061e-08    1.132988e-11    1.061288e-08    6.865320e-02
    1.722719e+01    2.103306e+02    1.955508e-01    4.272211e+07    1.254994e-08    1.168305e-11    1.069286e-08    7.365320e-02
    1.697610e+01    2.117040e+02    2.130084e-01    4.564600e+07    1.260817e-08    1.204667e-11    1.077137e-08    7.865320e-02
    1.671775e+01    2.129099e+02    2.317292e-01    4.868137e+07    1.266531e-08    1.242106e-11    1.084844e-08    8.365320e-02
    1.645288e+01    2.139386e+02    2.517656e-01    5.182329e+07    1.272136e-08    1.280653e-11    1.092405e-08    8.865320e-02
    1.618228e+01    2.147817e+02    2.731685e-01    5.506605e+07    1.277634e-08    1.320342e-11    1.099822e-08    9.365320e-02
    1.590674e+01    2.154326e+02    2.959863e-01    5.840338e+07    1.283025e-08    1.361207e-11    1.107098e-08    9.865320e-02
    1.562709e+01    2.158863e+02    3.202651e-01    6.182835e+07    1.288309e-08    1.403283e-11    1.114232e-08    1.036532e-01
    1.534413e+01    2.161393e+02    3.460483e-01    6.533359e+07    1.293489e-08    1.446607e-11    1.121227e-08    1.086532e-01
    1.505866e+01    2.161896e+02    3.733761e-01    6.891118e+07    1.298564e-08    1.491216e-11    1.128084e-08    1.136532e-01
    1.477149e+01    2.160370e+02    4.022855e-01    7.255303e+07    1.303537e-08    1.537148e-11    1.134805e-08    1.186532e-01
    1.448338e+01    2.156831e+02    4.328103e-01    7.625083e+07    1.308408e-08    1.584446e-11    1.141391e-08    1.236532e-01
    1.419505e+01    2.151301e+02    4.649805e-01    7.999594e+07    1.313179e-08    1.633149e-11    1.147845e-08    1.286532e-01
    1.390720e+01    2.143822e+02    4.988228e-01    8.377998e+07    1.317850e-08    1.683301e-11    1.154169e-08    1.336532e-01
    1.362051e+01    2.134445e+02    5.343600e-01    8.759447e+07    1.322424e-08    1.734946e-11    1.160363e-08    1.386532e-01
    1.333559e+01    2.123233e+02    5.716110e-01    9.143117e+07    1.326902e-08    1.788131e-11    1.166430e-08    1.436532e-01
    1.305299e+01    2.110255e+02    6.105920e-01    9.528188e+07    1.331285e-08    1.842902e-11    1.172371e-08    1.486532e-01
    1.277324e+01    2.095593e+02    6.513150e-01    9.913888e+07    1.335575e-08    1.899309e-11    1.178191e-08    1.536532e-01
    1.249681e+01    2.079332e+02    6.937885e-01    1.029948e+08    1.339773e-08    1.957403e-11    1.183889e-08    1.586532e-01
    1.222415e+01    2.061564e+02    7.380175e-01    1.068428e+08    1.343880e-08    2.017236e-11    1.189468e-08    1.636532e-01
    1.195562e+01    2.042382e+02    7.840050e-01    1.106761e+08    1.347899e-08    2.078862e-11    1.194930e-08    1.686532e-01
    1.169157e+01    2.021889e+02    8.317495e-01    1.144888e+08    1.351831e-08    2.142338e-11    1.200278e-08    1.736532e-01
    1.143228e+01    2.000183e+02    8.812480e-01    1.182754e+08    1.355677e-08    2.207722e-11    1.205514e-08    1.786532e-01
    1.117800e+01    1.977363e+02    9.324940e-01    1.220310e+08    1.359440e-08    2.275075e-11    1.210638e-08    1.836532e-01
    1.092895e+01    1.953530e+02    9.854790e-01    1.257511e+08    1.363121e-08    2.344457e-11    1.215655e-08    1.886532e-01
    1.068530e+01    1.928784e+02    1.040192e+00    1.294318e+08    1.366721e-08    2.415934e-11    1.220565e-08    1.936532e-01
    1.044718e+01    1.903221e+02    1.096622e+00    1.330697e+08    1.370242e-08    2.489573e-11    1.225372e-08    1.986532e-01
    1.021470e+01    1.876934e+02    1.154753e+00    1.366620e+08    1.373685e-08    2.565443e-11    1.230076e-08    2.036532e-01
    9.987926e+00    1.850017e+02    1.214571e+00    1.402065e+08    1.377053e-08    2.643614e-11    1.234681e-08    2.086532e-01
    9.766919e+00    1.822556e+02    1.276058e+00    1.437011e+08    1.380347e-08    2.724161e-11    1.239189e-08    2.136532e-01
    9.551687e+00    1.794633e+02    1.339197e+00    1.471445e+08    1.383568e-08    2.807162e-11    1.243600e-08    2.186532e-01
    9.342232e+00    1.766329e+02    1.403968e+00    1.505358e+08    1.386719e-08    2.892694e-11    1.247918e-08    2.236532e-01
    9.138540e+00    1.737719e+02    1.470352e+00    1.538743e+08    1.389800e-08    2.980841e-11    1.252145e-08    2.286532e-01
