# sky130 nfet_01v8 gm/ID Processed Lookup Table
# Corner: fs
# Temperature: 75C
# W = 2.0 um
# L = 1.08 um (1080 nm)
# Columns: gm/id [1/V]  gm/gds [V/V]  id/W [A/m]  ft [Hz]  Cgg/W [F/m]  Cgd/W [F/m]  Cgs/W [F/m]  Vov [V]
#         gm/id          gm/gds            id/W              ft           Cgg/W           Cgd/W           Cgs/W             Vov
    2.370972e+01    1.457985e+02    4.460741e-07    7.615119e+02    2.210430e-09    5.646000e-14    1.223101e-10   -5.817425e-01
    2.370856e+01    1.457914e+02    5.022160e-07    8.586820e+02    2.206905e-09    5.830885e-14    1.269206e-10   -5.767425e-01
    2.370731e+01    1.457838e+02    5.654210e-07    9.681449e+02    2.203606e-09    6.022330e-14    1.317316e-10   -5.717425e-01
    2.370600e+01    1.457758e+02    6.365760e-07    1.091438e+03    2.200541e-09    6.220590e-14    1.367516e-10   -5.667425e-01
    2.370461e+01    1.457672e+02    7.166805e-07    1.230289e+03    2.197715e-09    6.425920e-14    1.419894e-10   -5.617425e-01
    2.370314e+01    1.457581e+02    8.068595e-07    1.386638e+03    2.195133e-09    6.638600e-14    1.474540e-10   -5.567425e-01
    2.370156e+01    1.457486e+02    9.083790e-07    1.562661e+03    2.192802e-09    6.858910e-14    1.531549e-10   -5.517425e-01
    2.369990e+01    1.457384e+02    1.022663e-06    1.760802e+03    2.190728e-09    7.087150e-14    1.591017e-10   -5.467425e-01
    2.369814e+01    1.457276e+02    1.151315e-06    1.983804e+03    2.188920e-09    7.323625e-14    1.653044e-10   -5.417425e-01
    2.369628e+01    1.457161e+02    1.296141e-06    2.234743e+03    2.187383e-09    7.568650e-14    1.717733e-10   -5.367425e-01
    2.369430e+01    1.457040e+02    1.459170e-06    2.517067e+03    2.186125e-09    7.822560e-14    1.785191e-10   -5.317425e-01
    2.369219e+01    1.456912e+02    1.642688e-06    2.834645e+03    2.185153e-09    8.085695e-14    1.855527e-10   -5.267425e-01
    2.368996e+01    1.456775e+02    1.849267e-06    3.191810e+03    2.184475e-09    8.358420e-14    1.928851e-10   -5.217425e-01
    2.368760e+01    1.456631e+02    2.081801e-06    3.593420e+03    2.184099e-09    8.641105e-14    2.005281e-10   -5.167425e-01
    2.368509e+01    1.456477e+02    2.343546e-06    4.044911e+03    2.184036e-09    8.934130e-14    2.084934e-10   -5.117425e-01
    2.368244e+01    1.456315e+02    2.638166e-06    4.552377e+03    2.184291e-09    9.237895e-14    2.167930e-10   -5.067425e-01
    2.367962e+01    1.456143e+02    2.969784e-06    5.122634e+03    2.184874e-09    9.552825e-14    2.254395e-10   -5.017425e-01
    2.367664e+01    1.455960e+02    3.343038e-06    5.763310e+03    2.185796e-09    9.879345e-14    2.344454e-10   -4.967425e-01
    2.367348e+01    1.455767e+02    3.763146e-06    6.482938e+03    2.187063e-09    1.021791e-13    2.438237e-10   -4.917425e-01
    2.367013e+01    1.455563e+02    4.235979e-06    7.291059e+03    2.188688e-09    1.056897e-13    2.535877e-10   -4.867425e-01
    2.366657e+01    1.455346e+02    4.768139e-06    8.198334e+03    2.190679e-09    1.093302e-13    2.637507e-10   -4.817425e-01
    2.366280e+01    1.455115e+02    5.367055e-06    9.216679e+03    2.193047e-09    1.131055e-13    2.743263e-10   -4.767425e-01
    2.365880e+01    1.454872e+02    6.041085e-06    1.035941e+04    2.195800e-09    1.170210e-13    2.853283e-10   -4.717425e-01
    2.365455e+01    1.454613e+02    6.799625e-06    1.164137e+04    2.198950e-09    1.210818e-13    2.967710e-10   -4.667425e-01
    2.365006e+01    1.454340e+02    7.653240e-06    1.307917e+04    2.202509e-09    1.252937e-13    3.086686e-10   -4.617425e-01
    2.364531e+01    1.454050e+02    8.613815e-06    1.469127e+04    2.206486e-09    1.296625e-13    3.210357e-10   -4.567425e-01
    2.364027e+01    1.453744e+02    9.694720e-06    1.649834e+04    2.210892e-09    1.341940e-13    3.338867e-10   -4.517425e-01
    2.363492e+01    1.453419e+02    1.091098e-05    1.852335e+04    2.215739e-09    1.388945e-13    3.472363e-10   -4.467425e-01
    2.362927e+01    1.453075e+02    1.227949e-05    2.079193e+04    2.221037e-09    1.437705e-13    3.610993e-10   -4.417425e-01
    2.362327e+01    1.452712e+02    1.381924e-05    2.333263e+04    2.226797e-09    1.488286e-13    3.754904e-10   -4.367425e-01
    2.361693e+01    1.452327e+02    1.555158e-05    2.617720e+04    2.233032e-09    1.540756e-13    3.904245e-10   -4.317425e-01
    2.361020e+01    1.451919e+02    1.750052e-05    2.936101e+04    2.239751e-09    1.595189e-13    4.059163e-10   -4.267425e-01
    2.360309e+01    1.451489e+02    1.969301e-05    3.292338e+04    2.246967e-09    1.651657e-13    4.219805e-10   -4.217425e-01
    2.359555e+01    1.451033e+02    2.215937e-05    3.690803e+04    2.254690e-09    1.710237e-13    4.386318e-10   -4.167425e-01
    2.358758e+01    1.450551e+02    2.493366e-05    4.136359e+04    2.262931e-09    1.771008e-13    4.558846e-10   -4.117425e-01
    2.357914e+01    1.450042e+02    2.805412e-05    4.634399e+04    2.271701e-09    1.834052e-13    4.737532e-10   -4.067425e-01
    2.357019e+01    1.449502e+02    3.156374e-05    5.190916e+04    2.281013e-09    1.899454e-13    4.922518e-10   -4.017425e-01
    2.356075e+01    1.448934e+02    3.551079e-05    5.812571e+04    2.290875e-09    1.967300e-13    5.113940e-10   -3.967425e-01
    2.355076e+01    1.448334e+02    3.994948e-05    6.506736e+04    2.301299e-09    2.037681e-13    5.311935e-10   -3.917425e-01
    2.354018e+01    1.447699e+02    4.494067e-05    7.281593e+04    2.312294e-09    2.110691e-13    5.516635e-10   -3.867425e-01
    2.352899e+01    1.447028e+02    5.055270e-05    8.146213e+04    2.323871e-09    2.186425e-13    5.728160e-10   -3.817425e-01
    2.351718e+01    1.446321e+02    5.686225e-05    9.110651e+04    2.336039e-09    2.264984e-13    5.946640e-10   -3.767425e-01
    2.350468e+01    1.445573e+02    6.395545e-05    1.018602e+05    2.348807e-09    2.346470e-13    6.172185e-10   -3.717425e-01
    2.349147e+01    1.444786e+02    7.192885e-05    1.138465e+05    2.362184e-09    2.430990e-13    6.404910e-10   -3.667425e-01
    2.347752e+01    1.443955e+02    8.089080e-05    1.272015e+05    2.376179e-09    2.518651e-13    6.644920e-10   -3.617425e-01
    2.346278e+01    1.443080e+02    9.096285e-05    1.420760e+05    2.390798e-09    2.609569e-13    6.892305e-10   -3.567425e-01
    2.344721e+01    1.442158e+02    1.022813e-04    1.586364e+05    2.406051e-09    2.703857e-13    7.147165e-10   -3.517425e-01
    2.343078e+01    1.441186e+02    1.149989e-04    1.770666e+05    2.421942e-09    2.801637e-13    7.409575e-10   -3.467425e-01
    2.341344e+01    1.440163e+02    1.292868e-04    1.975699e+05    2.438477e-09    2.903034e-13    7.679605e-10   -3.417425e-01
    2.339516e+01    1.439088e+02    1.453370e-04    2.203704e+05    2.455663e-09    3.008172e-13    7.957325e-10   -3.367425e-01
    2.337586e+01    1.437957e+02    1.633644e-04    2.457155e+05    2.473504e-09    3.117185e-13    8.242790e-10   -3.317425e-01
    2.335553e+01    1.436768e+02    1.836096e-04    2.738778e+05    2.492002e-09    3.230206e-13    8.536035e-10   -3.267425e-01
    2.333410e+01    1.435519e+02    2.063423e-04    3.051580e+05    2.511162e-09    3.347375e-13    8.837100e-10   -3.217425e-01
    2.331153e+01    1.434209e+02    2.318640e-04    3.398870e+05    2.530986e-09    3.468837e-13    9.146005e-10   -3.167425e-01
    2.328778e+01    1.432835e+02    2.605122e-04    3.784297e+05    2.551474e-09    3.594738e-13    9.462755e-10   -3.117425e-01
    2.326275e+01    1.431393e+02    2.926644e-04    4.211866e+05    2.572626e-09    3.725228e-13    9.787355e-10   -3.067425e-01
    2.323646e+01    1.429885e+02    3.287427e-04    4.685997e+05    2.594443e-09    3.860467e-13    1.011978e-09   -3.017425e-01
    2.320880e+01    1.428306e+02    3.692186e-04    5.211534e+05    2.616922e-09    4.000613e-13    1.046002e-09   -2.967425e-01
    2.317976e+01    1.426656e+02    4.146194e-04    5.793816e+05    2.640061e-09    4.145832e-13    1.080802e-09   -2.917425e-01
    2.314924e+01    1.424932e+02    4.655335e-04    6.438685e+05    2.663855e-09    4.296292e-13    1.116372e-09   -2.867425e-01
    2.311723e+01    1.423135e+02    5.226180e-04    7.152576e+05    2.688301e-09    4.452171e-13    1.152706e-09   -2.817425e-01
    2.308365e+01    1.421260e+02    5.866060e-04    7.942530e+05    2.713391e-09    4.613646e-13    1.189797e-09   -2.767425e-01
    2.304847e+01    1.419309e+02    6.583155e-04    8.816281e+05    2.739119e-09    4.780902e-13    1.227634e-09   -2.717425e-01
    2.301161e+01    1.417281e+02    7.386585e-04    9.782296e+05    2.765478e-09    4.954128e-13    1.266205e-09   -2.667425e-01
    2.297307e+01    1.415176e+02    8.286500e-04    1.084986e+06    2.792456e-09    5.133520e-13    1.305500e-09   -2.617425e-01
    2.293276e+01    1.412995e+02    9.294225e-04    1.202911e+06    2.820045e-09    5.319275e-13    1.345504e-09   -2.567425e-01
    2.289067e+01    1.410737e+02    1.042235e-03    1.333118e+06    2.848233e-09    5.511605e-13    1.386201e-09   -2.517425e-01
    2.284674e+01    1.408404e+02    1.168489e-03    1.476822e+06    2.877007e-09    5.710715e-13    1.427576e-09   -2.467425e-01
    2.280093e+01    1.405999e+02    1.309744e-03    1.635350e+06    2.906354e-09    5.916820e-13    1.469609e-09   -2.417425e-01
    2.275324e+01    1.403523e+02    1.467731e-03    1.810154e+06    2.936259e-09    6.130150e-13    1.512283e-09   -2.367425e-01
    2.270362e+01    1.400981e+02    1.644376e-03    2.002819e+06    2.966706e-09    6.350930e-13    1.555576e-09   -2.317425e-01
    2.265206e+01    1.398378e+02    1.841814e-03    2.215076e+06    2.997677e-09    6.579390e-13    1.599466e-09   -2.267425e-01
    2.259855e+01    1.395717e+02    2.062416e-03    2.448810e+06    3.029158e-09    6.815780e-13    1.643932e-09   -2.217425e-01
    2.254309e+01    1.393006e+02    2.308812e-03    2.706082e+06    3.061126e-09    7.060340e-13    1.688947e-09   -2.167425e-01
    2.248569e+01    1.390253e+02    2.583915e-03    2.989134e+06    3.093564e-09    7.313325e-13    1.734488e-09   -2.117425e-01
    2.242635e+01    1.387466e+02    2.890954e-03    3.300413e+06    3.126451e-09    7.574995e-13    1.780526e-09   -2.067425e-01
    2.236511e+01    1.384654e+02    3.233503e-03    3.642584e+06    3.159766e-09    7.845620e-13    1.827035e-09   -2.017425e-01
    2.230200e+01    1.381831e+02    3.615516e-03    4.018550e+06    3.193485e-09    8.125475e-13    1.873988e-09   -1.967425e-01
    2.223709e+01    1.379009e+02    4.041368e-03    4.431475e+06    3.227588e-09    8.414840e-13    1.921354e-09   -1.917425e-01
    2.217041e+01    1.376203e+02    4.515891e-03    4.884799e+06    3.262050e-09    8.714005e-13    1.969104e-09   -1.867425e-01
    2.210204e+01    1.373428e+02    5.044430e-03    5.382275e+06    3.296847e-09    9.023265e-13    2.017207e-09   -1.817425e-01
    2.203209e+01    1.370702e+02    5.632875e-03    5.927982e+06    3.331955e-09    9.342930e-13    2.065631e-09   -1.767425e-01
    2.196062e+01    1.368044e+02    6.287745e-03    6.526371e+06    3.367347e-09    9.673305e-13    2.114346e-09   -1.717425e-01
    2.188776e+01    1.365477e+02    7.016215e-03    7.182279e+06    3.403001e-09    1.001472e-12    2.163317e-09   -1.667425e-01
    2.181361e+01    1.363022e+02    7.826210e-03    7.900981e+06    3.438889e-09    1.036750e-12    2.212515e-09   -1.617425e-01
    2.173832e+01    1.360704e+02    8.726450e-03    8.688218e+06    3.474986e-09    1.073199e-12    2.261904e-09   -1.567425e-01
    2.166201e+01    1.358548e+02    9.726555e-03    9.550243e+06    3.511265e-09    1.110853e-12    2.311453e-09   -1.517425e-01
    2.158482e+01    1.356581e+02    1.083712e-02    1.049387e+07    3.547698e-09    1.149748e-12    2.361128e-09   -1.467425e-01
    2.150691e+01    1.354832e+02    1.206980e-02    1.152653e+07    3.584263e-09    1.189921e-12    2.410896e-09   -1.417425e-01
    2.142838e+01    1.353329e+02    1.343744e-02    1.265628e+07    3.620930e-09    1.231410e-12    2.460724e-09   -1.367425e-01
    2.134940e+01    1.352102e+02    1.495417e-02    1.389194e+07    3.657674e-09    1.274252e-12    2.510579e-09   -1.317425e-01
    2.127008e+01    1.351179e+02    1.663550e-02    1.524309e+07    3.694467e-09    1.318489e-12    2.560428e-09   -1.267425e-01
    2.119053e+01    1.350590e+02    1.849851e-02    1.672015e+07    3.731286e-09    1.364161e-12    2.610240e-09   -1.217425e-01
    2.111085e+01    1.350364e+02    2.056198e-02    1.833445e+07    3.768104e-09    1.411310e-12    2.659982e-09   -1.167425e-01
    2.103110e+01    1.350528e+02    2.284652e-02    2.009830e+07    3.804896e-09    1.459979e-12    2.709623e-09   -1.117425e-01
    2.095132e+01    1.351106e+02    2.537475e-02    2.202506e+07    3.841636e-09    1.510212e-12    2.759133e-09   -1.067425e-01
    2.087150e+01    1.352122e+02    2.817153e-02    2.412918e+07    3.878301e-09    1.562057e-12    2.808480e-09   -1.017425e-01
    2.079158e+01    1.353593e+02    3.126407e-02    2.642630e+07    3.914866e-09    1.615558e-12    2.857636e-09   -9.674250e-02
    2.071149e+01    1.355535e+02    3.468223e-02    2.893327e+07    3.951308e-09    1.670766e-12    2.906571e-09   -9.174250e-02
    2.063108e+01    1.357961e+02    3.845866e-02    3.166826e+07    3.987604e-09    1.727728e-12    2.955259e-09   -8.674250e-02
    2.055012e+01    1.360871e+02    4.262910e-02    3.465067e+07    4.023731e-09    1.786497e-12    3.003671e-09   -8.174250e-02
    2.046837e+01    1.364266e+02    4.723257e-02    3.790131e+07    4.059669e-09    1.847125e-12    3.051782e-09   -7.674250e-02
    2.038548e+01    1.368136e+02    5.231165e-02    4.144227e+07    4.095397e-09    1.909666e-12    3.099568e-09   -7.174250e-02
    2.030110e+01    1.372466e+02    5.791265e-02    4.529696e+07    4.130894e-09    1.974175e-12    3.147002e-09   -6.674250e-02
    2.021475e+01    1.377230e+02    6.408605e-02    4.949006e+07    4.166142e-09    2.040712e-12    3.194063e-09   -6.174250e-02
    2.012596e+01    1.382396e+02    7.088645e-02    5.404740e+07    4.201121e-09    2.109333e-12    3.240727e-09   -5.674250e-02
    2.003416e+01    1.387922e+02    7.837315e-02    5.899588e+07    4.235815e-09    2.180099e-12    3.286975e-09   -5.174250e-02
    1.993881e+01    1.393756e+02    8.661000e-02    6.436331e+07    4.270207e-09    2.253074e-12    3.332786e-09   -4.674250e-02
    1.983925e+01    1.399839e+02    9.566595e-02    7.017820e+07    4.304280e-09    2.328321e-12    3.378142e-09   -4.174250e-02
    1.973489e+01    1.406102e+02    1.056149e-01    7.646953e+07    4.338021e-09    2.405909e-12    3.423023e-09   -3.674250e-02
    1.962507e+01    1.412468e+02    1.165362e-01    8.326650e+07    4.371414e-09    2.485903e-12    3.467417e-09   -3.174250e-02
    1.950919e+01    1.418854e+02    1.285143e-01    9.059819e+07    4.404445e-09    2.568376e-12    3.511303e-09   -2.674250e-02
    1.938663e+01    1.425169e+02    1.416392e-01    9.849318e+07    4.437105e-09    2.653399e-12    3.554672e-09   -2.174250e-02
    1.925686e+01    1.431317e+02    1.560060e-01    1.069793e+08    4.469380e-09    2.741047e-12    3.597507e-09   -1.674250e-02
    1.911936e+01    1.437198e+02    1.717154e-01    1.160830e+08    4.501260e-09    2.831398e-12    3.639797e-09   -1.174250e-02
    1.897369e+01    1.442709e+02    1.888730e-01    1.258292e+08    4.532734e-09    2.924532e-12    3.681531e-09   -6.742500e-03
    1.881948e+01    1.447748e+02    2.075892e-01    1.362406e+08    4.563795e-09    3.020529e-12    3.722700e-09   -1.742500e-03
    1.865647e+01    1.452210e+02    2.279793e-01    1.473374e+08    4.594435e-09    3.119476e-12    3.763294e-09    3.257500e-03
    1.848447e+01    1.455995e+02    2.501625e-01    1.591369e+08    4.624646e-09    3.221459e-12    3.803306e-09    8.257500e-03
    1.830337e+01    1.459006e+02    2.742621e-01    1.716529e+08    4.654421e-09    3.326568e-12    3.842729e-09    1.325750e-02
    1.811320e+01    1.461151e+02    3.004044e-01    1.848960e+08    4.683755e-09    3.434896e-12    3.881556e-09    1.825750e-02
    1.791406e+01    1.462345e+02    3.287183e-01    1.988719e+08    4.712644e-09    3.546540e-12    3.919785e-09    2.325750e-02
    1.770617e+01    1.462514e+02    3.593351e-01    2.135832e+08    4.741082e-09    3.661598e-12    3.957409e-09    2.825750e-02
    1.748981e+01    1.461588e+02    3.923871e-01    2.290269e+08    4.769067e-09    3.780172e-12    3.994427e-09    3.325750e-02
    1.726536e+01    1.459514e+02    4.280072e-01    2.451962e+08    4.796597e-09    3.902368e-12    4.030836e-09    3.825750e-02
    1.703329e+01    1.456244e+02    4.663282e-01    2.620795e+08    4.823668e-09    4.028295e-12    4.066635e-09    4.325750e-02
    1.679411e+01    1.451746e+02    5.074820e-01    2.796604e+08    4.850281e-09    4.158066e-12    4.101822e-09    4.825750e-02
    1.654841e+01    1.445998e+02    5.515985e-01    2.979184e+08    4.876432e-09    4.291796e-12    4.136400e-09    5.325750e-02
    1.629685e+01    1.438992e+02    5.988045e-01    3.168286e+08    4.902125e-09    4.429607e-12    4.170367e-09    5.825750e-02
    1.604004e+01    1.430728e+02    6.492250e-01    3.363619e+08    4.927357e-09    4.571621e-12    4.203727e-09    6.325750e-02
    1.577870e+01    1.421221e+02    7.029800e-01    3.564858e+08    4.952131e-09    4.717967e-12    4.236482e-09    6.825750e-02
    1.551354e+01    1.410495e+02    7.601840e-01    3.771641e+08    4.976448e-09    4.868778e-12    4.268634e-09    7.325750e-02
    1.524528e+01    1.398583e+02    8.209470e-01    3.983581e+08    5.000310e-09    5.024190e-12    4.300186e-09    7.825750e-02
    1.497462e+01    1.385530e+02    8.853730e-01    4.200265e+08    5.023720e-09    5.184345e-12    4.331144e-09    8.325750e-02
    1.470224e+01    1.371386e+02    9.535595e-01    4.421257e+08    5.046680e-09    5.349390e-12    4.361510e-09    8.825750e-02
    1.442886e+01    1.356208e+02    1.025597e+00    4.646116e+08    5.069190e-09    5.519480e-12    4.391292e-09    9.325750e-02
    1.415510e+01    1.340060e+02    1.101568e+00    4.874377e+08    5.091260e-09    5.694765e-12    4.420494e-09    9.825750e-02
    1.388161e+01    1.323012e+02    1.181549e+00    5.105576e+08    5.112895e-09    5.875405e-12    4.449121e-09    1.032575e-01
    1.360898e+01    1.305134e+02    1.265608e+00    5.339262e+08    5.134090e-09    6.061575e-12    4.477180e-09    1.082575e-01
    1.333777e+01    1.286502e+02    1.353804e+00    5.574970e+08    5.154855e-09    6.253445e-12    4.504678e-09    1.132575e-01
    1.306849e+01    1.267190e+02    1.446191e+00    5.812245e+08    5.175200e-09    6.451195e-12    4.531622e-09    1.182575e-01
    1.280162e+01    1.247276e+02    1.542813e+00    6.050653e+08    5.195125e-09    6.655010e-12    4.558019e-09    1.232575e-01
    1.253760e+01    1.226835e+02    1.643706e+00    6.289772e+08    5.214635e-09    6.865085e-12    4.583876e-09    1.282575e-01
    1.227683e+01    1.205943e+02    1.748903e+00    6.529203e+08    5.233735e-09    7.081610e-12    4.609201e-09    1.332575e-01
    1.201965e+01    1.184672e+02    1.858423e+00    6.768555e+08    5.252435e-09    7.304795e-12    4.634003e-09    1.382575e-01
    1.176640e+01    1.163094e+02    1.972283e+00    7.007477e+08    5.270735e-09    7.534860e-12    4.658288e-09    1.432575e-01
    1.151733e+01    1.141276e+02    2.090491e+00    7.245629e+08    5.288645e-09    7.772015e-12    4.682066e-09    1.482575e-01
    1.127270e+01    1.119284e+02    2.213052e+00    7.482695e+08    5.306175e-09    8.016495e-12    4.705346e-09    1.532575e-01
    1.103270e+01    1.097178e+02    2.339960e+00    7.718398e+08    5.323325e-09    8.268530e-12    4.728135e-09    1.582575e-01
    1.079749e+01    1.075016e+02    2.471209e+00    7.952481e+08    5.340105e-09    8.528370e-12    4.750441e-09    1.632575e-01
    1.056723e+01    1.052852e+02    2.606784e+00    8.184711e+08    5.356520e-09    8.796265e-12    4.772275e-09    1.682575e-01
    1.034201e+01    1.030735e+02    2.746666e+00    8.414880e+08    5.372580e-09    9.072485e-12    4.793644e-09    1.732575e-01
