# sky130 nfet_01v8 gm/ID Processed Lookup Table
# Corner: fs
# Temperature: 75C
# W = 2.0 um
# L = 3.78 um (3780 nm)
# Columns: gm/id [1/V]  gm/gds [V/V]  id/W [A/m]  ft [Hz]  Cgg/W [F/m]  Cgd/W [F/m]  Cgs/W [F/m]  Vov [V]
#         gm/id          gm/gds            id/W              ft           Cgg/W           Cgd/W           Cgs/W             Vov
    2.404996e+01    1.969307e+02    2.235272e-07    1.083853e+02    7.893955e-09    2.822814e-13    6.684490e-10   -5.242011e-01
    2.404836e+01    1.969176e+02    2.520881e-07    1.222512e+02    7.892320e-09    2.919511e-13    6.945340e-10   -5.192011e-01
    2.404664e+01    1.969035e+02    2.842960e-07    1.378714e+02    7.891710e-09    3.019751e-13    7.217015e-10   -5.142011e-01
    2.404482e+01    1.968887e+02    3.206163e-07    1.554646e+02    7.892155e-09    3.123672e-13    7.499930e-10   -5.092011e-01
    2.404290e+01    1.968731e+02    3.615731e-07    1.752763e+02    7.893685e-09    3.231416e-13    7.794500e-10   -5.042011e-01
    2.404085e+01    1.968564e+02    4.077579e-07    1.975818e+02    7.896330e-09    3.343128e-13    8.101145e-10   -4.992011e-01
    2.403867e+01    1.968388e+02    4.598372e-07    2.226900e+02    7.900125e-09    3.458962e-13    8.420310e-10   -4.942011e-01
    2.403636e+01    1.968200e+02    5.185625e-07    2.509475e+02    7.905095e-09    3.579078e-13    8.752435e-10   -4.892011e-01
    2.403392e+01    1.968001e+02    5.847800e-07    2.827419e+02    7.911285e-09    3.703637e-13    9.097970e-10   -4.842011e-01
    2.403131e+01    1.967790e+02    6.594455e-07    3.185091e+02    7.918715e-09    3.832812e-13    9.457390e-10   -4.792011e-01
    2.402855e+01    1.967566e+02    7.436340e-07    3.587357e+02    7.927430e-09    3.966779e-13    9.831170e-10   -4.742011e-01
    2.402563e+01    1.967328e+02    8.385585e-07    4.039678e+02    7.937460e-09    4.105721e-13    1.021979e-09   -4.692011e-01
    2.402252e+01    1.967077e+02    9.455860e-07    4.548163e+02    7.948840e-09    4.249827e-13    1.062374e-09   -4.642011e-01
    2.401923e+01    1.966809e+02    1.066257e-06    5.119646e+02    7.961610e-09    4.399297e-13    1.104350e-09   -4.592011e-01
    2.401573e+01    1.966526e+02    1.202306e-06    5.761774e+02    7.975810e-09    4.554334e-13    1.147960e-09   -4.542011e-01
    2.401202e+01    1.966226e+02    1.355691e-06    6.483100e+02    7.991470e-09    4.715150e-13    1.193252e-09   -4.492011e-01
    2.400809e+01    1.965908e+02    1.528614e-06    7.293181e+02    8.008635e-09    4.881963e-13    1.240280e-09   -4.442011e-01
    2.400392e+01    1.965571e+02    1.723559e-06    8.202699e+02    8.027340e-09    5.055000e-13    1.289092e-09   -4.392011e-01
    2.399949e+01    1.965214e+02    1.943325e-06    9.223585e+02    8.047625e-09    5.234500e-13    1.339741e-09   -4.342011e-01
    2.399481e+01    1.964837e+02    2.191061e-06    1.036917e+03    8.069525e-09    5.420705e-13    1.392279e-09   -4.292011e-01
    2.398983e+01    1.964436e+02    2.470320e-06    1.165430e+03    8.093085e-09    5.613865e-13    1.446757e-09   -4.242011e-01
    2.398456e+01    1.964012e+02    2.785100e-06    1.309560e+03    8.118340e-09    5.814240e-13    1.503228e-09   -4.192011e-01
    2.397897e+01    1.963562e+02    3.139906e-06    1.471155e+03    8.145330e-09    6.022105e-13    1.561742e-09   -4.142011e-01
    2.397304e+01    1.963086e+02    3.539809e-06    1.652279e+03    8.174095e-09    6.237740e-13    1.622351e-09   -4.092011e-01
    2.396676e+01    1.962582e+02    3.990524e-06    1.855232e+03    8.204670e-09    6.461425e-13    1.685105e-09   -4.042011e-01
    2.396010e+01    1.962048e+02    4.498481e-06    2.082575e+03    8.237095e-09    6.693470e-13    1.750053e-09   -3.992011e-01
    2.395304e+01    1.961485e+02    5.070925e-06    2.337161e+03    8.271405e-09    6.934180e-13    1.817245e-09   -3.942011e-01
    2.394558e+01    1.960888e+02    5.716000e-06    2.622165e+03    8.307640e-09    7.183875e-13    1.886727e-09   -3.892011e-01
    2.393766e+01    1.960257e+02    6.442895e-06    2.941122e+03    8.345835e-09    7.442880e-13    1.958547e-09   -3.842011e-01
    2.392927e+01    1.959589e+02    7.261930e-06    3.297960e+03    8.386025e-09    7.711540e-13    2.032748e-09   -3.792011e-01
    2.392039e+01    1.958884e+02    8.184725e-06    3.697051e+03    8.428245e-09    7.990210e-13    2.109376e-09   -3.742011e-01
    2.391100e+01    1.958139e+02    9.224365e-06    4.143253e+03    8.472525e-09    8.279250e-13    2.188472e-09   -3.692011e-01
    2.390104e+01    1.957351e+02    1.039556e-05    4.641962e+03    8.518895e-09    8.579035e-13    2.270074e-09   -3.642011e-01
    2.389051e+01    1.956519e+02    1.171486e-05    5.199172e+03    8.567385e-09    8.889950e-13    2.354221e-09   -3.592011e-01
    2.387936e+01    1.955642e+02    1.320087e-05    5.821537e+03    8.618025e-09    9.212400e-13    2.440947e-09   -3.542011e-01
    2.386757e+01    1.954715e+02    1.487453e-05    6.516443e+03    8.670835e-09    9.546795e-13    2.530285e-09   -3.492011e-01
    2.385510e+01    1.953738e+02    1.675937e-05    7.292080e+03    8.725845e-09    9.893560e-13    2.622264e-09   -3.442011e-01
    2.384191e+01    1.952708e+02    1.888183e-05    8.157529e+03    8.783075e-09    1.025314e-12    2.716910e-09   -3.392011e-01
    2.382796e+01    1.951621e+02    2.127165e-05    9.122857e+03    8.842545e-09    1.062597e-12    2.814248e-09   -3.342011e-01
    2.381324e+01    1.950478e+02    2.396222e-05    1.019923e+04    8.904265e-09    1.101253e-12    2.914296e-09   -3.292011e-01
    2.379767e+01    1.949274e+02    2.699107e-05    1.139900e+04    8.968255e-09    1.141329e-12    3.017070e-09   -3.242011e-01
    2.378122e+01    1.948006e+02    3.040034e-05    1.273583e+04    9.034525e-09    1.182874e-12    3.122584e-09   -3.192011e-01
    2.376385e+01    1.946674e+02    3.423734e-05    1.422489e+04    9.103075e-09    1.225941e-12    3.230845e-09   -3.142011e-01
    2.374554e+01    1.945274e+02    3.855518e-05    1.588290e+04    9.173920e-09    1.270580e-12    3.341857e-09   -3.092011e-01
    2.372620e+01    1.943804e+02    4.341350e-05    1.772840e+04    9.247060e-09    1.316846e-12    3.455622e-09   -3.042011e-01
    2.370582e+01    1.942262e+02    4.887915e-05    1.978186e+04    9.322485e-09    1.364795e-12    3.572133e-09   -2.992011e-01
    2.368434e+01    1.940643e+02    5.502715e-05    2.206588e+04    9.400200e-09    1.414483e-12    3.691382e-09   -2.942011e-01
    2.366170e+01    1.938949e+02    6.194160e-05    2.460546e+04    9.480190e-09    1.465968e-12    3.813354e-09   -2.892011e-01
    2.363784e+01    1.937176e+02    6.971685e-05    2.742818e+04    9.562440e-09    1.519312e-12    3.938032e-09   -2.842011e-01
    2.361276e+01    1.935322e+02    7.845840e-05    3.056447e+04    9.646935e-09    1.574576e-12    4.065390e-09   -2.792011e-01
    2.358635e+01    1.933385e+02    8.828470e-05    3.404791e+04    9.733655e-09    1.631824e-12    4.195401e-09   -2.742011e-01
    2.355858e+01    1.931365e+02    9.932825e-05    3.791548e+04    9.822580e-09    1.691122e-12    4.328031e-09   -2.692011e-01
    2.352942e+01    1.929260e+02    1.117373e-04    4.220800e+04    9.913675e-09    1.752536e-12    4.463241e-09   -2.642011e-01
    2.349879e+01    1.927071e+02    1.256779e-04    4.697041e+04    1.000691e-08    1.816136e-12    4.600986e-09   -2.592011e-01
    2.346665e+01    1.924795e+02    1.413354e-04    5.225216e+04    1.010225e-08    1.881994e-12    4.741219e-09   -2.542011e-01
    2.343296e+01    1.922435e+02    1.589176e-04    5.810770e+04    1.019966e-08    1.950181e-12    4.883884e-09   -2.492011e-01
    2.339766e+01    1.919991e+02    1.786562e-04    6.459695e+04    1.029908e-08    2.020774e-12    5.028925e-09   -2.442011e-01
    2.336070e+01    1.917465e+02    2.008101e-04    7.178576e+04    1.040047e-08    2.093849e-12    5.176275e-09   -2.392011e-01
    2.332206e+01    1.914861e+02    2.256685e-04    7.974657e+04    1.050379e-08    2.169485e-12    5.325865e-09   -2.342011e-01
    2.328166e+01    1.912178e+02    2.535541e-04    8.855879e+04    1.060897e-08    2.247764e-12    5.477620e-09   -2.292011e-01
    2.323952e+01    1.909427e+02    2.848267e-04    9.830990e+04    1.071595e-08    2.328768e-12    5.631470e-09   -2.242011e-01
    2.319556e+01    1.906608e+02    3.198874e-04    1.090956e+05    1.082468e-08    2.412584e-12    5.787320e-09   -2.192011e-01
    2.314977e+01    1.903731e+02    3.591835e-04    1.210211e+05    1.093508e-08    2.499299e-12    5.945095e-09   -2.142011e-01
    2.310214e+01    1.900804e+02    4.032126e-04    1.342019e+05    1.104709e-08    2.589004e-12    6.104700e-09   -2.092011e-01
    2.305266e+01    1.897837e+02    4.525290e-04    1.487643e+05    1.116064e-08    2.681791e-12    6.266035e-09   -2.042011e-01
    2.300131e+01    1.894842e+02    5.077490e-04    1.648469e+05    1.127564e-08    2.777756e-12    6.429010e-09   -1.992011e-01
    2.294810e+01    1.891834e+02    5.695585e-04    1.826015e+05    1.139202e-08    2.876995e-12    6.593520e-09   -1.942011e-01
    2.289304e+01    1.888827e+02    6.387195e-04    2.021946e+05    1.150971e-08    2.979609e-12    6.759460e-09   -1.892011e-01
    2.283616e+01    1.885838e+02    7.160780e-04    2.238081e+05    1.162861e-08    3.085700e-12    6.926720e-09   -1.842011e-01
    2.277749e+01    1.882890e+02    8.025740e-04    2.476416e+05    1.174864e-08    3.195376e-12    7.095195e-09   -1.792011e-01
    2.271710e+01    1.880007e+02    8.992500e-04    2.739133e+05    1.186972e-08    3.308743e-12    7.264770e-09   -1.742011e-01
    2.265503e+01    1.877213e+02    1.007263e-03    3.028621e+05    1.199176e-08    3.425913e-12    7.435335e-09   -1.692011e-01
    2.259135e+01    1.874538e+02    1.127896e-03    3.347495e+05    1.211466e-08    3.547001e-12    7.606770e-09   -1.642011e-01
    2.252616e+01    1.872013e+02    1.262568e-03    3.698619e+05    1.223834e-08    3.672122e-12    7.778960e-09   -1.592011e-01
    2.245955e+01    1.869675e+02    1.412856e-03    4.085126e+05    1.236270e-08    3.801398e-12    7.951785e-09   -1.542011e-01
    2.239165e+01    1.867563e+02    1.580500e-03    4.510447e+05    1.248766e-08    3.934953e-12    8.125130e-09   -1.492011e-01
    2.232257e+01    1.865717e+02    1.767431e-03    4.978338e+05    1.261312e-08    4.072913e-12    8.298875e-09   -1.442011e-01
    2.225244e+01    1.864184e+02    1.975783e-03    5.492913e+05    1.273897e-08    4.215408e-12    8.472900e-09   -1.392011e-01
    2.218143e+01    1.863013e+02    2.207918e-03    6.058677e+05    1.286515e-08    4.362573e-12    8.647090e-09   -1.342011e-01
    2.210969e+01    1.862258e+02    2.466446e-03    6.680573e+05    1.299154e-08    4.514545e-12    8.821330e-09   -1.292011e-01
    2.203736e+01    1.861971e+02    2.754252e-03    7.363998e+05    1.311807e-08    4.671466e-12    8.995495e-09   -1.242011e-01
    2.196461e+01    1.862213e+02    3.074527e-03    8.114885e+05    1.324463e-08    4.833479e-12    9.169480e-09   -1.192011e-01
    2.189161e+01    1.863045e+02    3.430794e-03    8.939729e+05    1.337113e-08    5.000735e-12    9.343165e-09   -1.142011e-01
    2.181851e+01    1.864531e+02    3.826946e-03    9.845645e+05    1.349750e-08    5.173390e-12    9.516440e-09   -1.092011e-01
    2.174544e+01    1.866737e+02    4.267281e-03    1.084043e+06    1.362364e-08    5.351595e-12    9.689200e-09   -1.042011e-01
    2.167252e+01    1.869730e+02    4.756545e-03    1.193262e+06    1.374946e-08    5.535515e-12    9.861330e-09   -9.920110e-02
    2.159987e+01    1.873577e+02    5.299975e-03    1.313154e+06    1.387488e-08    5.725320e-12    1.003274e-08   -9.420110e-02
    2.152750e+01    1.878348e+02    5.903355e-03    1.444740e+06    1.399983e-08    5.921175e-12    1.020331e-08   -8.920110e-02
    2.145550e+01    1.884106e+02    6.573050e-03    1.589136e+06    1.412423e-08    6.123260e-12    1.037295e-08   -8.420110e-02
    2.138381e+01    1.890918e+02    7.316090e-03    1.747555e+06    1.424798e-08    6.331755e-12    1.054157e-08   -7.920110e-02
    2.131234e+01    1.898844e+02    8.140215e-03    1.921319e+06    1.437103e-08    6.546850e-12    1.070907e-08   -7.420110e-02
    2.124100e+01    1.907942e+02    9.053940e-03    2.111862e+06    1.449329e-08    6.768730e-12    1.087536e-08   -6.920110e-02
    2.116955e+01    1.918262e+02    1.006663e-02    2.320737e+06    1.461470e-08    6.997600e-12    1.104037e-08   -6.420110e-02
    2.109774e+01    1.929850e+02    1.118860e-02    2.549620e+06    1.473521e-08    7.233655e-12    1.120400e-08   -5.920110e-02
    2.102521e+01    1.942741e+02    1.243111e-02    2.800309e+06    1.485472e-08    7.477110e-12    1.136619e-08   -5.420110e-02
    2.095155e+01    1.956960e+02    1.380657e-02    3.074733e+06    1.497321e-08    7.728180e-12    1.152687e-08   -4.920110e-02
    2.087626e+01    1.972522e+02    1.532852e-02    3.374946e+06    1.509059e-08    7.987080e-12    1.168595e-08   -4.420110e-02
    2.079877e+01    1.989430e+02    1.701174e-02    3.703122e+06    1.520683e-08    8.254045e-12    1.184338e-08   -3.920110e-02
    2.071846e+01    2.007672e+02    1.887236e-02    4.061553e+06    1.532187e-08    8.529310e-12    1.199909e-08   -3.420110e-02
    2.063464e+01    2.027221e+02    2.092789e-02    4.452638e+06    1.543566e-08    8.813115e-12    1.215304e-08   -2.920110e-02
    2.054656e+01    2.048035e+02    2.319734e-02    4.878865e+06    1.554815e-08    9.105710e-12    1.230515e-08   -2.420110e-02
    2.045347e+01    2.070055e+02    2.570126e-02    5.342799e+06    1.565931e-08    9.407350e-12    1.245541e-08   -1.920110e-02
    2.035460e+01    2.093207e+02    2.846180e-02    5.847066e+06    1.576911e-08    9.718300e-12    1.260374e-08   -1.420110e-02
    2.024913e+01    2.117395e+02    3.150276e-02    6.394306e+06    1.587748e-08    1.003884e-11    1.275012e-08   -9.201100e-03
    2.013631e+01    2.142510e+02    3.484961e-02    6.987161e+06    1.598443e-08    1.036925e-11    1.289450e-08   -4.201100e-03
    2.001543e+01    2.168428e+02    3.852952e-02    7.628253e+06    1.608991e-08    1.070981e-11    1.303686e-08    7.989000e-04
    1.988578e+01    2.195003e+02    4.257135e-02    8.320109e+06    1.619389e-08    1.106083e-11    1.317717e-08    5.798900e-03
    1.974677e+01    2.222081e+02    4.700561e-02    9.065156e+06    1.629636e-08    1.142261e-11    1.331540e-08    1.079890e-02
    1.959787e+01    2.249491e+02    5.186440e-02    9.865665e+06    1.639729e-08    1.179549e-11    1.345153e-08    1.579890e-02
    1.943866e+01    2.277052e+02    5.718140e-02    1.072371e+07    1.649667e-08    1.217978e-11    1.358553e-08    2.079890e-02
    1.926884e+01    2.304573e+02    6.299160e-02    1.164112e+07    1.659448e-08    1.257581e-11    1.371741e-08    2.579890e-02
    1.908819e+01    2.331858e+02    6.933145e-02    1.261946e+07    1.669070e-08    1.298396e-11    1.384714e-08    3.079890e-02
    1.889665e+01    2.358703e+02    7.623840e-02    1.365993e+07    1.678534e-08    1.340458e-11    1.397471e-08    3.579890e-02
    1.869426e+01    2.384907e+02    8.375090e-02    1.476343e+07    1.687838e-08    1.383803e-11    1.410014e-08    4.079890e-02
    1.848121e+01    2.410266e+02    9.190820e-02    1.593044e+07    1.696981e-08    1.428471e-11    1.422340e-08    4.579890e-02
    1.825778e+01    2.434581e+02    1.007500e-01    1.716101e+07    1.705965e-08    1.474500e-11    1.434450e-08    5.079890e-02
    1.802437e+01    2.457659e+02    1.103163e-01    1.845481e+07    1.714787e-08    1.521935e-11    1.446345e-08    5.579890e-02
    1.778148e+01    2.479317e+02    1.206471e-01    1.981100e+07    1.723450e-08    1.570814e-11    1.458025e-08    6.079890e-02
    1.752972e+01    2.499381e+02    1.317823e-01    2.122835e+07    1.731952e-08    1.621184e-11    1.469490e-08    6.579890e-02
    1.726974e+01    2.517694e+02    1.437612e-01    2.270516e+07    1.740295e-08    1.673089e-11    1.480742e-08    7.079890e-02
    1.700229e+01    2.534110e+02    1.566222e-01    2.423932e+07    1.748479e-08    1.726577e-11    1.491783e-08    7.579890e-02
    1.672815e+01    2.548502e+02    1.704028e-01    2.582827e+07    1.756505e-08    1.781695e-11    1.502613e-08    8.079890e-02
    1.644816e+01    2.560762e+02    1.851392e-01    2.746913e+07    1.764375e-08    1.838494e-11    1.513235e-08    8.579890e-02
    1.616315e+01    2.570799e+02    2.008660e-01    2.915863e+07    1.772089e-08    1.897025e-11    1.523649e-08    9.079890e-02
    1.587400e+01    2.578541e+02    2.176162e-01    3.089322e+07    1.779649e-08    1.957343e-11    1.533858e-08    9.579890e-02
    1.558157e+01    2.583938e+02    2.354204e-01    3.266910e+07    1.787056e-08    2.019502e-11    1.543864e-08    1.007989e-01
    1.528671e+01    2.586957e+02    2.543076e-01    3.448223e+07    1.794312e-08    2.083561e-11    1.553671e-08    1.057989e-01
    1.499025e+01    2.587584e+02    2.743041e-01    3.632844e+07    1.801418e-08    2.149578e-11    1.563278e-08    1.107989e-01
    1.469301e+01    2.585826e+02    2.954340e-01    3.820344e+07    1.808377e-08    2.217613e-11    1.572690e-08    1.157989e-01
    1.439575e+01    2.581704e+02    3.177190e-01    4.010290e+07    1.815188e-08    2.287732e-11    1.581909e-08    1.207989e-01
    1.409921e+01    2.575256e+02    3.411780e-01    4.202247e+07    1.821857e-08    2.360000e-11    1.590937e-08    1.257989e-01
    1.380408e+01    2.566535e+02    3.658274e-01    4.395785e+07    1.828384e-08    2.434483e-11    1.599778e-08    1.307989e-01
    1.351099e+01    2.555606e+02    3.916813e-01    4.590483e+07    1.834770e-08    2.511255e-11    1.608434e-08    1.357989e-01
    1.322053e+01    2.542546e+02    4.187508e-01    4.785930e+07    1.841019e-08    2.590385e-11    1.616908e-08    1.407989e-01
    1.293324e+01    2.527444e+02    4.470448e-01    4.981737e+07    1.847132e-08    2.671949e-11    1.625204e-08    1.457989e-01
    1.264962e+01    2.510395e+02    4.765699e-01    5.177531e+07    1.853112e-08    2.756027e-11    1.633323e-08    1.507989e-01
    1.237010e+01    2.491502e+02    5.073300e-01    5.372963e+07    1.858961e-08    2.842698e-11    1.641270e-08    1.557989e-01
    1.209506e+01    2.470872e+02    5.393275e-01    5.567706e+07    1.864681e-08    2.932045e-11    1.649047e-08    1.607989e-01
    1.182484e+01    2.448616e+02    5.725620e-01    5.761460e+07    1.870275e-08    3.024157e-11    1.656658e-08    1.657989e-01
    1.155974e+01    2.424849e+02    6.070310e-01    5.953951e+07    1.875745e-08    3.119122e-11    1.664105e-08    1.707989e-01
    1.129999e+01    2.399687e+02    6.427315e-01    6.144937e+07    1.881094e-08    3.217033e-11    1.671392e-08    1.757989e-01
    1.104580e+01    2.373242e+02    6.796575e-01    6.334193e+07    1.886323e-08    3.317987e-11    1.678521e-08    1.807989e-01
    1.079734e+01    2.345632e+02    7.178025e-01    6.521540e+07    1.891436e-08    3.422082e-11    1.685497e-08    1.857989e-01
    1.055472e+01    2.316964e+02    7.571580e-01    6.706804e+07    1.896434e-08    3.529423e-11    1.692322e-08    1.907989e-01
    1.031805e+01    2.287352e+02    7.977150e-01    6.889852e+07    1.901321e-08    3.640116e-11    1.699000e-08    1.957989e-01
    1.008738e+01    2.256900e+02    8.394630e-01    7.070579e+07    1.906098e-08    3.754274e-11    1.705533e-08    2.007989e-01
    9.862754e+00    2.225710e+02    8.823910e-01    7.248887e+07    1.910769e-08    3.872008e-11    1.711924e-08    2.057989e-01
    9.644167e+00    2.193878e+02    9.264870e-01    7.424713e+07    1.915334e-08    3.993441e-11    1.718178e-08    2.107989e-01
    9.431607e+00    2.161498e+02    9.717390e-01    7.598011e+07    1.919798e-08    4.118694e-11    1.724296e-08    2.157989e-01
    9.225043e+00    2.128658e+02    1.018134e+00    7.768760e+07    1.924162e-08    4.247897e-11    1.730282e-08    2.207989e-01
    9.024415e+00    2.095439e+02    1.065658e+00    7.936945e+07    1.928428e-08    4.381181e-11    1.736139e-08    2.257989e-01
    8.829649e+00    2.061920e+02    1.114299e+00    8.102579e+07    1.932600e-08    4.518684e-11    1.741870e-08    2.307989e-01
