# sky130 nfet_01v8 gm/ID Processed Lookup Table
# Corner: fs
# Temperature: 75C
# W = 2.0 um
# L = 2.34 um (2340 nm)
# Columns: gm/id [1/V]  gm/gds [V/V]  id/W [A/m]  ft [Hz]  Cgg/W [F/m]  Cgd/W [F/m]  Cgs/W [F/m]  Vov [V]
#         gm/id          gm/gds            id/W              ft           Cgg/W           Cgd/W           Cgs/W             Vov
    2.318324e+01    1.510936e+02    4.472887e-07    3.310442e+02    4.985356e-09    1.862597e-13    4.638853e-10   -5.275188e-01
    2.318163e+01    1.510831e+02    5.022590e-07    3.717065e+02    4.985304e-09    1.924554e-13    4.814201e-10   -5.225188e-01
    2.317989e+01    1.510720e+02    5.639810e-07    4.173038e+02    4.985900e-09    1.988708e-13    4.996453e-10   -5.175188e-01
    2.317807e+01    1.510602e+02    6.332815e-07    4.684259e+02    4.987161e-09    2.055141e-13    5.185850e-10   -5.125188e-01
    2.317615e+01    1.510477e+02    7.110910e-07    5.257316e+02    4.989105e-09    2.123936e-13    5.382640e-10   -5.075188e-01
    2.317411e+01    1.510345e+02    7.984530e-07    5.899562e+02    4.991749e-09    2.195181e-13    5.587065e-10   -5.025188e-01
    2.317193e+01    1.510204e+02    8.965385e-07    6.619211e+02    4.995111e-09    2.268966e-13    5.799390e-10   -4.975188e-01
    2.316963e+01    1.510056e+02    1.006662e-06    7.425429e+02    4.999212e-09    2.345384e-13    6.019870e-10   -4.925188e-01
    2.316721e+01    1.509899e+02    1.130299e-06    8.328442e+02    5.004070e-09    2.424534e-13    6.248775e-10   -4.875188e-01
    2.316463e+01    1.509732e+02    1.269105e-06    9.339656e+02    5.009705e-09    2.506515e-13    6.486380e-10   -4.825188e-01
    2.316191e+01    1.509557e+02    1.424938e-06    1.047180e+03    5.016135e-09    2.591431e-13    6.732955e-10   -4.775188e-01
    2.315902e+01    1.509370e+02    1.599884e-06    1.173904e+03    5.023380e-09    2.679390e-13    6.988770e-10   -4.725188e-01
    2.315597e+01    1.509173e+02    1.796281e-06    1.315718e+03    5.031465e-09    2.770503e-13    7.254120e-10   -4.675188e-01
    2.315273e+01    1.508965e+02    2.016755e-06    1.474381e+03    5.040410e-09    2.864886e-13    7.529275e-10   -4.625188e-01
    2.314930e+01    1.508744e+02    2.264254e-06    1.651854e+03    5.050235e-09    2.962657e-13    7.814530e-10   -4.575188e-01
    2.314569e+01    1.508512e+02    2.542081e-06    1.850319e+03    5.060960e-09    3.063941e-13    8.110170e-10   -4.525188e-01
    2.314185e+01    1.508265e+02    2.853944e-06    2.072205e+03    5.072605e-09    3.168864e-13    8.416485e-10   -4.475188e-01
    2.313780e+01    1.508005e+02    3.204004e-06    2.320212e+03    5.085195e-09    3.277561e-13    8.733765e-10   -4.425188e-01
    2.313351e+01    1.507730e+02    3.596925e-06    2.597341e+03    5.098755e-09    3.390165e-13    9.062295e-10   -4.375188e-01
    2.312897e+01    1.507438e+02    4.037944e-06    2.906936e+03    5.113300e-09    3.506819e-13    9.402370e-10   -4.325188e-01
    2.312417e+01    1.507131e+02    4.532931e-06    3.252710e+03    5.128850e-09    3.627668e-13    9.754275e-10   -4.275188e-01
    2.311908e+01    1.506805e+02    5.088470e-06    3.638777e+03    5.145440e-09    3.752863e-13    1.011830e-09   -4.225188e-01
    2.311372e+01    1.506463e+02    5.711940e-06    4.069727e+03    5.163075e-09    3.882560e-13    1.049473e-09   -4.175188e-01
    2.310803e+01    1.506100e+02    6.411630e-06    4.550632e+03    5.181790e-09    4.016919e-13    1.088383e-09   -4.125188e-01
    2.310202e+01    1.505716e+02    7.196815e-06    5.087143e+03    5.201595e-09    4.156108e-13    1.128591e-09   -4.075188e-01
    2.309566e+01    1.505311e+02    8.077910e-06    5.685515e+03    5.222515e-09    4.300296e-13    1.170121e-09   -4.025188e-01
    2.308894e+01    1.504884e+02    9.066575e-06    6.352683e+03    5.244575e-09    4.449661e-13    1.213000e-09   -3.975188e-01
    2.308184e+01    1.504433e+02    1.017589e-05    7.096344e+03    5.267790e-09    4.604385e-13    1.257255e-09   -3.925188e-01
    2.307432e+01    1.503957e+02    1.142053e-05    7.925026e+03    5.292180e-09    4.764657e-13    1.302910e-09   -3.875188e-01
    2.306638e+01    1.503455e+02    1.281690e-05    8.848170e+03    5.317765e-09    4.930671e-13    1.349990e-09   -3.825188e-01
    2.305801e+01    1.502925e+02    1.438341e-05    9.876243e+03    5.344560e-09    5.102625e-13    1.398516e-09   -3.775188e-01
    2.304914e+01    1.502367e+02    1.614069e-05    1.102082e+04    5.372585e-09    5.280730e-13    1.448513e-09   -3.725188e-01
    2.303978e+01    1.501778e+02    1.811185e-05    1.229471e+04    5.401855e-09    5.465200e-13    1.500000e-09   -3.675188e-01
    2.302990e+01    1.501158e+02    2.032275e-05    1.371210e+04    5.432385e-09    5.656245e-13    1.552996e-09   -3.625188e-01
    2.301948e+01    1.500505e+02    2.280237e-05    1.528867e+04    5.464190e-09    5.854100e-13    1.607520e-09   -3.575188e-01
    2.300846e+01    1.499817e+02    2.558316e-05    1.704172e+04    5.497285e-09    6.058990e-13    1.663588e-09   -3.525188e-01
    2.299683e+01    1.499093e+02    2.870146e-05    1.899044e+04    5.531680e-09    6.271165e-13    1.721215e-09   -3.475188e-01
    2.298457e+01    1.498331e+02    3.219791e-05    2.115597e+04    5.567385e-09    6.490860e-13    1.780415e-09   -3.425188e-01
    2.297163e+01    1.497530e+02    3.611803e-05    2.356167e+04    5.604410e-09    6.718340e-13    1.841196e-09   -3.375188e-01
    2.295799e+01    1.496688e+02    4.051275e-05    2.623336e+04    5.642765e-09    6.953855e-13    1.903571e-09   -3.325188e-01
    2.294361e+01    1.495804e+02    4.543901e-05    2.919946e+04    5.682455e-09    7.197685e-13    1.967547e-09   -3.275188e-01
    2.292844e+01    1.494875e+02    5.096055e-05    3.249141e+04    5.723480e-09    7.450100e-13    2.033126e-09   -3.225188e-01
    2.291249e+01    1.493901e+02    5.714855e-05    3.614384e+04    5.765850e-09    7.711380e-13    2.100314e-09   -3.175188e-01
    2.289565e+01    1.492879e+02    6.408275e-05    4.019488e+04    5.809565e-09    7.981825e-13    2.169110e-09   -3.125188e-01
    2.287796e+01    1.491808e+02    7.185205e-05    4.468662e+04    5.854625e-09    8.261735e-13    2.239512e-09   -3.075188e-01
    2.285932e+01    1.490687e+02    8.055605e-05    4.966542e+04    5.901025e-09    8.551415e-13    2.311517e-09   -3.025188e-01
    2.283973e+01    1.489513e+02    9.030575e-05    5.518232e+04    5.948760e-09    8.851180e-13    2.385117e-09   -2.975188e-01
    2.281911e+01    1.488286e+02    1.012253e-04    6.129341e+04    5.997830e-09    9.161365e-13    2.460303e-09   -2.925188e-01
    2.279746e+01    1.487004e+02    1.134532e-04    6.806059e+04    6.048220e-09    9.482295e-13    2.537063e-09   -2.875188e-01
    2.277471e+01    1.485667e+02    1.271441e-04    7.555183e+04    6.099920e-09    9.814320e-13    2.615381e-09   -2.825188e-01
    2.275081e+01    1.484272e+02    1.424706e-04    8.384189e+04    6.152920e-09    1.015779e-12    2.695242e-09   -2.775188e-01
    2.272575e+01    1.482819e+02    1.596250e-04    9.301283e+04    6.207210e-09    1.051307e-12    2.776623e-09   -2.725188e-01
    2.269946e+01    1.481308e+02    1.788220e-04    1.031551e+05    6.262765e-09    1.088053e-12    2.859503e-09   -2.675188e-01
    2.267191e+01    1.479739e+02    2.003008e-04    1.143677e+05    6.319570e-09    1.126055e-12    2.943856e-09   -2.625188e-01
    2.264306e+01    1.478111e+02    2.243277e-04    1.267596e+05    6.377600e-09    1.165353e-12    3.029652e-09   -2.575188e-01
    2.261287e+01    1.476424e+02    2.511997e-04    1.404501e+05    6.436840e-09    1.205985e-12    3.116861e-09   -2.525188e-01
    2.258127e+01    1.474679e+02    2.812473e-04    1.555702e+05    6.497260e-09    1.247995e-12    3.205450e-09   -2.475188e-01
    2.254827e+01    1.472878e+02    3.148382e-04    1.722639e+05    6.558830e-09    1.291423e-12    3.295380e-09   -2.425188e-01
    2.251381e+01    1.471022e+02    3.523815e-04    1.906884e+05    6.621525e-09    1.336315e-12    3.386613e-09   -2.375188e-01
    2.247786e+01    1.469115e+02    3.943324e-04    2.110162e+05    6.685315e-09    1.382713e-12    3.479108e-09   -2.325188e-01
    2.244039e+01    1.467157e+02    4.411966e-04    2.334365e+05    6.750160e-09    1.430663e-12    3.572819e-09   -2.275188e-01
    2.240138e+01    1.465152e+02    4.935359e-04    2.581560e+05    6.816030e-09    1.480213e-12    3.667701e-09   -2.225188e-01
    2.236081e+01    1.463108e+02    5.519745e-04    2.854014e+05    6.882885e-09    1.531411e-12    3.763705e-09   -2.175188e-01
    2.231865e+01    1.461027e+02    6.172050e-04    3.154202e+05    6.950690e-09    1.584304e-12    3.860779e-09   -2.125188e-01
    2.227490e+01    1.458918e+02    6.899960e-04    3.484838e+05    7.019400e-09    1.638945e-12    3.958869e-09   -2.075188e-01
    2.222956e+01    1.456786e+02    7.712000e-04    3.848883e+05    7.088975e-09    1.695384e-12    4.057922e-09   -2.025188e-01
    2.218265e+01    1.454642e+02    8.617615e-04    4.249577e+05    7.159370e-09    1.753676e-12    4.157880e-09   -1.975188e-01
    2.213413e+01    1.452495e+02    9.627285e-04    4.690460e+05    7.230545e-09    1.813873e-12    4.258684e-09   -1.925188e-01
    2.208407e+01    1.450357e+02    1.075260e-03    5.175404e+05    7.302445e-09    1.876032e-12    4.360273e-09   -1.875188e-01
    2.203248e+01    1.448241e+02    1.200639e-03    5.708633e+05    7.375030e-09    1.940210e-12    4.462587e-09   -1.825188e-01
    2.197938e+01    1.446163e+02    1.340288e-03    6.294769e+05    7.448245e-09    2.006466e-12    4.565562e-09   -1.775188e-01
    2.192487e+01    1.444138e+02    1.495777e-03    6.938856e+05    7.522045e-09    2.074860e-12    4.669135e-09   -1.725188e-01
    2.186896e+01    1.442186e+02    1.668843e-03    7.646401e+05    7.596380e-09    2.145453e-12    4.773240e-09   -1.675188e-01
    2.181175e+01    1.440327e+02    1.861407e-03    8.423431e+05    7.671195e-09    2.218308e-12    4.877812e-09   -1.625188e-01
    2.175331e+01    1.438583e+02    2.075592e-03    9.276515e+05    7.746445e-09    2.293491e-12    4.982785e-09   -1.575188e-01
    2.169375e+01    1.436981e+02    2.313737e-03    1.021286e+06    7.822070e-09    2.371068e-12    5.088090e-09   -1.525188e-01
    2.163316e+01    1.435546e+02    2.578433e-03    1.124029e+06    7.898020e-09    2.451107e-12    5.193665e-09   -1.475188e-01
    2.157168e+01    1.434309e+02    2.872533e-03    1.236742e+06    7.974250e-09    2.533678e-12    5.299440e-09   -1.425188e-01
    2.150941e+01    1.433300e+02    3.199189e-03    1.360364e+06    8.050695e-09    2.618852e-12    5.405350e-09   -1.375188e-01
    2.144648e+01    1.432554e+02    3.561876e-03    1.495919e+06    8.127310e-09    2.706703e-12    5.511325e-09   -1.325188e-01
    2.138308e+01    1.432108e+02    3.964427e-03    1.644534e+06    8.204045e-09    2.797308e-12    5.617300e-09   -1.275188e-01
    2.131933e+01    1.432002e+02    4.411071e-03    1.807436e+06    8.280845e-09    2.890743e-12    5.723215e-09   -1.225188e-01
    2.125536e+01    1.432274e+02    4.906468e-03    1.985972e+06    8.357655e-09    2.987087e-12    5.829000e-09   -1.175188e-01
    2.119135e+01    1.432967e+02    5.455755e-03    2.181614e+06    8.434430e-09    3.086422e-12    5.934590e-09   -1.125188e-01
    2.112743e+01    1.434127e+02    6.064595e-03    2.395973e+06    8.511120e-09    3.188832e-12    6.039925e-09   -1.075188e-01
    2.106373e+01    1.435799e+02    6.739230e-03    2.630815e+06    8.587670e-09    3.294404e-12    6.144945e-09   -1.025188e-01
    2.100038e+01    1.438030e+02    7.486530e-03    2.888068e+06    8.664040e-09    3.403224e-12    6.249585e-09   -9.751880e-02
    2.093747e+01    1.440868e+02    8.314080e-03    3.169848e+06    8.740175e-09    3.515384e-12    6.353790e-09   -9.251880e-02
    2.087509e+01    1.444359e+02    9.230205e-03    3.478458e+06    8.816030e-09    3.630977e-12    6.457505e-09   -8.751880e-02
    2.081327e+01    1.448553e+02    1.024410e-02    3.816417e+06    8.891570e-09    3.750099e-12    6.560665e-09   -8.251880e-02
    2.075202e+01    1.453493e+02    1.136587e-02    4.186477e+06    8.966740e-09    3.872847e-12    6.663230e-09   -7.751880e-02
    2.069131e+01    1.459225e+02    1.260663e-02    4.591630e+06    9.041500e-09    3.999323e-12    6.765135e-09   -7.251880e-02
    2.063105e+01    1.465792e+02    1.397862e-02    5.035129e+06    9.115810e-09    4.129630e-12    6.866340e-09   -6.751880e-02
    2.057110e+01    1.473230e+02    1.549526e-02    5.520498e+06    9.189635e-09    4.263875e-12    6.966790e-09   -6.251880e-02
    2.051125e+01    1.481575e+02    1.717131e-02    6.051557e+06    9.262935e-09    4.402166e-12    7.066440e-09   -5.751880e-02
    2.045124e+01    1.490855e+02    1.902296e-02    6.632424e+06    9.335670e-09    4.544618e-12    7.165250e-09   -5.251880e-02
    2.039074e+01    1.501093e+02    2.106793e-02    7.267521e+06    9.407810e-09    4.691345e-12    7.263175e-09   -4.751880e-02
    2.032935e+01    1.512304e+02    2.332562e-02    7.961586e+06    9.479320e-09    4.842467e-12    7.360180e-09   -4.251880e-02
    2.026660e+01    1.524498e+02    2.581725e-02    8.719669e+06    9.550170e-09    4.998105e-12    7.456220e-09   -3.751880e-02
    2.020197e+01    1.537671e+02    2.856595e-02    9.547129e+06    9.620325e-09    5.158385e-12    7.551265e-09   -3.251880e-02
    2.013486e+01    1.551811e+02    3.159689e-02    1.044960e+07    9.689765e-09    5.323440e-12    7.645280e-09   -2.751880e-02
    2.006464e+01    1.566899e+02    3.493743e-02    1.143303e+07    9.758460e-09    5.493400e-12    7.738240e-09   -2.251880e-02
    1.999063e+01    1.582900e+02    3.861723e-02    1.250357e+07    9.826390e-09    5.668400e-12    7.830110e-09   -1.751880e-02
    1.991213e+01    1.599770e+02    4.266835e-02    1.366762e+07    9.893525e-09    5.848585e-12    7.920865e-09   -1.251880e-02
    1.982838e+01    1.617450e+02    4.712536e-02    1.493170e+07    9.959850e-09    6.034100e-12    8.010480e-09   -7.518800e-03
    1.973868e+01    1.635875e+02    5.202535e-02    1.630249e+07    1.002534e-08    6.225095e-12    8.098940e-09   -2.518800e-03
    1.964225e+01    1.654959e+02    5.740820e-02    1.778667e+07    1.008999e-08    6.421720e-12    8.186215e-09    2.481200e-03
    1.953845e+01    1.674610e+02    6.331625e-02    1.939091e+07    1.015377e-08    6.624135e-12    8.272300e-09    7.481200e-03
    1.942660e+01    1.694725e+02    6.979470e-02    2.112176e+07    1.021667e-08    6.832505e-12    8.357165e-09    1.248120e-02
    1.930611e+01    1.715186e+02    7.689135e-02    2.298556e+07    1.027868e-08    7.047000e-12    8.440810e-09    1.748120e-02
    1.917642e+01    1.735869e+02    8.465665e-02    2.498833e+07    1.033978e-08    7.267790e-12    8.523215e-09    2.248120e-02
    1.903711e+01    1.756639e+02    9.314350e-02    2.713573e+07    1.039998e-08    7.495055e-12    8.604370e-09    2.748120e-02
    1.888783e+01    1.777358e+02    1.024073e-01    2.943286e+07    1.045925e-08    7.728975e-12    8.684270e-09    3.248120e-02
    1.872830e+01    1.797876e+02    1.125055e-01    3.188424e+07    1.051760e-08    7.969750e-12    8.762910e-09    3.748120e-02
    1.855840e+01    1.818046e+02    1.234979e-01    3.449368e+07    1.057501e-08    8.217565e-12    8.840285e-09    4.248120e-02
    1.837807e+01    1.837714e+02    1.354455e-01    3.726413e+07    1.063148e-08    8.472625e-12    8.916390e-09    4.748120e-02
    1.818741e+01    1.856729e+02    1.484113e-01    4.019772e+07    1.068702e-08    8.735140e-12    8.991230e-09    5.248120e-02
    1.798657e+01    1.874939e+02    1.624591e-01    4.329555e+07    1.074161e-08    9.005325e-12    9.064795e-09    5.748120e-02
    1.777585e+01    1.892199e+02    1.776538e-01    4.655772e+07    1.079527e-08    9.283400e-12    9.137095e-09    6.248120e-02
    1.755563e+01    1.908370e+02    1.940604e-01    4.998328e+07    1.084797e-08    9.569585e-12    9.208135e-09    6.748120e-02
    1.732637e+01    1.923317e+02    2.117440e-01    5.357007e+07    1.089975e-08    9.864130e-12    9.277910e-09    7.248120e-02
    1.708862e+01    1.936917e+02    2.307694e-01    5.731495e+07    1.095059e-08    1.016727e-11    9.346435e-09    7.748120e-02
    1.684299e+01    1.949057e+02    2.512004e-01    6.121356e+07    1.100049e-08    1.047925e-11    9.413710e-09    8.248120e-02
    1.659016e+01    1.959638e+02    2.730996e-01    6.526052e+07    1.104946e-08    1.080034e-11    9.479750e-09    8.748120e-02
    1.633084e+01    1.968570e+02    2.965280e-01    6.944943e+07    1.109752e-08    1.113080e-11    9.544560e-09    9.248120e-02
    1.606579e+01    1.975782e+02    3.215444e-01    7.377285e+07    1.114466e-08    1.147091e-11    9.608150e-09    9.748120e-02
    1.579577e+01    1.981212e+02    3.482050e-01    7.822245e+07    1.119089e-08    1.182094e-11    9.670530e-09    1.024812e-01
    1.552158e+01    1.984819e+02    3.765634e-01    8.278934e+07    1.123621e-08    1.218121e-11    9.731715e-09    1.074812e-01
    1.524400e+01    1.986570e+02    4.066698e-01    8.746355e+07    1.128064e-08    1.255200e-11    9.791715e-09    1.124812e-01
    1.496382e+01    1.986452e+02    4.385711e-01    9.223487e+07    1.132420e-08    1.293363e-11    9.850550e-09    1.174812e-01
    1.468180e+01    1.984465e+02    4.723105e-01    9.709254e+07    1.136688e-08    1.332642e-11    9.908220e-09    1.224812e-01
    1.439869e+01    1.980621e+02    5.079270e-01    1.020255e+08    1.140870e-08    1.373071e-11    9.964755e-09    1.274812e-01
    1.411520e+01    1.974946e+02    5.454565e-01    1.070224e+08    1.144966e-08    1.414685e-11    1.002016e-08    1.324812e-01
    1.383202e+01    1.967479e+02    5.849290e-01    1.120720e+08    1.148978e-08    1.457520e-11    1.007445e-08    1.374812e-01
    1.354978e+01    1.958268e+02    6.263720e-01    1.171630e+08    1.152907e-08    1.501610e-11    1.012765e-08    1.424812e-01
    1.326911e+01    1.947372e+02    6.698080e-01    1.222844e+08    1.156755e-08    1.546996e-11    1.017977e-08    1.474812e-01
    1.299056e+01    1.934857e+02    7.152550e-01    1.274253e+08    1.160521e-08    1.593716e-11    1.023082e-08    1.524812e-01
    1.271464e+01    1.920801e+02    7.627275e-01    1.325754e+08    1.164208e-08    1.641811e-11    1.028083e-08    1.574812e-01
    1.244182e+01    1.905279e+02    8.122360e-01    1.377245e+08    1.167818e-08    1.691323e-11    1.032981e-08    1.624812e-01
    1.217255e+01    1.888379e+02    8.637860e-01    1.428634e+08    1.171351e-08    1.742296e-11    1.037779e-08    1.674812e-01
    1.190718e+01    1.870192e+02    9.173810e-01    1.479831e+08    1.174808e-08    1.794774e-11    1.042476e-08    1.724812e-01
    1.164609e+01    1.850807e+02    9.730195e-01    1.530757e+08    1.178191e-08    1.848804e-11    1.047076e-08    1.774812e-01
    1.138953e+01    1.830318e+02    1.030698e+00    1.581333e+08    1.181501e-08    1.904435e-11    1.051581e-08    1.824812e-01
    1.113779e+01    1.808818e+02    1.090409e+00    1.631494e+08    1.184740e-08    1.961714e-11    1.055992e-08    1.874812e-01
    1.089107e+01    1.786402e+02    1.152141e+00    1.681177e+08    1.187909e-08    2.020695e-11    1.060310e-08    1.924812e-01
    1.064956e+01    1.763160e+02    1.215885e+00    1.730331e+08    1.191009e-08    2.081430e-11    1.064538e-08    1.974812e-01
    1.041339e+01    1.739184e+02    1.281623e+00    1.778906e+08    1.194042e-08    2.143975e-11    1.068678e-08    2.024812e-01
    1.018269e+01    1.714559e+02    1.349339e+00    1.826864e+08    1.197009e-08    2.208385e-11    1.072731e-08    2.074812e-01
    9.957527e+00    1.689373e+02    1.419015e+00    1.874173e+08    1.199911e-08    2.274721e-11    1.076698e-08    2.124812e-01
    9.737970e+00    1.663705e+02    1.490631e+00    1.920805e+08    1.202750e-08    2.343043e-11    1.080582e-08    2.174812e-01
    9.524046e+00    1.637633e+02    1.564164e+00    1.966741e+08    1.205527e-08    2.413414e-11    1.084385e-08    2.224812e-01
    9.315758e+00    1.611232e+02    1.639595e+00    2.011964e+08    1.208244e-08    2.485899e-11    1.088109e-08    2.274812e-01
