# sky130 nfet_01v8 gm/ID Processed Lookup Table
# Corner: sf
# Temperature: 25C
# W = 2.0 um
# L = 0.18 um (180 nm)
# Columns: gm/id [1/V]  gm/gds [V/V]  id/W [A/m]  ft [Hz]  Cgg/W [F/m]  Cgd/W [F/m]  Cgs/W [F/m]  Cdb/W [F/m]  vgs [V]  vth [V]  vdsat [V]
# vdsat = BSIM4 saturation voltage (|VDS|_sat, positive); use for headroom / saturation / cascode-bias calculations
#           gm/id          gm/gds            id/W              ft           Cgg/W           Cgd/W           Cgs/W           Cdb/W             vgs             vth           vdsat
    2.617965e+01    2.134922e+01    1.481222e-04    1.568723e+06    3.934212e-10    2.800370e-13    4.494017e-11    6.447795e-12    1.600000e-01    6.267156e-01    4.153609e-02
    2.617558e+01    2.142709e+01    1.924466e-04    2.030271e+06    3.948868e-10    2.960557e-13    4.849531e-11    6.894865e-12    1.700000e-01    6.267156e-01    4.153637e-02
    2.616637e+01    2.150375e+01    2.500179e-04    2.625373e+06    3.965917e-10    3.127889e-13    5.232510e-11    7.370625e-12    1.800000e-01    6.267156e-01    4.153674e-02
    2.615237e+01    2.157891e+01    3.247742e-04    3.391796e+06    3.985502e-10    3.302327e-13    5.644705e-11    7.876425e-12    1.900000e-01    6.267156e-01    4.153722e-02
    2.613374e+01    2.165226e+01    4.218139e-04    4.377639e+06    4.007769e-10    3.483767e-13    6.087895e-11    8.413625e-12    2.000000e-01    6.267156e-01    4.153784e-02
    2.611048e+01    2.172342e+01    5.477340e-04    5.644050e+06    4.032866e-10    3.672038e-13    6.563900e-11    8.983545e-12    2.100000e-01    6.267156e-01    4.153865e-02
    2.608248e+01    2.179203e+01    7.110610e-04    7.268566e+06    4.060945e-10    3.866889e-13    7.074545e-11    9.587455e-12    2.200000e-01    6.267156e-01    4.153970e-02
    2.604947e+01    2.185758e+01    9.228090e-04    9.349286e+06    4.092158e-10    4.067985e-13    7.621655e-11    1.022657e-11    2.300000e-01    6.267156e-01    4.154106e-02
    2.601109e+01    2.191958e+01    1.197187e-03    1.200999e+07    4.126654e-10    4.274895e-13    8.207025e-11    1.090203e-11    2.400000e-01    6.267156e-01    4.154282e-02
    2.596688e+01    2.197744e+01    1.552505e-03    1.540641e+07    4.164579e-10    4.487085e-13    8.832400e-11    1.161485e-11    2.500000e-01    6.267156e-01    4.154510e-02
    2.591627e+01    2.203050e+01    2.012325e-03    1.973392e+07    4.206077e-10    4.703911e-13    9.499460e-11    1.236592e-11    2.600000e-01    6.267156e-01    4.154805e-02
    2.585861e+01    2.207806e+01    2.606925e-03    2.523679e+07    4.251280e-10    4.924615e-13    1.020976e-10    1.315598e-11    2.700000e-01    6.267156e-01    4.155186e-02
    2.579316e+01    2.211933e+01    3.375141e-03    3.221934e+07    4.300312e-10    5.148320e-13    1.096473e-10    1.398560e-11    2.800000e-01    6.267156e-01    4.155679e-02
    2.571907e+01    2.215341e+01    4.366692e-03    4.105923e+07    4.353285e-10    5.374015e-13    1.176564e-10    1.485511e-11    2.900000e-01    6.267156e-01    4.156315e-02
    2.563543e+01    2.217937e+01    5.645090e-03    5.222328e+07    4.410292e-10    5.600580e-13    1.261352e-10    1.576464e-11    3.000000e-01    6.267156e-01    4.157135e-02
    2.554119e+01    2.219617e+01    7.291280e-03    6.628581e+07    4.471411e-10    5.826755e-13    1.350919e-10    1.671404e-11    3.100000e-01    6.267156e-01    4.158190e-02
    2.543535e+01    2.220274e+01    9.408105e-03    8.394997e+07    4.536693e-10    6.051180e-13    1.445316e-10    1.770289e-11    3.200000e-01    6.267156e-01    4.159547e-02
    2.531669e+01    2.219795e+01    1.212590e-02    1.060720e+08    4.606170e-10    6.272370e-13    1.544568e-10    1.873045e-11    3.300000e-01    6.267156e-01    4.161289e-02
    2.518406e+01    2.218060e+01    1.560918e-02    1.336887e+08    4.679843e-10    6.488745e-13    1.648659e-10    1.979567e-11    3.400000e-01    6.267156e-01    4.163520e-02
    2.503619e+01    2.214950e+01    2.006493e-02    1.680469e+08    4.757685e-10    6.698635e-13    1.757541e-10    2.089718e-11    3.500000e-01    6.267156e-01    4.166372e-02
    2.487189e+01    2.210351e+01    2.575241e-02    2.106367e+08    4.839635e-10    6.900305e-13    1.871126e-10    2.203324e-11    3.600000e-01    6.267156e-01    4.170010e-02
    2.468988e+01    2.204150e+01    3.299487e-02    2.632245e+08    4.925602e-10    7.091970e-13    1.989281e-10    2.320179e-11    3.700000e-01    6.267156e-01    4.174639e-02
    2.448905e+01    2.196250e+01    4.219337e-02    3.278883e+08    5.015455e-10    7.271820e-13    2.111834e-10    2.440042e-11    3.800000e-01    6.267156e-01    4.180511e-02
    2.426830e+01    2.186568e+01    5.384270e-02    4.070494e+08    5.109040e-10    7.438045e-13    2.238572e-10    2.562639e-11    3.900000e-01    6.267156e-01    4.187937e-02
    2.402676e+01    2.175049e+01    6.854975e-02    5.035059e+08    5.206150e-10    7.588865e-13    2.369236e-10    2.687668e-11    4.000000e-01    6.267156e-01    4.197295e-02
    2.376371e+01    2.161665e+01    8.705415e-02    6.204563e+08    5.306555e-10    7.722545e-13    2.503529e-10    2.814796e-11    4.100000e-01    6.267156e-01    4.209042e-02
    2.347872e+01    2.146431e+01    1.102512e-01    7.615185e+08    5.410000e-10    7.837435e-13    2.641118e-10    2.943667e-11    4.200000e-01    6.267156e-01    4.223726e-02
    2.317168e+01    2.129407e+01    1.392166e-01    9.307425e+08    5.516190e-10    7.932000e-13    2.781630e-10    3.073902e-11    4.300000e-01    6.267156e-01    4.241995e-02
    2.284281e+01    2.110706e+01    1.752339e-01    1.132611e+09    5.624800e-10    8.004835e-13    2.924667e-10    3.205109e-11    4.400000e-01    6.267156e-01    4.264612e-02
    2.249277e+01    2.090497e+01    2.198217e-01    1.372027e+09    5.735495e-10    8.054695e-13    3.069800e-10    3.336880e-11    4.500000e-01    6.267156e-01    4.292459e-02
    2.212259e+01    2.069007e+01    2.747633e-01    1.654299e+09    5.847910e-10    8.080500e-13    3.216582e-10    3.468805e-11    4.600000e-01    6.267156e-01    4.326543e-02
    2.173374e+01    2.046523e+01    3.421354e-01    1.985110e+09    5.961670e-10    8.081375e-13    3.364551e-10    3.600468e-11    4.700000e-01    6.267156e-01    4.368002e-02
    2.132801e+01    2.023379e+01    4.243372e-01    2.370477e+09    6.076395e-10    8.056635e-13    3.513236e-10    3.731462e-11    4.800000e-01    6.267156e-01    4.418094e-02
    2.090753e+01    1.999955e+01    5.241185e-01    2.816715e+09    6.191695e-10    8.005825e-13    3.662163e-10    3.861386e-11    4.900000e-01    6.267156e-01    4.478190e-02
    2.047462e+01    1.976653e+01    6.446050e-01    3.330382e+09    6.307185e-10    7.928670e-13    3.810863e-10    3.989853e-11    5.000000e-01    6.267156e-01    4.549756e-02
    2.003165e+01    1.953890e+01    7.893235e-01    3.918224e+09    6.422480e-10    7.825130e-13    3.958873e-10    4.116497e-11    5.100000e-01    6.267156e-01    4.634321e-02
    1.958099e+01    1.932070e+01    9.622220e-01    4.587093e+09    6.537210e-10    7.695345e-13    4.105749e-10    4.240974e-11    5.200000e-01    6.267156e-01    4.733444e-02
    1.912480e+01    1.911565e+01    1.167685e+00    5.343850e+09    6.651020e-10    7.539650e-13    4.251067e-10    4.362965e-11    5.300000e-01    6.267156e-01    4.848673e-02
    1.866496e+01    1.892697e+01    1.410542e+00    6.195226e+09    6.763570e-10    7.358555e-13    4.394425e-10    4.482181e-11    5.400000e-01    6.267156e-01    4.981488e-02
    1.820296e+01    1.875717e+01    1.696071e+00    7.147635e+09    6.874545e-10    7.152705e-13    4.535451e-10    4.598366e-11    5.500000e-01    6.267156e-01    5.133252e-02
    1.773986e+01    1.860787e+01    2.029987e+00    8.206930e+09    6.983655e-10    6.922895e-13    4.673805e-10    4.711293e-11    5.600000e-01    6.267156e-01    5.305156e-02
    1.727627e+01    1.847980e+01    2.418410e+00    9.378107e+09    7.090630e-10    6.670020e-13    4.809181e-10    4.820771e-11    5.700000e-01    6.267156e-01    5.498159e-02
    1.681243e+01    1.837265e+01    2.867825e+00    1.066493e+10    7.195240e-10    6.395055e-13    4.941307e-10    4.926643e-11    5.800000e-01    6.267156e-01    5.712946e-02
    1.634827e+01    1.828516e+01    3.385013e+00    1.206956e+10    7.297275e-10    6.099050e-13    5.069950e-10    5.028785e-11    5.900000e-01    6.267156e-01    5.949882e-02
    1.588354e+01    1.821518e+01    3.976959e+00    1.359218e+10    7.396555e-10    5.783070e-13    5.194910e-10    5.127100e-11    6.000000e-01    6.267156e-01    6.208985e-02
    1.541794e+01    1.815977e+01    4.650737e+00    1.523059e+10    7.492930e-10    5.448215e-13    5.316030e-10    5.221535e-11    6.100000e-01    6.267156e-01    6.489913e-02
    1.495127e+01    1.811544e+01    5.413375e+00    1.697998e+10    7.586285e-10    5.095570e-13    5.433175e-10    5.312055e-11    6.200000e-01    6.267156e-01    6.791961e-02
    1.448351e+01    1.807826e+01    6.271700e+00    1.883279e+10    7.676520e-10    4.726186e-13    5.546260e-10    5.398650e-11    6.300000e-01    6.267156e-01    7.114077e-02
    1.401493e+01    1.804415e+01    7.232175e+00    2.077870e+10    7.763570e-10    4.341085e-13    5.655215e-10    5.481340e-11    6.400000e-01    6.267156e-01    7.454892e-02
    1.354610e+01    1.800905e+01    8.300745e+00    2.280480e+10    7.847390e-10    3.941222e-13    5.760015e-10    5.560175e-11    6.500000e-01    6.267156e-01    7.812767e-02
    1.307800e+01    1.796911e+01    9.482655e+00    2.489600e+10    7.927965e-10    3.527478e-13    5.860650e-10    5.635205e-11    6.600000e-01    6.267156e-01    8.185842e-02
    1.261182e+01    1.792087e+01    1.078236e+01    2.703550e+10    8.005295e-10    3.100655e-13    5.957140e-10    5.706520e-11    6.700000e-01    6.267156e-01    8.572097e-02
    1.214905e+01    1.786142e+01    1.220337e+01    2.920542e+10    8.079395e-10    2.661460e-13    6.049525e-10    5.774205e-11    6.800000e-01    6.267156e-01    8.969417e-02
    1.169133e+01    1.778838e+01    1.374822e+01    3.138750e+10    8.150305e-10    2.210504e-13    6.137870e-10    5.838370e-11    6.900000e-01    6.267156e-01    9.375652e-02
    1.124037e+01    1.770008e+01    1.541840e+01    3.356371e+10    8.218075e-10    1.748289e-13    6.222245e-10    5.899125e-11    7.000000e-01    6.267156e-01    9.788672e-02
    1.079789e+01    1.759547e+01    1.721438e+01    3.571699e+10    8.282765e-10    1.275216e-13    6.302750e-10    5.956605e-11    7.100000e-01    6.267156e-01    1.020642e-01
    1.036549e+01    1.747412e+01    1.913565e+01    3.783166e+10    8.344450e-10    7.915705e-14    6.379480e-10    6.010930e-11    7.200000e-01    6.267156e-01    1.062697e-01
    9.944662e+00    1.733613e+01    2.118077e+01    3.989388e+10    8.403215e-10    2.975324e-14    6.452555e-10    6.062235e-11    7.300000e-01    6.267156e-01    1.104851e-01
    9.536678e+00    1.718211e+01    2.334748e+01    4.189197e+10    8.459145e-10    2.068299e-14    6.522090e-10    6.110660e-11    7.400000e-01    6.267156e-01    1.146944e-01
    9.142593e+00    1.701304e+01    2.563282e+01    4.381642e+10    8.512340e-10    7.215565e-14    6.588220e-10    6.156345e-11    7.500000e-01    6.267156e-01    1.188830e-01
    8.763224e+00    1.683018e+01    2.803321e+01    4.566001e+10    8.562900e-10    1.246794e-13    6.651065e-10    6.199420e-11    7.600000e-01    6.267156e-01    1.230385e-01
    8.399147e+00    1.663500e+01    3.054463e+01    4.741772e+10    8.610920e-10    1.782793e-13    6.710765e-10    6.240025e-11    7.700000e-01    6.267156e-01    1.271501e-01
    8.050717e+00    1.642909e+01    3.316268e+01    4.908640e+10    8.656515e-10    2.329907e-13    6.767450e-10    6.278295e-11    7.800000e-01    6.267156e-01    1.312092e-01
    7.718077e+00    1.621407e+01    3.588272e+01    5.066480e+10    8.699780e-10    2.888588e-13    6.821265e-10    6.314360e-11    7.900000e-01    6.267156e-01    1.352083e-01
    7.401191e+00    1.599158e+01    3.869998e+01    5.215309e+10    8.740825e-10    3.459385e-13    6.872330e-10    6.348345e-11    8.000000e-01    6.267156e-01    1.391419e-01
    7.099861e+00    1.576317e+01    4.160963e+01    5.355270e+10    8.779755e-10    4.042939e-13    6.920790e-10    6.380385e-11    8.100000e-01    6.267156e-01    1.430057e-01
    6.813762e+00    1.553031e+01    4.460683e+01    5.486611e+10    8.816665e-10    4.639986e-13    6.966765e-10    6.410590e-11    8.200000e-01    6.267156e-01    1.467966e-01
    6.542463e+00    1.529437e+01    4.768687e+01    5.609644e+10    8.851665e-10    5.251345e-13    7.010385e-10    6.439075e-11    8.300000e-01    6.267156e-01    1.505126e-01
    6.285455e+00    1.505655e+01    5.084510e+01    5.724741e+10    8.884850e-10    5.877935e-13    7.051770e-10    6.465950e-11    8.400000e-01    6.267156e-01    1.541526e-01
    6.042166e+00    1.481796e+01    5.407710e+01    5.832312e+10    8.916315e-10    6.520740e-13    7.091045e-10    6.491325e-11    8.500000e-01    6.267156e-01    1.577163e-01
    5.811987e+00    1.457954e+01    5.737860e+01    5.932781e+10    8.946155e-10    7.180845e-13    7.128320e-10    6.515300e-11    8.600000e-01    6.267156e-01    1.612039e-01
    5.594296e+00    1.434212e+01    6.074545e+01    6.026587e+10    8.974450e-10    7.859415e-13    7.163705e-10    6.537970e-11    8.700000e-01    6.267156e-01    1.646164e-01
    5.388438e+00    1.410640e+01    6.417390e+01    6.114156e+10    9.001295e-10    8.557695e-13    7.197305e-10    6.559420e-11    8.800000e-01    6.267156e-01    1.679548e-01
    5.193784e+00    1.387296e+01    6.766020e+01    6.195907e+10    9.026770e-10    9.277010e-13    7.229225e-10    6.579735e-11    8.900000e-01    6.267156e-01    1.712209e-01
    5.009692e+00    1.364227e+01    7.120105e+01    6.272246e+10    9.050955e-10    1.001878e-12    7.259555e-10    6.599005e-11    9.000000e-01    6.267156e-01    1.744165e-01
    4.835556e+00    1.341473e+01    7.479310e+01    6.343557e+10    9.073925e-10    1.078451e-12    7.288390e-10    6.617300e-11    9.100000e-01    6.267156e-01    1.775435e-01
    4.670776e+00    1.319064e+01    7.843340e+01    6.410205e+10    9.095745e-10    1.157577e-12    7.315820e-10    6.634690e-11    9.200000e-01    6.267156e-01    1.806041e-01
    4.514787e+00    1.297022e+01    8.211905e+01    6.472521e+10    9.116495e-10    1.239425e-12    7.341925e-10    6.651250e-11    9.300000e-01    6.267156e-01    1.836007e-01
    4.367038e+00    1.275366e+01    8.584755e+01    6.530825e+10    9.136230e-10    1.324171e-12    7.366780e-10    6.667035e-11    9.400000e-01    6.267156e-01    1.865354e-01
    4.227023e+00    1.254106e+01    8.961625e+01    6.585404e+10    9.155015e-10    1.412000e-12    7.390455e-10    6.682110e-11    9.500000e-01    6.267156e-01    1.894106e-01
    4.094247e+00    1.233251e+01    9.342300e+01    6.636527e+10    9.172910e-10    1.503109e-12    7.413030e-10    6.696530e-11    9.600000e-01    6.267156e-01    1.922288e-01
    3.968258e+00    1.212804e+01    9.726550e+01    6.684440e+10    9.189965e-10    1.597705e-12    7.434565e-10    6.710350e-11    9.700000e-01    6.267156e-01    1.949920e-01
    3.848622e+00    1.192765e+01    1.011418e+02    6.729361e+10    9.206240e-10    1.696002e-12    7.455120e-10    6.723610e-11    9.800000e-01    6.267156e-01    1.977027e-01
    3.734936e+00    1.173134e+01    1.050500e+02    6.771499e+10    9.221780e-10    1.798230e-12    7.474755e-10    6.736370e-11    9.900000e-01    6.267156e-01    2.003631e-01
    3.626828e+00    1.153905e+01    1.089884e+02    6.811042e+10    9.236630e-10    1.904630e-12    7.493525e-10    6.748660e-11    1.000000e+00    6.267156e-01    2.029753e-01
    3.523941e+00    1.135074e+01    1.129552e+02    6.848155e+10    9.250840e-10    2.015451e-12    7.511480e-10    6.760535e-11    1.010000e+00    6.267156e-01    2.055414e-01
    3.425951e+00    1.116634e+01    1.169488e+02    6.882997e+10    9.264445e-10    2.130959e-12    7.528665e-10    6.772020e-11    1.020000e+00    6.267156e-01    2.080636e-01
    3.332552e+00    1.098577e+01    1.209679e+02    6.915710e+10    9.277485e-10    2.251434e-12    7.545125e-10    6.783160e-11    1.030000e+00    6.267156e-01    2.105437e-01
    3.243458e+00    1.080896e+01    1.250110e+02    6.946419e+10    9.290000e-10    2.377168e-12    7.560900e-10    6.793985e-11    1.040000e+00    6.267156e-01    2.129837e-01
    3.158409e+00    1.063582e+01    1.290768e+02    6.975245e+10    9.302020e-10    2.508471e-12    7.576035e-10    6.804525e-11    1.050000e+00    6.267156e-01    2.153853e-01
    3.077157e+00    1.046625e+01    1.331641e+02    7.002290e+10    9.313585e-10    2.645668e-12    7.590565e-10    6.814815e-11    1.060000e+00    6.267156e-01    2.177505e-01
    2.999473e+00    1.030016e+01    1.372717e+02    7.027652e+10    9.324725e-10    2.789101e-12    7.604520e-10    6.824885e-11    1.070000e+00    6.267156e-01    2.200808e-01
    2.925146e+00    1.013747e+01    1.413986e+02    7.051428e+10    9.335460e-10    2.939129e-12    7.617930e-10    6.834755e-11    1.080000e+00    6.267156e-01    2.223778e-01
    2.853977e+00    9.978072e+00    1.455436e+02    7.073691e+10    9.345830e-10    3.096133e-12    7.630830e-10    6.844455e-11    1.090000e+00    6.267156e-01    2.246432e-01
    2.785785e+00    9.821884e+00    1.497058e+02    7.094523e+10    9.355850e-10    3.260513e-12    7.643245e-10    6.854005e-11    1.100000e+00    6.267156e-01    2.268785e-01
    2.720396e+00    9.668814e+00    1.538843e+02    7.113986e+10    9.365555e-10    3.432691e-12    7.655200e-10    6.863435e-11    1.110000e+00    6.267156e-01    2.290849e-01
    2.657652e+00    9.518774e+00    1.580781e+02    7.132151e+10    9.374960e-10    3.613111e-12    7.666715e-10    6.872760e-11    1.120000e+00    6.267156e-01    2.312640e-01
    2.597406e+00    9.371677e+00    1.622863e+02    7.149074e+10    9.384090e-10    3.802242e-12    7.677820e-10    6.882005e-11    1.130000e+00    6.267156e-01    2.334170e-01
    2.539518e+00    9.227439e+00    1.665083e+02    7.164810e+10    9.392965e-10    4.000578e-12    7.688525e-10    6.891195e-11    1.140000e+00    6.267156e-01    2.355452e-01
    2.483861e+00    9.085980e+00    1.707432e+02    7.179406e+10    9.401610e-10    4.208641e-12    7.698850e-10    6.900335e-11    1.150000e+00    6.267156e-01    2.376497e-01
    2.430315e+00    8.947219e+00    1.749901e+02    7.192911e+10    9.410040e-10    4.426979e-12    7.708820e-10    6.909460e-11    1.160000e+00    6.267156e-01    2.397317e-01
    2.378767e+00    8.811082e+00    1.792485e+02    7.205371e+10    9.418270e-10    4.656175e-12    7.718445e-10    6.918575e-11    1.170000e+00    6.267156e-01    2.417923e-01
    2.329111e+00    8.677495e+00    1.835177e+02    7.216825e+10    9.426320e-10    4.896839e-12    7.727735e-10    6.927710e-11    1.180000e+00    6.267156e-01    2.438326e-01
    2.281252e+00    8.546383e+00    1.877970e+02    7.227310e+10    9.434205e-10    5.149615e-12    7.736710e-10    6.936870e-11    1.190000e+00    6.267156e-01    2.458535e-01
    2.235097e+00    8.417687e+00    1.920858e+02    7.236860e+10    9.441945e-10    5.415185e-12    7.745380e-10    6.946080e-11    1.200000e+00    6.267156e-01    2.478560e-01
    2.190560e+00    8.291333e+00    1.963834e+02    7.245509e+10    9.449550e-10    5.694270e-12    7.753755e-10    6.955355e-11    1.210000e+00    6.267156e-01    2.498411e-01
    2.147561e+00    8.167257e+00    2.006894e+02    7.253286e+10    9.457040e-10    5.987620e-12    7.761840e-10    6.964710e-11    1.220000e+00    6.267156e-01    2.518095e-01
    2.106026e+00    8.045396e+00    2.050031e+02    7.260222e+10    9.464425e-10    6.296035e-12    7.769650e-10    6.974160e-11    1.230000e+00    6.267156e-01    2.537622e-01
    2.065882e+00    7.925704e+00    2.093240e+02    7.266346e+10    9.471715e-10    6.620360e-12    7.777185e-10    6.983725e-11    1.240000e+00    6.267156e-01    2.556999e-01
