# sky130 nfet_01v8 gm/ID Processed Lookup Table
# Corner: sf
# Temperature: 25C
# W = 2.0 um
# L = 1 um (1000 nm)
# Columns: gm/id [1/V]  gm/gds [V/V]  id/W [A/m]  ft [Hz]  Cgg/W [F/m]  Cgd/W [F/m]  Cgs/W [F/m]  Cdb/W [F/m]  vgs [V]  vth [V]  vdsat [V]
# vdsat = BSIM4 saturation voltage (|VDS|_sat, positive); use for headroom / saturation / cascode-bias calculations
#           gm/id          gm/gds            id/W              ft           Cgg/W           Cgd/W           Cgs/W           Cdb/W             vgs             vth           vdsat
    2.855243e+01    1.553650e+02    6.756080e-05    1.403877e+05    2.186901e-09    1.855906e-13    6.001270e-10    7.674725e-11    2.400000e-01    5.766126e-01    4.236736e-02
    2.854041e+01    1.551303e+02    8.988265e-05    1.835216e+05    2.224688e-09    2.022870e-13    6.585295e-10    8.287475e-11    2.500000e-01    5.766126e-01    4.236973e-02
    2.851395e+01    1.548627e+02    1.195564e-04    2.393926e+05    2.266416e-09    2.205458e-13    7.215865e-10    8.939470e-11    2.600000e-01    5.766126e-01    4.237288e-02
    2.847420e+01    1.545582e+02    1.589739e-04    3.115825e+05    2.312194e-09    2.405037e-13    7.894265e-10    9.631125e-11    2.700000e-01    5.766126e-01    4.237707e-02
    2.842179e+01    1.542128e+02    2.112897e-04    4.046236e+05    2.362102e-09    2.623068e-13    8.621425e-10    1.036251e-10    2.800000e-01    5.766126e-01    4.238262e-02
    2.835681e+01    1.538218e+02    2.806570e-04    5.242311e+05    2.416188e-09    2.861105e-13    9.397890e-10    1.113333e-10    2.900000e-01    5.766126e-01    4.238998e-02
    2.827912e+01    1.533809e+02    3.725324e-04    6.775923e+05    2.474467e-09    3.120803e-13    1.022375e-09    1.194292e-10    3.000000e-01    5.766126e-01    4.239972e-02
    2.818822e+01    1.528856e+02    4.940675e-04    8.737113e+05    2.536915e-09    3.403914e-13    1.109862e-09    1.279016e-10    3.100000e-01    5.766126e-01    4.241260e-02
    2.808342e+01    1.523317e+02    6.546115e-04    1.123832e+06    2.603469e-09    3.712297e-13    1.202162e-09    1.367355e-10    3.200000e-01    5.766126e-01    4.242960e-02
    2.796393e+01    1.517155e+02    8.663520e-04    1.441942e+06    2.674021e-09    4.047914e-13    1.299134e-09    1.459116e-10    3.300000e-01    5.766126e-01    4.245201e-02
    2.782886e+01    1.510342e+02    1.145125e-03    1.845375e+06    2.748424e-09    4.412837e-13    1.400584e-09    1.554061e-10    3.400000e-01    5.766126e-01    4.248147e-02
    2.767735e+01    1.502863e+02    1.511433e-03    2.355522e+06    2.826485e-09    4.809249e-13    1.506268e-09    1.651917e-10    3.500000e-01    5.766126e-01    4.252013e-02
    2.750864e+01    1.494720e+02    1.991729e-03    2.998674e+06    2.907972e-09    5.239450e-13    1.615888e-09    1.752369e-10    3.600000e-01    5.766126e-01    4.257071e-02
    2.732208e+01    1.485941e+02    2.619993e-03    3.807002e+06    2.992615e-09    5.705850e-13    1.729100e-09    1.855073e-10    3.700000e-01    5.766126e-01    4.263671e-02
    2.711735e+01    1.476586e+02    3.439700e-03    4.819725e+06    3.080106e-09    6.210990e-13    1.845520e-09    1.959654e-10    3.800000e-01    5.766126e-01    4.272252e-02
    2.689446e+01    1.466753e+02    4.506218e-03    6.084450e+06    3.170107e-09    6.757535e-13    1.964722e-09    2.065714e-10    3.900000e-01    5.766126e-01    4.283369e-02
    2.665382e+01    1.456584e+02    5.889755e-03    7.658774e+06    3.262252e-09    7.348280e-13    2.086252e-09    2.172839e-10    4.000000e-01    5.766126e-01    4.297710e-02
    2.639641e+01    1.446276e+02    7.678920e-03    9.612204e+06    3.356157e-09    7.986160e-13    2.209631e-09    2.280602e-10    4.100000e-01    5.766126e-01    4.316122e-02
    2.612371e+01    1.436076e+02    9.985075e-03    1.202842e+07    3.451419e-09    8.674250e-13    2.334363e-09    2.388575e-10    4.200000e-01    5.766126e-01    4.339638e-02
    2.583772e+01    1.426291e+02    1.294758e-02    1.500806e+07    3.547632e-09    9.415785e-13    2.459944e-09    2.496331e-10    4.300000e-01    5.766126e-01    4.369502e-02
    2.554083e+01    1.417269e+02    1.674014e-02    1.867198e+07    3.644382e-09    1.021415e-12    2.585871e-09    2.603452e-10    4.400000e-01    5.766126e-01    4.407187e-02
    2.523560e+01    1.409394e+02    2.157850e-02    2.316523e+07    3.741265e-09    1.107292e-12    2.711646e-09    2.709537e-10    4.500000e-01    5.766126e-01    4.454415e-02
    2.492455e+01    1.403059e+02    2.772965e-02    2.866157e+07    3.837884e-09    1.199582e-12    2.836787e-09    2.814206e-10    4.600000e-01    5.766126e-01    4.513161e-02
    2.460960e+01    1.398631e+02    3.552283e-02    3.536823e+07    3.933859e-09    1.298680e-12    2.960834e-09    2.917103e-10    4.700000e-01    5.766126e-01    4.585649e-02
    2.429175e+01    1.396416e+02    4.536245e-02    4.353079e+07    4.028831e-09    1.405000e-12    3.083352e-09    3.017904e-10    4.800000e-01    5.766126e-01    4.674329e-02
    2.397065e+01    1.396608e+02    5.774285e-02    5.343691e+07    4.122463e-09    1.518979e-12    3.203940e-09    3.116316e-10    4.900000e-01    5.766126e-01    4.781835e-02
    2.364419e+01    1.399245e+02    7.326475e-02    6.541819e+07    4.214452e-09    1.641077e-12    3.322233e-09    3.212084e-10    5.000000e-01    5.766126e-01    4.910924e-02
    2.330854e+01    1.404169e+02    9.265225e-02    7.984843e+07    4.304520e-09    1.771783e-12    3.437905e-09    3.304988e-10    5.100000e-01    5.766126e-01    5.064392e-02
    2.295828e+01    1.411000e+02    1.167695e-01    9.713696e+07    4.392426e-09    1.911609e-12    3.550670e-09    3.394846e-10    5.200000e-01    5.766126e-01    5.244980e-02
    2.258689e+01    1.419133e+02    1.466352e-01    1.177158e+08    4.477959e-09    2.061100e-12    3.660284e-09    3.481511e-10    5.300000e-01    5.766126e-01    5.455258e-02
    2.218753e+01    1.427757e+02    1.834324e-01    1.420204e+08    4.560943e-09    2.220833e-12    3.766545e-09    3.564874e-10    5.400000e-01    5.766126e-01    5.697513e-02
    2.175393e+01    1.435902e+02    2.285110e-01    1.704636e+08    4.641235e-09    2.391420e-12    3.869292e-09    3.644860e-10    5.500000e-01    5.766126e-01    5.973640e-02
    2.128125e+01    1.442512e+02    2.833816e-01    2.034063e+08    4.718722e-09    2.573512e-12    3.968401e-09    3.721425e-10    5.600000e-01    5.766126e-01    6.285042e-02
    2.076677e+01    1.446525e+02    3.496980e-01    2.411267e+08    4.793326e-09    2.767798e-12    4.063788e-09    3.794554e-10    5.700000e-01    5.766126e-01    6.632562e-02
    2.021029e+01    1.446965e+02    4.292287e-01    2.837914e+08    4.864992e-09    2.975012e-12    4.155402e-09    3.864262e-10    5.800000e-01    5.766126e-01    7.016433e-02
    1.961409e+01    1.443012e+02    5.238175e-01    3.314333e+08    4.933694e-09    3.195937e-12    4.243222e-09    3.930584e-10    5.900000e-01    5.766126e-01    7.436272e-02
    1.898281e+01    1.434079e+02    6.353365e-01    3.839408e+08    4.999427e-09    3.431407e-12    4.327259e-09    3.993578e-10    6.000000e-01    5.766126e-01    7.891097e-02
    1.832283e+01    1.419829e+02    7.656335e-01    4.410558e+08    5.062210e-09    3.682313e-12    4.407546e-09    4.053321e-10    6.100000e-01    5.766126e-01    8.379380e-02
    1.764170e+01    1.400193e+02    9.164805e-01    5.023853e+08    5.122085e-09    3.949601e-12    4.484140e-09    4.109902e-10    6.200000e-01    5.766126e-01    8.899122e-02
    1.694754e+01    1.375352e+02    1.089522e+00    5.674255e+08    5.179095e-09    4.234288e-12    4.557116e-09    4.163424e-10    6.300000e-01    5.766126e-01    9.447948e-02
    1.624843e+01    1.345694e+02    1.286236e+00    6.355877e+08    5.233310e-09    4.537457e-12    4.626563e-09    4.214002e-10    6.400000e-01    5.766126e-01    1.002321e-01
    1.555199e+01    1.311773e+02    1.507898e+00    7.062349e+08    5.284805e-09    4.860270e-12    4.692587e-09    4.261755e-10    6.500000e-01    5.766126e-01    1.062207e-01
    1.486505e+01    1.274248e+02    1.755566e+00    7.787130e+08    5.333670e-09    5.203970e-12    4.755302e-09    4.306809e-10    6.600000e-01    5.766126e-01    1.124165e-01
    1.419341e+01    1.233833e+02    2.030066e+00    8.523830e+08    5.380000e-09    5.569880e-12    4.814828e-09    4.349292e-10    6.700000e-01    5.766126e-01    1.187905e-01
    1.354181e+01    1.191251e+02    2.332000e+00    9.266484e+08    5.423885e-09    5.959435e-12    4.871294e-09    4.389338e-10    6.800000e-01    5.766126e-01    1.253148e-01
    1.291392e+01    1.147197e+02    2.661751e+00    1.000969e+09    5.465440e-09    6.374160e-12    4.924832e-09    4.427075e-10    6.900000e-01    5.766126e-01    1.319628e-01
    1.231239e+01    1.102310e+02    3.019505e+00    1.074879e+09    5.504760e-09    6.815695e-12    4.975573e-09    4.462635e-10    7.000000e-01    5.766126e-01    1.387098e-01
    1.173894e+01    1.057156e+02    3.405274e+00    1.147990e+09    5.541955e-09    7.285805e-12    5.023655e-09    4.496145e-10    7.100000e-01    5.766126e-01    1.455331e-01
    1.119453e+01    1.012222e+02    3.818923e+00    1.219989e+09    5.577130e-09    7.786375e-12    5.069205e-09    4.527731e-10    7.200000e-01    5.766126e-01    1.524125e-01
    1.067945e+01    9.679088e+01    4.260191e+00    1.290640e+09    5.610390e-09    8.319440e-12    5.112360e-09    4.557517e-10    7.300000e-01    5.766126e-01    1.593299e-01
    1.019348e+01    9.245397e+01    4.728720e+00    1.359772e+09    5.641835e-09    8.887180e-12    5.153245e-09    4.585619e-10    7.400000e-01    5.766126e-01    1.662696e-01
    9.735973e+00    8.823626e+01    5.224080e+00    1.427268e+09    5.671575e-09    9.491945e-12    5.191990e-09    4.612152e-10    7.500000e-01    5.766126e-01    1.732179e-01
    9.305995e+00    8.415607e+01    5.745780e+00    1.493069e+09    5.699700e-09    1.013627e-11    5.228710e-09    4.637225e-10    7.600000e-01    5.766126e-01    1.801632e-01
    8.902365e+00    8.022599e+01    6.293305e+00    1.557146e+09    5.726310e-09    1.082285e-11    5.263525e-09    4.660942e-10    7.700000e-01    5.766126e-01    1.870958e-01
    8.523799e+00    7.645394e+01    6.866105e+00    1.619506e+09    5.751500e-09    1.155463e-11    5.296545e-09    4.683403e-10    7.800000e-01    5.766126e-01    1.940073e-01
    8.168899e+00    7.284388e+01    7.463625e+00    1.680178e+09    5.775350e-09    1.233476e-11    5.327885e-09    4.704704e-10    7.900000e-01    5.766126e-01    2.008912e-01
    7.836243e+00    6.939673e+01    8.085310e+00    1.739203e+09    5.797950e-09    1.316663e-11    5.357635e-09    4.724934e-10    8.000000e-01    5.766126e-01    2.077418e-01
    7.524406e+00    6.611100e+01    8.730610e+00    1.796635e+09    5.819385e-09    1.405390e-11    5.385905e-09    4.744178e-10    8.100000e-01    5.766126e-01    2.145550e-01
    7.231988e+00    6.298334e+01    9.398985e+00    1.852535e+09    5.839725e-09    1.500051e-11    5.412775e-09    4.762518e-10    8.200000e-01    5.766126e-01    2.213272e-01
    6.957642e+00    6.000908e+01    1.008990e+01    1.906964e+09    5.859045e-09    1.601071e-11    5.438340e-09    4.780029e-10    8.300000e-01    5.766126e-01    2.280558e-01
    6.700085e+00    5.718274e+01    1.080286e+01    1.959983e+09    5.877420e-09    1.708910e-11    5.462680e-09    4.796785e-10    8.400000e-01    5.766126e-01    2.347389e-01
    6.458087e+00    5.449810e+01    1.153734e+01    2.011649e+09    5.894915e-09    1.824060e-11    5.485870e-09    4.812853e-10    8.500000e-01    5.766126e-01    2.413751e-01
    6.230493e+00    5.194856e+01    1.229288e+01    2.062013e+09    5.911595e-09    1.947058e-11    5.507985e-09    4.828299e-10    8.600000e-01    5.766126e-01    2.479634e-01
    6.016245e+00    4.952758e+01    1.306900e+01    2.111133e+09    5.927510e-09    2.078477e-11    5.529090e-09    4.843183e-10    8.700000e-01    5.766126e-01    2.545033e-01
    5.814325e+00    4.722840e+01    1.386525e+01    2.159043e+09    5.942730e-09    2.218941e-11    5.549255e-09    4.857564e-10    8.800000e-01    5.766126e-01    2.609946e-01
    5.623822e+00    4.504451e+01    1.468120e+01    2.205788e+09    5.957300e-09    2.369121e-11    5.568530e-09    4.871498e-10    8.900000e-01    5.766126e-01    2.674373e-01
    5.443871e+00    4.296951e+01    1.551641e+01    2.251394e+09    5.971280e-09    2.529740e-11    5.586970e-09    4.885034e-10    9.000000e-01    5.766126e-01    2.738316e-01
    5.273690e+00    4.099732e+01    1.637045e+01    2.295897e+09    5.984705e-09    2.701581e-11    5.604635e-09    4.898224e-10    9.100000e-01    5.766126e-01    2.801779e-01
    5.112545e+00    3.912204e+01    1.724292e+01    2.339311e+09    5.997635e-09    2.885490e-11    5.621570e-09    4.911116e-10    9.200000e-01    5.766126e-01    2.864768e-01
    4.959776e+00    3.733820e+01    1.813342e+01    2.381658e+09    6.010110e-09    3.082376e-11    5.637815e-09    4.923753e-10    9.300000e-01    5.766126e-01    2.927289e-01
    4.814768e+00    3.564051e+01    1.904154e+01    2.422953e+09    6.022165e-09    3.293225e-11    5.653410e-09    4.936180e-10    9.400000e-01    5.766126e-01    2.989350e-01
    4.676958e+00    3.402408e+01    1.996690e+01    2.463200e+09    6.033850e-09    3.519098e-11    5.668400e-09    4.948440e-10    9.500000e-01    5.766126e-01    3.050956e-01
    4.545832e+00    3.248429e+01    2.090910e+01    2.502410e+09    6.045195e-09    3.761140e-11    5.682810e-09    4.960572e-10    9.600000e-01    5.766126e-01    3.112118e-01
    4.420918e+00    3.101681e+01    2.186776e+01    2.540583e+09    6.056245e-09    4.020588e-11    5.696680e-09    4.972615e-10    9.700000e-01    5.766126e-01    3.172843e-01
    4.301783e+00    2.961762e+01    2.284248e+01    2.577720e+09    6.067030e-09    4.298772e-11    5.710035e-09    4.984608e-10    9.800000e-01    5.766126e-01    3.233140e-01
    4.188029e+00    2.828293e+01    2.383290e+01    2.613821e+09    6.077580e-09    4.597126e-11    5.722905e-09    4.996588e-10    9.900000e-01    5.766126e-01    3.293018e-01
    4.079292e+00    2.700925e+01    2.483861e+01    2.648878e+09    6.087940e-09    4.917198e-11    5.735310e-09    5.008590e-10    1.000000e+00    5.766126e-01    3.352486e-01
    3.975234e+00    2.579326e+01    2.585925e+01    2.682882e+09    6.098135e-09    5.260645e-11    5.747270e-09    5.020655e-10    1.010000e+00    5.766126e-01    3.411552e-01
    3.875552e+00    2.463194e+01    2.689441e+01    2.715832e+09    6.108195e-09    5.629260e-11    5.758810e-09    5.032815e-10    1.020000e+00    5.766126e-01    3.470227e-01
    3.779961e+00    2.352242e+01    2.794373e+01    2.747713e+09    6.118155e-09    6.024955e-11    5.769940e-09    5.045105e-10    1.030000e+00    5.766126e-01    3.528518e-01
    3.688198e+00    2.246203e+01    2.900681e+01    2.778512e+09    6.128045e-09    6.449795e-11    5.780685e-09    5.057565e-10    1.040000e+00    5.766126e-01    3.586435e-01
    3.600025e+00    2.144832e+01    3.008326e+01    2.808220e+09    6.137895e-09    6.905975e-11    5.791050e-09    5.070220e-10    1.050000e+00    5.766126e-01    3.643987e-01
    3.515221e+00    2.047894e+01    3.117269e+01    2.836821e+09    6.147735e-09    7.395855e-11    5.801050e-09    5.083115e-10    1.060000e+00    5.766126e-01    3.701182e-01
    3.433581e+00    1.955174e+01    3.227470e+01    2.864303e+09    6.157590e-09    7.921955e-11    5.810695e-09    5.096285e-10    1.070000e+00    5.766126e-01    3.758030e-01
    3.354913e+00    1.866468e+01    3.338891e+01    2.890643e+09    6.167500e-09    8.486950e-11    5.819985e-09    5.109760e-10    1.080000e+00    5.766126e-01    3.814538e-01
    3.279045e+00    1.781589e+01    3.451491e+01    2.915833e+09    6.177485e-09    9.093695e-11    5.828935e-09    5.123580e-10    1.090000e+00    5.766126e-01    3.870716e-01
    3.205813e+00    1.700357e+01    3.565229e+01    2.939851e+09    6.187575e-09    9.745210e-11    5.837545e-09    5.137780e-10    1.100000e+00    5.766126e-01    3.926571e-01
    3.135067e+00    1.622608e+01    3.680067e+01    2.962680e+09    6.197805e-09    1.044469e-10    5.845815e-09    5.152395e-10    1.110000e+00    5.766126e-01    3.982113e-01
    3.066665e+00    1.548186e+01    3.795961e+01    2.984298e+09    6.208205e-09    1.119549e-10    5.853750e-09    5.167465e-10    1.120000e+00    5.766126e-01    4.037349e-01
    3.000478e+00    1.476942e+01    3.912871e+01    3.004687e+09    6.218805e-09    1.200116e-10    5.861345e-09    5.183020e-10    1.130000e+00    5.766126e-01    4.092288e-01
    2.936383e+00    1.408740e+01    4.030757e+01    3.023828e+09    6.229630e-09    1.286540e-10    5.868600e-09    5.199105e-10    1.140000e+00    5.766126e-01    4.146938e-01
    2.874267e+00    1.343450e+01    4.149574e+01    3.041698e+09    6.240720e-09    1.379206e-10    5.875510e-09    5.215750e-10    1.150000e+00    5.766126e-01    4.201306e-01
    2.814024e+00    1.280951e+01    4.269282e+01    3.058279e+09    6.252095e-09    1.478512e-10    5.882070e-09    5.232995e-10    1.160000e+00    5.766126e-01    4.255401e-01
    2.755553e+00    1.221126e+01    4.389838e+01    3.073549e+09    6.263790e-09    1.584870e-10    5.888270e-09    5.250875e-10    1.170000e+00    5.766126e-01    4.309231e-01
    2.698763e+00    1.163867e+01    4.511197e+01    3.087484e+09    6.275840e-09    1.698701e-10    5.894100e-09    5.269425e-10    1.180000e+00    5.766126e-01    4.362802e-01
    2.643566e+00    1.109073e+01    4.633316e+01    3.100066e+09    6.288270e-09    1.820432e-10    5.899560e-09    5.288675e-10    1.190000e+00    5.766126e-01    4.416124e-01
    2.589881e+00    1.056645e+01    4.756151e+01    3.111278e+09    6.301105e-09    1.950495e-10    5.904630e-09    5.308665e-10    1.200000e+00    5.766126e-01    4.469203e-01
    2.537630e+00    1.006491e+01    4.879658e+01    3.121093e+09    6.314385e-09    2.089318e-10    5.909300e-09    5.329420e-10    1.210000e+00    5.766126e-01    4.522048e-01
    2.486741e+00    9.585246e+00    5.003790e+01    3.129498e+09    6.328125e-09    2.237327e-10    5.913560e-09    5.350975e-10    1.220000e+00    5.766126e-01    4.574664e-01
    2.437146e+00    9.126630e+00    5.128505e+01    3.136473e+09    6.342360e-09    2.394935e-10    5.917395e-09    5.373350e-10    1.230000e+00    5.766126e-01    4.627060e-01
    2.388781e+00    8.688269e+00    5.253755e+01    3.142003e+09    6.357110e-09    2.562540e-10    5.920790e-09    5.396570e-10    1.240000e+00    5.766126e-01    4.679244e-01
    2.341588e+00    8.269414e+00    5.379490e+01    3.146075e+09    6.372395e-09    2.740516e-10    5.923735e-09    5.420660e-10    1.250000e+00    5.766126e-01    4.731221e-01
    2.295508e+00    7.869353e+00    5.505670e+01    3.148676e+09    6.388240e-09    2.929207e-10    5.926210e-09    5.445630e-10    1.260000e+00    5.766126e-01    4.783000e-01
    2.250490e+00    7.487394e+00    5.632240e+01    3.149795e+09    6.404660e-09    3.128919e-10    5.928210e-09    5.471500e-10    1.270000e+00    5.766126e-01    4.834587e-01
    2.206483e+00    7.122887e+00    5.759160e+01    3.149435e+09    6.421660e-09    3.339918e-10    5.929715e-09    5.498275e-10    1.280000e+00    5.766126e-01    4.885989e-01
    2.163443e+00    6.775202e+00    5.886375e+01    3.147585e+09    6.439260e-09    3.562414e-10    5.930715e-09    5.525955e-10    1.290000e+00    5.766126e-01    4.937213e-01
    2.121324e+00    6.443733e+00    6.013840e+01    3.144252e+09    6.457460e-09    3.796564e-10    5.931200e-09    5.554545e-10    1.300000e+00    5.766126e-01    4.988265e-01
    2.080088e+00    6.127897e+00    6.141505e+01    3.139441e+09    6.476260e-09    4.042455e-10    5.931160e-09    5.584030e-10    1.310000e+00    5.766126e-01    5.039154e-01
    2.039696e+00    5.827129e+00    6.269320e+01    3.133162e+09    6.495660e-09    4.300109e-10    5.930585e-09    5.614405e-10    1.320000e+00    5.766126e-01    5.089884e-01
