# sky130 pfet_01v8 gm/ID Processed Lookup Table
# Corner: sf
# Temperature: 0C
# W = 2.0 um
# L = 5.58 um (5580 nm)
# Columns: gm/id [1/V]  gm/gds [V/V]  id/W [A/m]  ft [Hz]  Cgg/W [F/m]  Cgd/W [F/m]  Cgs/W [F/m]  Vov [V]
#         gm/id          gm/gds            id/W              ft           Cgg/W           Cgd/W           Cgs/W             Vov
    2.565780e+00    1.264077e+01    2.915002e+00    3.834925e+07    3.104000e-08    1.778016e-09    2.922545e-08   -2.890720e+00
    2.590457e+00    1.331049e+01    2.877668e+00    3.828241e+07    3.099116e-08    1.718668e-09    2.922040e-08   -2.885720e+00
    2.615276e+00    1.402414e+01    2.840460e+00    3.820859e+07    3.094320e-08    1.660917e-09    2.921475e-08   -2.880720e+00
    2.640234e+00    1.478439e+01    2.803384e+00    3.812777e+07    3.089611e-08    1.604753e-09    2.920850e-08   -2.875720e+00
    2.665330e+00    1.559400e+01    2.766446e+00    3.803995e+07    3.084987e-08    1.550161e-09    2.920165e-08   -2.870720e+00
    2.690562e+00    1.645586e+01    2.729651e+00    3.794515e+07    3.080449e-08    1.497127e-09    2.919423e-08   -2.865720e+00
    2.715931e+00    1.737294e+01    2.693005e+00    3.784341e+07    3.075996e-08    1.445632e-09    2.918622e-08   -2.860720e+00
    2.741442e+00    1.834833e+01    2.656512e+00    3.773487e+07    3.071625e-08    1.395658e-09    2.917765e-08   -2.855720e+00
    2.767095e+00    1.938517e+01    2.620180e+00    3.761957e+07    3.067336e-08    1.347183e-09    2.916852e-08   -2.850720e+00
    2.792896e+00    2.048672e+01    2.584011e+00    3.749765e+07    3.063129e-08    1.300184e-09    2.915884e-08   -2.845720e+00
    2.818848e+00    2.165626e+01    2.548013e+00    3.736919e+07    3.059001e-08    1.254637e-09    2.914861e-08   -2.840720e+00
    2.844958e+00    2.289720e+01    2.512189e+00    3.723437e+07    3.054951e-08    1.210516e-09    2.913785e-08   -2.835720e+00
    2.871232e+00    2.421299e+01    2.476544e+00    3.709330e+07    3.050977e-08    1.167796e-09    2.912656e-08   -2.830720e+00
    2.897682e+00    2.560717e+01    2.441082e+00    3.694621e+07    3.047077e-08    1.126447e-09    2.911475e-08   -2.825720e+00
    2.924310e+00    2.708326e+01    2.405810e+00    3.679319e+07    3.043248e-08    1.086441e-09    2.910243e-08   -2.820720e+00
    2.951133e+00    2.864492e+01    2.370731e+00    3.663449e+07    3.039492e-08    1.047748e-09    2.908960e-08   -2.815720e+00
    2.978156e+00    3.029577e+01    2.335848e+00    3.647024e+07    3.035803e-08    1.010340e-09    2.907627e-08   -2.810720e+00
    3.005395e+00    3.203954e+01    2.301167e+00    3.630068e+07    3.032180e-08    9.741850e-10    2.906245e-08   -2.805720e+00
    3.032856e+00    3.387989e+01    2.266690e+00    3.612592e+07    3.028622e-08    9.392520e-10    2.904814e-08   -2.800720e+00
    3.060559e+00    3.582064e+01    2.232423e+00    3.594626e+07    3.025127e-08    9.055110e-10    2.903335e-08   -2.795720e+00
    3.088509e+00    3.786546e+01    2.198367e+00    3.576178e+07    3.021690e-08    8.729290e-10    2.901809e-08   -2.790720e+00
    3.116726e+00    4.001819e+01    2.164527e+00    3.557276e+07    3.018311e-08    8.414760e-10    2.900235e-08   -2.785720e+00
    3.145222e+00    4.228262e+01    2.130905e+00    3.537936e+07    3.014988e-08    8.111200e-10    2.898616e-08   -2.780720e+00
    3.174010e+00    4.466248e+01    2.097506e+00    3.518175e+07    3.011717e-08    7.818295e-10    2.896949e-08   -2.775720e+00
    3.203105e+00    4.716158e+01    2.064332e+00    3.498011e+07    3.008496e-08    7.535740e-10    2.895238e-08   -2.770720e+00
    3.232525e+00    4.978372e+01    2.031384e+00    3.477465e+07    3.005324e-08    7.263220e-10    2.893481e-08   -2.765720e+00
    3.262284e+00    5.253266e+01    1.998667e+00    3.456553e+07    3.002197e-08    7.000435e-10    2.891679e-08   -2.760720e+00
    3.292397e+00    5.541220e+01    1.966183e+00    3.435290e+07    2.999114e-08    6.747075e-10    2.889832e-08   -2.755720e+00
    3.322883e+00    5.842611e+01    1.933934e+00    3.413695e+07    2.996071e-08    6.502850e-10    2.887940e-08   -2.750720e+00
    3.353757e+00    6.157810e+01    1.901921e+00    3.391781e+07    2.993066e-08    6.267465e-10    2.886004e-08   -2.745720e+00
    3.385033e+00    6.487194e+01    1.870149e+00    3.369565e+07    2.990097e-08    6.040625e-10    2.884022e-08   -2.740720e+00
    3.416732e+00    6.831137e+01    1.838617e+00    3.347060e+07    2.987162e-08    5.822060e-10    2.881996e-08   -2.735720e+00
    3.448869e+00    7.190011e+01    1.807329e+00    3.324281e+07    2.984257e-08    5.611480e-10    2.879926e-08   -2.730720e+00
    3.481466e+00    7.564187e+01    1.776285e+00    3.301241e+07    2.981382e-08    5.408625e-10    2.877810e-08   -2.725720e+00
    3.514536e+00    7.954038e+01    1.745488e+00    3.277952e+07    2.978533e-08    5.213225e-10    2.875649e-08   -2.720720e+00
    3.548099e+00    8.359936e+01    1.714940e+00    3.254427e+07    2.975707e-08    5.025020e-10    2.873443e-08   -2.715720e+00
    3.582173e+00    8.782244e+01    1.684641e+00    3.230676e+07    2.972902e-08    4.843760e-10    2.871191e-08   -2.710720e+00
    3.616780e+00    9.221341e+01    1.654594e+00    3.206712e+07    2.970117e-08    4.669199e-10    2.868893e-08   -2.705720e+00
    3.651936e+00    9.677583e+01    1.624799e+00    3.182544e+07    2.967347e-08    4.501098e-10    2.866548e-08   -2.700720e+00
    3.687666e+00    1.015137e+02    1.595257e+00    3.158184e+07    2.964592e-08    4.339227e-10    2.864157e-08   -2.695720e+00
    3.723983e+00    1.064304e+02    1.565971e+00    3.133637e+07    2.961849e-08    4.183358e-10    2.861718e-08   -2.690720e+00
    3.760912e+00    1.115298e+02    1.536941e+00    3.108915e+07    2.959114e-08    4.033274e-10    2.859230e-08   -2.685720e+00
    3.798475e+00    1.168157e+02    1.508169e+00    3.084026e+07    2.956387e-08    3.888762e-10    2.856693e-08   -2.680720e+00
    3.836691e+00    1.222919e+02    1.479654e+00    3.058976e+07    2.953664e-08    3.749616e-10    2.854106e-08   -2.675720e+00
    3.875585e+00    1.279621e+02    1.451399e+00    3.033776e+07    2.950943e-08    3.615639e-10    2.851468e-08   -2.670720e+00
    3.915181e+00    1.338302e+02    1.423404e+00    3.008432e+07    2.948221e-08    3.486637e-10    2.848779e-08   -2.665720e+00
    3.955497e+00    1.399000e+02    1.395671e+00    2.982947e+07    2.945497e-08    3.362423e-10    2.846037e-08   -2.660720e+00
    3.996566e+00    1.461757e+02    1.368199e+00    2.957334e+07    2.942767e-08    3.242821e-10    2.843240e-08   -2.655720e+00
    4.038402e+00    1.526608e+02    1.340990e+00    2.931591e+07    2.940030e-08    3.127653e-10    2.840389e-08   -2.650720e+00
    4.081041e+00    1.593599e+02    1.314045e+00    2.905732e+07    2.937283e-08    3.016754e-10    2.837482e-08   -2.645720e+00
    4.124505e+00    1.662766e+02    1.287363e+00    2.879755e+07    2.934522e-08    2.909961e-10    2.834516e-08   -2.640720e+00
    4.168819e+00    1.734153e+02    1.260947e+00    2.853668e+07    2.931748e-08    2.807119e-10    2.831492e-08   -2.635720e+00
    4.214017e+00    1.807804e+02    1.234797e+00    2.827478e+07    2.928955e-08    2.708076e-10    2.828407e-08   -2.630720e+00
    4.260125e+00    1.883759e+02    1.208913e+00    2.801186e+07    2.926143e-08    2.612689e-10    2.825260e-08   -2.625720e+00
    4.307173e+00    1.962065e+02    1.183296e+00    2.774797e+07    2.923309e-08    2.520817e-10    2.822049e-08   -2.620720e+00
    4.355193e+00    2.042765e+02    1.157947e+00    2.748315e+07    2.920449e-08    2.432325e-10    2.818773e-08   -2.615720e+00
    4.404220e+00    2.125908e+02    1.132865e+00    2.721745e+07    2.917561e-08    2.347086e-10    2.815429e-08   -2.610720e+00
    4.454284e+00    2.211540e+02    1.108053e+00    2.695088e+07    2.914643e-08    2.264972e-10    2.812016e-08   -2.605720e+00
    4.505419e+00    2.299708e+02    1.083510e+00    2.668349e+07    2.911692e-08    2.185865e-10    2.808532e-08   -2.600720e+00
    4.557663e+00    2.390464e+02    1.059237e+00    2.641529e+07    2.908706e-08    2.109650e-10    2.804974e-08   -2.595720e+00
    4.611054e+00    2.483859e+02    1.035234e+00    2.614633e+07    2.905681e-08    2.036214e-10    2.801341e-08   -2.590720e+00
    4.665633e+00    2.579946e+02    1.011501e+00    2.587661e+07    2.902616e-08    1.965453e-10    2.797629e-08   -2.585720e+00
    4.721433e+00    2.678778e+02    9.880405e-01    2.560617e+07    2.899507e-08    1.897262e-10    2.793837e-08   -2.580720e+00
    4.778503e+00    2.780411e+02    9.648515e-01    2.533502e+07    2.896350e-08    1.831544e-10    2.789963e-08   -2.575720e+00
    4.836879e+00    2.884903e+02    9.419355e-01    2.506319e+07    2.893145e-08    1.768203e-10    2.786003e-08   -2.570720e+00
    4.896615e+00    2.992312e+02    9.192915e-01    2.479069e+07    2.889886e-08    1.707150e-10    2.781955e-08   -2.565720e+00
    4.957753e+00    3.102698e+02    8.969210e-01    2.451753e+07    2.886573e-08    1.648295e-10    2.777815e-08   -2.560720e+00
    5.020340e+00    3.216127e+02    8.748245e-01    2.424372e+07    2.883201e-08    1.591555e-10    2.773582e-08   -2.555720e+00
    5.084429e+00    3.332661e+02    8.530020e-01    2.396928e+07    2.879767e-08    1.536850e-10    2.769252e-08   -2.550720e+00
    5.150070e+00    3.452364e+02    8.314545e-01    2.369422e+07    2.876268e-08    1.484102e-10    2.764822e-08   -2.545720e+00
    5.217319e+00    3.575308e+02    8.101820e-01    2.341853e+07    2.872701e-08    1.433235e-10    2.760288e-08   -2.540720e+00
    5.286234e+00    3.701563e+02    7.891850e-01    2.314224e+07    2.869063e-08    1.384179e-10    2.755647e-08   -2.535720e+00
    5.356873e+00    3.831199e+02    7.684640e-01    2.286533e+07    2.865349e-08    1.336865e-10    2.750896e-08   -2.530720e+00
    5.429296e+00    3.964291e+02    7.480195e-01    2.258781e+07    2.861557e-08    1.291227e-10    2.746031e-08   -2.525720e+00
    5.503568e+00    4.100914e+02    7.278520e-01    2.230968e+07    2.857684e-08    1.247202e-10    2.741048e-08   -2.520720e+00
    5.579757e+00    4.241147e+02    7.079615e-01    2.203094e+07    2.853725e-08    1.204729e-10    2.735944e-08   -2.515720e+00
    5.657924e+00    4.385073e+02    6.883495e-01    2.175157e+07    2.849677e-08    1.163749e-10    2.730713e-08   -2.510720e+00
    5.738148e+00    4.532768e+02    6.690155e-01    2.147159e+07    2.845535e-08    1.124206e-10    2.725353e-08   -2.505720e+00
    5.820499e+00    4.684323e+02    6.499605e-01    2.119097e+07    2.841296e-08    1.086047e-10    2.719858e-08   -2.500720e+00
    5.905053e+00    4.839816e+02    6.311850e-01    2.090970e+07    2.836958e-08    1.049219e-10    2.714225e-08   -2.495720e+00
    5.991895e+00    4.999340e+02    6.126890e-01    2.062778e+07    2.832513e-08    1.013673e-10    2.708448e-08   -2.490720e+00
    6.081101e+00    5.162983e+02    5.944735e-01    2.034519e+07    2.827960e-08    9.793615e-11    2.702523e-08   -2.485720e+00
    6.172764e+00    5.330831e+02    5.765385e-01    2.006190e+07    2.823293e-08    9.462385e-11    2.696445e-08   -2.480720e+00
    6.266966e+00    5.502982e+02    5.588850e-01    1.977792e+07    2.818509e-08    9.142600e-11    2.690209e-08   -2.475720e+00
    6.363800e+00    5.679521e+02    5.415135e-01    1.949321e+07    2.813601e-08    8.833840e-11    2.683811e-08   -2.470720e+00
    6.463360e+00    5.860543e+02    5.244245e-01    1.920775e+07    2.808568e-08    8.535695e-11    2.677243e-08   -2.465720e+00
    6.565746e+00    6.046138e+02    5.076185e-01    1.892152e+07    2.803403e-08    8.247780e-11    2.670502e-08   -2.460720e+00
    6.671061e+00    6.236404e+02    4.910957e-01    1.863450e+07    2.798102e-08    7.969715e-11    2.663580e-08   -2.455720e+00
    6.779407e+00    6.431425e+02    4.748572e-01    1.834665e+07    2.792660e-08    7.701150e-11    2.656474e-08   -2.450720e+00
    6.890888e+00    6.631298e+02    4.589034e-01    1.805795e+07    2.787072e-08    7.441730e-11    2.649176e-08   -2.445720e+00
    7.005618e+00    6.836107e+02    4.432349e-01    1.776837e+07    2.781333e-08    7.191130e-11    2.641681e-08   -2.440720e+00
    7.123710e+00    7.045937e+02    4.278523e-01    1.747788e+07    2.775437e-08    6.949025e-11    2.633983e-08   -2.435720e+00
    7.245279e+00    7.260869e+02    4.127562e-01    1.718645e+07    2.769381e-08    6.715115e-11    2.626074e-08   -2.430720e+00
    7.370444e+00    7.480980e+02    3.979472e-01    1.689404e+07    2.763157e-08    6.489105e-11    2.617950e-08   -2.425720e+00
    7.499324e+00    7.706340e+02    3.834259e-01    1.660062e+07    2.756762e-08    6.270705e-11    2.609601e-08   -2.420720e+00
    7.632041e+00    7.937011e+02    3.691930e-01    1.630616e+07    2.750189e-08    6.059655e-11    2.601024e-08   -2.415720e+00
    7.768720e+00    8.173049e+02    3.552492e-01    1.601063e+07    2.743432e-08    5.855685e-11    2.592210e-08   -2.410720e+00
    7.909486e+00    8.414497e+02    3.415949e-01    1.571399e+07    2.736487e-08    5.658550e-11    2.583153e-08   -2.405720e+00
    8.054466e+00    8.661392e+02    3.282309e-01    1.541621e+07    2.729347e-08    5.468000e-11    2.573844e-08   -2.400720e+00
    8.203783e+00    8.913746e+02    3.151579e-01    1.511727e+07    2.722007e-08    5.283815e-11    2.564278e-08   -2.395720e+00
    8.357563e+00    9.171567e+02    3.023763e-01    1.481713e+07    2.714460e-08    5.105760e-11    2.554447e-08   -2.390720e+00
    8.515927e+00    9.434836e+02    2.898867e-01    1.451578e+07    2.706701e-08    4.933630e-11    2.544343e-08   -2.385720e+00
    8.678999e+00    9.703518e+02    2.776899e-01    1.421319e+07    2.698724e-08    4.767213e-11    2.533959e-08   -2.380720e+00
    8.846891e+00    9.977551e+02    2.657863e-01    1.390935e+07    2.690522e-08    4.606314e-11    2.523288e-08   -2.375720e+00
    9.019718e+00    1.025685e+03    2.541763e-01    1.360425e+07    2.682090e-08    4.450740e-11    2.512321e-08   -2.370720e+00
    9.197580e+00    1.054129e+03    2.428604e-01    1.329789e+07    2.673423e-08    4.300309e-11    2.501052e-08   -2.365720e+00
    9.380577e+00    1.083073e+03    2.318391e-01    1.299029e+07    2.664512e-08    4.154843e-11    2.489472e-08   -2.360720e+00
    9.568792e+00    1.112497e+03    2.211127e-01    1.268144e+07    2.655354e-08    4.014173e-11    2.477574e-08   -2.355720e+00
    9.762300e+00    1.142379e+03    2.106814e-01    1.237138e+07    2.645941e-08    3.878135e-11    2.465350e-08   -2.350720e+00
    9.961161e+00    1.172691e+03    2.005454e-01    1.206016e+07    2.636268e-08    3.746572e-11    2.452792e-08   -2.345720e+00
    1.016542e+01    1.203401e+03    1.907047e-01    1.174783e+07    2.626328e-08    3.619332e-11    2.439895e-08   -2.340720e+00
    1.037508e+01    1.234471e+03    1.811594e-01    1.143445e+07    2.616118e-08    3.496269e-11    2.426648e-08   -2.335720e+00
    1.059017e+01    1.265856e+03    1.719092e-01    1.112012e+07    2.605629e-08    3.377243e-11    2.413047e-08   -2.330720e+00
    1.081064e+01    1.297508e+03    1.629538e-01    1.080494e+07    2.594857e-08    3.262119e-11    2.399082e-08   -2.325720e+00
    1.103644e+01    1.329370e+03    1.542927e-01    1.048905e+07    2.583797e-08    3.150766e-11    2.384747e-08   -2.320720e+00
    1.126749e+01    1.361378e+03    1.459251e-01    1.017259e+07    2.572443e-08    3.043058e-11    2.370035e-08   -2.315720e+00
    1.150365e+01    1.393462e+03    1.378502e-01    9.855744e+06    2.560789e-08    2.938876e-11    2.354939e-08   -2.310720e+00
    1.174476e+01    1.425544e+03    1.300669e-01    9.538714e+06    2.548832e-08    2.838102e-11    2.339453e-08   -2.305720e+00
    1.199061e+01    1.457538e+03    1.225737e-01    9.221728e+06    2.536567e-08    2.740624e-11    2.323571e-08   -2.300720e+00
    1.224095e+01    1.489351e+03    1.153689e-01    8.905053e+06    2.523989e-08    2.646334e-11    2.307287e-08   -2.295720e+00
    1.249544e+01    1.520880e+03    1.084507e-01    8.588973e+06    2.511094e-08    2.555128e-11    2.290595e-08   -2.290720e+00
    1.275374e+01    1.552017e+03    1.018167e-01    8.273811e+06    2.497878e-08    2.466904e-11    2.273490e-08   -2.285720e+00
    1.301542e+01    1.582648e+03    9.546435e-02    7.959921e+06    2.484339e-08    2.381566e-11    2.255968e-08   -2.280720e+00
    1.328000e+01    1.612650e+03    8.939055e-02    7.647681e+06    2.470473e-08    2.299022e-11    2.238024e-08   -2.275720e+00
    1.354691e+01    1.641895e+03    8.359210e-02    7.337502e+06    2.456277e-08    2.219178e-11    2.219656e-08   -2.270720e+00
    1.381557e+01    1.670251e+03    7.806510e-02    7.029824e+06    2.441751e-08    2.141951e-11    2.200859e-08   -2.265720e+00
    1.408528e+01    1.697581e+03    7.280550e-02    6.725111e+06    2.426890e-08    2.067254e-11    2.181630e-08   -2.260720e+00
    1.435531e+01    1.723747e+03    6.780865e-02    6.423847e+06    2.411697e-08    1.995008e-11    2.161969e-08   -2.255720e+00
    1.462487e+01    1.748612e+03    6.306960e-02    6.126535e+06    2.396169e-08    1.925133e-11    2.141874e-08   -2.250720e+00
    1.489310e+01    1.772038e+03    5.858295e-02    5.833692e+06    2.380307e-08    1.857554e-11    2.121345e-08   -2.245720e+00
    1.515910e+01    1.793895e+03    5.434280e-02    5.545846e+06    2.364111e-08    1.792198e-11    2.100380e-08   -2.240720e+00
    1.542195e+01    1.814055e+03    5.034290e-02    5.263526e+06    2.347582e-08    1.728994e-11    2.078983e-08   -2.235720e+00
    1.568064e+01    1.832400e+03    4.657664e-02    4.987251e+06    2.330724e-08    1.667875e-11    2.057155e-08   -2.230720e+00
    1.593418e+01    1.848823e+03    4.303699e-02    4.717534e+06    2.313538e-08    1.608775e-11    2.034898e-08   -2.225720e+00
    1.618160e+01    1.863234e+03    3.971653e-02    4.454876e+06    2.296028e-08    1.551629e-11    2.012216e-08   -2.220720e+00
    1.642187e+01    1.875552e+03    3.660759e-02    4.199737e+06    2.278200e-08    1.496378e-11    1.989113e-08   -2.215720e+00
    1.665403e+01    1.885720e+03    3.370218e-02    3.952557e+06    2.260056e-08    1.442960e-11    1.965597e-08   -2.210720e+00
    1.687715e+01    1.893698e+03    3.099205e-02    3.713734e+06    2.241604e-08    1.391318e-11    1.941673e-08   -2.205720e+00
    1.709036e+01    1.899468e+03    2.846877e-02    3.483614e+06    2.222850e-08    1.341398e-11    1.917349e-08   -2.200720e+00
    1.729287e+01    1.903035e+03    2.612375e-02    3.262497e+06    2.203802e-08    1.293144e-11    1.892633e-08   -2.195720e+00
    1.748395e+01    1.904428e+03    2.394831e-02    3.050627e+06    2.184467e-08    1.246505e-11    1.867535e-08   -2.190720e+00
    1.766303e+01    1.903697e+03    2.193372e-02    2.848187e+06    2.164857e-08    1.201430e-11    1.842067e-08   -2.185720e+00
    1.782963e+01    1.900917e+03    2.007125e-02    2.655301e+06    2.144980e-08    1.157872e-11    1.816241e-08   -2.180720e+00
    1.798342e+01    1.896183e+03    1.835222e-02    2.472027e+06    2.124847e-08    1.115780e-11    1.790068e-08   -2.175720e+00
    1.812420e+01    1.889613e+03    1.676806e-02    2.298365e+06    2.104470e-08    1.075112e-11    1.763564e-08   -2.170720e+00
    1.825196e+01    1.881341e+03    1.531037e-02    2.134253e+06    2.083863e-08    1.035822e-11    1.736744e-08   -2.165720e+00
    1.836680e+01    1.871519e+03    1.397092e-02    1.979571e+06    2.063039e-08    9.978680e-12    1.709624e-08   -2.160720e+00
    1.846900e+01    1.860311e+03    1.274174e-02    1.834148e+06    2.042011e-08    9.612065e-12    1.682221e-08   -2.155720e+00
    1.855902e+01    1.847893e+03    1.161513e-02    1.697762e+06    2.020795e-08    9.257980e-12    1.654555e-08   -2.150720e+00
    1.863741e+01    1.834446e+03    1.058367e-02    1.570149e+06    1.999407e-08    8.916035e-12    1.626642e-08   -2.145720e+00
    1.870491e+01    1.820157e+03    9.640300e-03    1.451009e+06    1.977864e-08    8.585845e-12    1.598505e-08   -2.140720e+00
    1.876236e+01    1.805215e+03    8.778275e-03    1.340009e+06    1.956182e-08    8.267050e-12    1.570164e-08   -2.135720e+00
