# sky130 pfet_01v8 gm/ID Processed Lookup Table
# Corner: sf
# Temperature: 0C
# W = 2.0 um
# L = 0.36 um (360 nm)
# Columns: gm/id [1/V]  gm/gds [V/V]  id/W [A/m]  ft [Hz]  Cgg/W [F/m]  Cgd/W [F/m]  Cgs/W [F/m]  Vov [V]
#         gm/id          gm/gds            id/W              ft           Cgg/W           Cgd/W           Cgs/W             Vov
    2.008718e+00    4.020480e+00    4.190499e+01    5.831434e+09    2.297362e-09    8.148300e-11    2.102050e-09   -2.823946e+00
    2.029319e+00    4.129261e+00    4.148409e+01    5.837237e+09    2.295327e-09    7.887425e-11    2.101802e-09   -2.818946e+00
    2.050165e+00    4.242122e+00    4.106316e+01    5.842454e+09    2.293327e-09    7.633705e-11    2.101523e-09   -2.813946e+00
    2.071251e+00    4.359185e+00    4.064224e+01    5.847056e+09    2.291360e-09    7.387010e-11    2.101211e-09   -2.808946e+00
    2.092580e+00    4.480584e+00    4.022137e+01    5.851031e+09    2.289427e-09    7.147210e-11    2.100868e-09   -2.803946e+00
    2.114150e+00    4.606441e+00    3.980059e+01    5.854362e+09    2.287525e-09    6.914180e-11    2.100493e-09   -2.798946e+00
    2.135957e+00    4.736876e+00    3.937994e+01    5.857026e+09    2.285654e-09    6.687785e-11    2.100087e-09   -2.793946e+00
    2.158002e+00    4.872007e+00    3.895947e+01    5.859008e+09    2.283814e-09    6.467885e-11    2.099651e-09   -2.788946e+00
    2.180282e+00    5.011944e+00    3.853921e+01    5.860289e+09    2.282005e-09    6.254345e-11    2.099186e-09   -2.783946e+00
    2.202797e+00    5.156791e+00    3.811922e+01    5.860856e+09    2.280224e-09    6.047030e-11    2.098691e-09   -2.778946e+00
    2.225546e+00    5.306644e+00    3.769954e+01    5.860693e+09    2.278472e-09    5.845795e-11    2.098167e-09   -2.773946e+00
    2.248527e+00    5.461594e+00    3.728021e+01    5.859786e+09    2.276747e-09    5.650510e-11    2.097615e-09   -2.768946e+00
    2.271737e+00    5.621713e+00    3.686129e+01    5.858115e+09    2.275049e-09    5.461030e-11    2.097035e-09   -2.763946e+00
    2.295177e+00    5.787074e+00    3.644284e+01    5.855676e+09    2.273377e-09    5.277215e-11    2.096428e-09   -2.758946e+00
    2.318846e+00    5.957735e+00    3.602489e+01    5.852455e+09    2.271729e-09    5.098935e-11    2.095794e-09   -2.753946e+00
    2.342743e+00    6.133742e+00    3.560749e+01    5.848441e+09    2.270106e-09    4.926039e-11    2.095133e-09   -2.748946e+00
    2.366868e+00    6.315129e+00    3.519071e+01    5.843624e+09    2.268505e-09    4.758400e-11    2.094446e-09   -2.743946e+00
    2.391220e+00    6.501920e+00    3.477459e+01    5.837999e+09    2.266928e-09    4.595877e-11    2.093733e-09   -2.738946e+00
    2.415802e+00    6.694127e+00    3.435919e+01    5.831563e+09    2.265372e-09    4.438340e-11    2.092994e-09   -2.733946e+00
    2.440612e+00    6.891745e+00    3.394456e+01    5.824305e+09    2.263836e-09    4.285652e-11    2.092231e-09   -2.728946e+00
    2.465654e+00    7.094770e+00    3.353075e+01    5.816231e+09    2.262320e-09    4.137685e-11    2.091442e-09   -2.723946e+00
    2.490929e+00    7.303169e+00    3.311782e+01    5.807333e+09    2.260823e-09    3.994306e-11    2.090629e-09   -2.718946e+00
    2.516440e+00    7.516915e+00    3.270583e+01    5.797616e+09    2.259344e-09    3.855390e-11    2.089791e-09   -2.713946e+00
    2.542188e+00    7.735956e+00    3.229482e+01    5.787079e+09    2.257882e-09    3.720810e-11    2.088929e-09   -2.708946e+00
    2.568180e+00    7.960253e+00    3.188486e+01    5.775731e+09    2.256436e-09    3.590442e-11    2.088044e-09   -2.703946e+00
    2.594418e+00    8.189735e+00    3.147598e+01    5.763571e+09    2.255006e-09    3.464166e-11    2.087134e-09   -2.698946e+00
    2.620908e+00    8.424335e+00    3.106826e+01    5.750610e+09    2.253590e-09    3.341863e-11    2.086201e-09   -2.693946e+00
    2.647656e+00    8.663984e+00    3.066173e+01    5.736853e+09    2.252188e-09    3.223416e-11    2.085244e-09   -2.688946e+00
    2.674666e+00    8.908600e+00    3.025646e+01    5.722307e+09    2.250798e-09    3.108710e-11    2.084265e-09   -2.683946e+00
    2.701948e+00    9.158113e+00    2.985249e+01    5.706987e+09    2.249421e-09    2.997634e-11    2.083262e-09   -2.678946e+00
    2.729506e+00    9.412429e+00    2.944987e+01    5.690900e+09    2.248054e-09    2.890078e-11    2.082237e-09   -2.673946e+00
    2.757350e+00    9.671473e+00    2.904866e+01    5.674058e+09    2.246697e-09    2.785937e-11    2.081187e-09   -2.668946e+00
    2.785488e+00    9.935161e+00    2.864892e+01    5.656471e+09    2.245350e-09    2.685105e-11    2.080116e-09   -2.663946e+00
    2.813930e+00    1.020342e+01    2.825067e+01    5.638158e+09    2.244011e-09    2.587480e-11    2.079020e-09   -2.658946e+00
    2.842686e+00    1.047617e+01    2.785398e+01    5.619131e+09    2.242678e-09    2.492964e-11    2.077902e-09   -2.653946e+00
    2.871763e+00    1.075334e+01    2.745889e+01    5.599395e+09    2.241354e-09    2.401459e-11    2.076761e-09   -2.648946e+00
    2.901174e+00    1.103486e+01    2.706544e+01    5.578973e+09    2.240034e-09    2.312873e-11    2.075596e-09   -2.643946e+00
    2.930932e+00    1.132067e+01    2.667369e+01    5.557879e+09    2.238720e-09    2.227113e-11    2.074409e-09   -2.638946e+00
    2.961046e+00    1.161072e+01    2.628367e+01    5.536122e+09    2.237410e-09    2.144089e-11    2.073197e-09   -2.633946e+00
    2.991528e+00    1.190496e+01    2.589543e+01    5.513719e+09    2.236103e-09    2.063715e-11    2.071963e-09   -2.628946e+00
    3.022393e+00    1.220335e+01    2.550901e+01    5.490684e+09    2.234798e-09    1.985907e-11    2.070704e-09   -2.623946e+00
    3.053652e+00    1.250585e+01    2.512446e+01    5.467032e+09    2.233494e-09    1.910583e-11    2.069421e-09   -2.618946e+00
    3.085320e+00    1.281245e+01    2.474181e+01    5.442776e+09    2.232191e-09    1.837664e-11    2.068114e-09   -2.613946e+00
    3.117410e+00    1.312312e+01    2.436111e+01    5.417930e+09    2.230887e-09    1.767071e-11    2.066782e-09   -2.608946e+00
    3.149934e+00    1.343786e+01    2.398239e+01    5.392503e+09    2.229583e-09    1.698731e-11    2.065425e-09   -2.603946e+00
    3.182913e+00    1.375667e+01    2.360569e+01    5.366518e+09    2.228276e-09    1.632571e-11    2.064043e-09   -2.598946e+00
    3.216357e+00    1.407955e+01    2.323105e+01    5.339980e+09    2.226966e-09    1.568520e-11    2.062636e-09   -2.593946e+00
    3.250284e+00    1.440653e+01    2.285851e+01    5.312906e+09    2.225652e-09    1.506510e-11    2.061202e-09   -2.588946e+00
    3.284711e+00    1.473764e+01    2.248810e+01    5.285306e+09    2.224334e-09    1.446475e-11    2.059742e-09   -2.583946e+00
    3.319652e+00    1.507289e+01    2.211985e+01    5.257191e+09    2.223009e-09    1.388350e-11    2.058254e-09   -2.578946e+00
    3.355126e+00    1.541234e+01    2.175380e+01    5.228574e+09    2.221677e-09    1.332074e-11    2.056739e-09   -2.573946e+00
    3.391151e+00    1.575603e+01    2.139000e+01    5.199467e+09    2.220338e-09    1.277587e-11    2.055196e-09   -2.568946e+00
    3.427744e+00    1.610402e+01    2.102845e+01    5.169880e+09    2.218990e-09    1.224829e-11    2.053624e-09   -2.563946e+00
    3.464925e+00    1.645636e+01    2.066921e+01    5.139823e+09    2.217633e-09    1.173746e-11    2.052023e-09   -2.558946e+00
    3.502712e+00    1.681313e+01    2.031229e+01    5.109305e+09    2.216264e-09    1.124282e-11    2.050393e-09   -2.553946e+00
    3.541126e+00    1.717441e+01    1.995773e+01    5.078339e+09    2.214885e-09    1.076384e-11    2.048731e-09   -2.548946e+00
    3.580189e+00    1.754027e+01    1.960557e+01    5.046934e+09    2.213492e-09    1.030003e-11    2.047038e-09   -2.543946e+00
    3.619918e+00    1.791080e+01    1.925583e+01    5.015094e+09    2.212086e-09    9.850875e-12    2.045313e-09   -2.538946e+00
    3.660336e+00    1.828610e+01    1.890854e+01    4.982831e+09    2.210665e-09    9.415910e-12    2.043555e-09   -2.533946e+00
    3.701470e+00    1.866627e+01    1.856372e+01    4.950156e+09    2.209227e-09    8.994670e-12    2.041763e-09   -2.528946e+00
    3.743338e+00    1.905140e+01    1.822141e+01    4.917073e+09    2.207774e-09    8.586715e-12    2.039936e-09   -2.523946e+00
    3.785964e+00    1.944161e+01    1.788164e+01    4.883589e+09    2.206302e-09    8.191605e-12    2.038074e-09   -2.518946e+00
    3.829378e+00    1.983702e+01    1.754443e+01    4.849716e+09    2.204811e-09    7.808930e-12    2.036174e-09   -2.513946e+00
    3.873600e+00    2.023774e+01    1.720980e+01    4.815457e+09    2.203298e-09    7.438290e-12    2.034237e-09   -2.508946e+00
    3.918656e+00    2.064390e+01    1.687780e+01    4.780817e+09    2.201766e-09    7.079295e-12    2.032261e-09   -2.503946e+00
    3.964582e+00    2.105563e+01    1.654843e+01    4.745810e+09    2.200209e-09    6.731565e-12    2.030244e-09   -2.498946e+00
    4.011394e+00    2.147305e+01    1.622173e+01    4.710432e+09    2.198628e-09    6.394745e-12    2.028188e-09   -2.493946e+00
    4.059132e+00    2.189633e+01    1.589772e+01    4.674698e+09    2.197023e-09    6.068480e-12    2.026088e-09   -2.488946e+00
    4.107819e+00    2.232558e+01    1.557643e+01    4.638607e+09    2.195390e-09    5.752440e-12    2.023944e-09   -2.483946e+00
    4.157491e+00    2.276097e+01    1.525788e+01    4.602168e+09    2.193730e-09    5.446290e-12    2.021755e-09   -2.478946e+00
    4.208178e+00    2.320263e+01    1.494210e+01    4.565385e+09    2.192040e-09    5.149720e-12    2.019520e-09   -2.473946e+00
    4.259915e+00    2.365072e+01    1.462910e+01    4.528259e+09    2.190318e-09    4.862426e-12    2.017237e-09   -2.468946e+00
    4.312736e+00    2.410542e+01    1.431892e+01    4.490798e+09    2.188566e-09    4.584116e-12    2.014903e-09   -2.463946e+00
    4.366681e+00    2.456688e+01    1.401157e+01    4.453010e+09    2.186778e-09    4.314505e-12    2.012519e-09   -2.458946e+00
    4.421784e+00    2.503526e+01    1.370708e+01    4.414892e+09    2.184955e-09    4.053320e-12    2.010082e-09   -2.453946e+00
    4.478087e+00    2.551076e+01    1.340548e+01    4.376454e+09    2.183095e-09    3.800300e-12    2.007590e-09   -2.448946e+00
    4.535630e+00    2.599353e+01    1.310678e+01    4.337694e+09    2.181196e-09    3.555190e-12    2.005042e-09   -2.443946e+00
    4.594454e+00    2.648375e+01    1.281101e+01    4.298618e+09    2.179257e-09    3.317744e-12    2.002435e-09   -2.438946e+00
    4.654603e+00    2.698161e+01    1.251819e+01    4.259226e+09    2.177277e-09    3.087726e-12    1.999768e-09   -2.433946e+00
    4.716125e+00    2.748731e+01    1.222834e+01    4.219526e+09    2.175252e-09    2.864907e-12    1.997039e-09   -2.428946e+00
    4.779062e+00    2.800100e+01    1.194150e+01    4.179514e+09    2.173180e-09    2.649070e-12    1.994246e-09   -2.423946e+00
    4.843472e+00    2.852292e+01    1.165766e+01    4.139197e+09    2.171062e-09    2.440001e-12    1.991386e-09   -2.418946e+00
    4.909402e+00    2.905326e+01    1.137687e+01    4.098576e+09    2.168894e-09    2.237496e-12    1.988458e-09   -2.413946e+00
    4.976904e+00    2.959219e+01    1.109913e+01    4.057651e+09    2.166674e-09    2.041357e-12    1.985458e-09   -2.408946e+00
    5.046035e+00    3.013996e+01    1.082448e+01    4.016426e+09    2.164401e-09    1.851395e-12    1.982385e-09   -2.403946e+00
    5.116854e+00    3.069674e+01    1.055293e+01    3.974899e+09    2.162072e-09    1.667426e-12    1.979235e-09   -2.398946e+00
    5.189416e+00    3.126274e+01    1.028451e+01    3.933073e+09    2.159684e-09    1.489275e-12    1.976007e-09   -2.393946e+00
    5.263790e+00    3.183821e+01    1.001924e+01    3.890949e+09    2.157237e-09    1.316770e-12    1.972698e-09   -2.388946e+00
    5.340036e+00    3.242330e+01    9.757125e+00    3.848523e+09    2.154727e-09    1.149749e-12    1.969305e-09   -2.383946e+00
    5.418224e+00    3.301827e+01    9.498205e+00    3.805798e+09    2.152151e-09    9.880530e-13    1.965824e-09   -2.378946e+00
    5.498420e+00    3.362332e+01    9.242500e+00    3.762775e+09    2.149509e-09    8.315305e-13    1.962254e-09   -2.373946e+00
    5.580696e+00    3.423865e+01    8.990025e+00    3.719448e+09    2.146797e-09    6.800345e-13    1.958591e-09   -2.368946e+00
    5.665139e+00    3.486453e+01    8.740800e+00    3.675824e+09    2.144011e-09    5.334240e-13    1.954832e-09   -2.363946e+00
    5.751816e+00    3.550111e+01    8.494850e+00    3.631897e+09    2.141151e-09    3.915637e-13    1.950973e-09   -2.358946e+00
    5.840809e+00    3.614863e+01    8.252200e+00    3.587665e+09    2.138213e-09    2.543225e-13    1.947012e-09   -2.353946e+00
    5.932204e+00    3.680731e+01    8.012865e+00    3.543126e+09    2.135195e-09    1.215746e-13    1.942945e-09   -2.348946e+00
    6.026092e+00    3.747733e+01    7.776865e+00    3.498280e+09    2.132092e-09    6.800730e-15    1.938767e-09   -2.343946e+00
    6.122555e+00    3.815889e+01    7.544230e+00    3.453122e+09    2.128903e-09    1.309202e-13    1.934477e-09   -2.338946e+00
    6.221692e+00    3.885220e+01    7.314975e+00    3.407651e+09    2.125624e-09    2.508957e-13    1.930069e-09   -2.333946e+00
    6.323602e+00    3.955744e+01    7.089120e+00    3.361861e+09    2.122253e-09    3.668351e-13    1.925541e-09   -2.328946e+00
    6.428374e+00    4.027476e+01    6.866695e+00    3.315752e+09    2.118786e-09    4.788418e-13    1.920887e-09   -2.323946e+00
    6.536125e+00    4.100437e+01    6.647710e+00    3.269318e+09    2.115219e-09    5.870155e-13    1.916104e-09   -2.318946e+00
    6.646947e+00    4.174638e+01    6.432200e+00    3.222556e+09    2.111550e-09    6.914515e-13    1.911188e-09   -2.313946e+00
    6.760959e+00    4.250093e+01    6.220175e+00    3.175461e+09    2.107775e-09    7.922425e-13    1.906135e-09   -2.308946e+00
    6.878272e+00    4.326812e+01    6.011660e+00    3.128029e+09    2.103891e-09    8.894760e-13    1.900939e-09   -2.303946e+00
    6.998990e+00    4.404807e+01    5.806685e+00    3.080255e+09    2.099893e-09    9.832370e-13    1.895597e-09   -2.298946e+00
    7.123245e+00    4.484085e+01    5.605260e+00    3.032133e+09    2.095779e-09    1.073607e-12    1.890104e-09   -2.293946e+00
    7.251146e+00    4.564647e+01    5.407415e+00    2.983660e+09    2.091545e-09    1.160664e-12    1.884455e-09   -2.288946e+00
    7.382825e+00    4.646497e+01    5.213165e+00    2.934831e+09    2.087186e-09    1.244483e-12    1.878646e-09   -2.283946e+00
    7.518394e+00    4.729627e+01    5.022540e+00    2.885639e+09    2.082700e-09    1.325136e-12    1.872671e-09   -2.278946e+00
    7.657979e+00    4.814035e+01    4.835561e+00    2.836080e+09    2.078082e-09    1.402692e-12    1.866525e-09   -2.273946e+00
    7.801712e+00    4.899707e+01    4.652243e+00    2.786151e+09    2.073327e-09    1.477217e-12    1.860205e-09   -2.268946e+00
    7.949716e+00    4.986628e+01    4.472613e+00    2.735846e+09    2.068433e-09    1.548775e-12    1.853703e-09   -2.263946e+00
    8.102117e+00    5.074774e+01    4.296690e+00    2.685161e+09    2.063395e-09    1.617426e-12    1.847015e-09   -2.258946e+00
    8.259037e+00    5.164117e+01    4.124497e+00    2.634093e+09    2.058209e-09    1.683228e-12    1.840137e-09   -2.253946e+00
    8.420600e+00    5.254620e+01    3.956053e+00    2.582639e+09    2.052871e-09    1.746238e-12    1.833062e-09   -2.248946e+00
    8.586924e+00    5.346248e+01    3.791380e+00    2.530797e+09    2.047377e-09    1.806508e-12    1.825784e-09   -2.243946e+00
    8.758122e+00    5.438939e+01    3.630497e+00    2.478567e+09    2.041722e-09    1.864090e-12    1.818300e-09   -2.238946e+00
    8.934302e+00    5.532641e+01    3.473423e+00    2.425949e+09    2.035902e-09    1.919035e-12    1.810602e-09   -2.233946e+00
    9.115565e+00    5.627286e+01    3.320177e+00    2.372945e+09    2.029913e-09    1.971388e-12    1.802687e-09   -2.228946e+00
    9.302002e+00    5.722783e+01    3.170776e+00    2.319558e+09    2.023751e-09    2.021194e-12    1.794547e-09   -2.223946e+00
    9.493694e+00    5.819053e+01    3.025237e+00    2.265793e+09    2.017411e-09    2.068498e-12    1.786177e-09   -2.218946e+00
    9.690707e+00    5.915987e+01    2.883574e+00    2.211661e+09    2.010890e-09    2.113340e-12    1.777572e-09   -2.213946e+00
    9.893090e+00    6.013469e+01    2.745803e+00    2.157169e+09    2.004182e-09    2.155761e-12    1.768727e-09   -2.208946e+00
    1.010088e+01    6.111370e+01    2.611933e+00    2.102332e+09    1.997285e-09    2.195798e-12    1.759635e-09   -2.203946e+00
    1.031408e+01    6.209547e+01    2.481977e+00    2.047166e+09    1.990194e-09    2.233491e-12    1.750293e-09   -2.198946e+00
    1.053268e+01    6.307840e+01    2.355943e+00    1.991692e+09    1.982904e-09    2.268872e-12    1.740694e-09   -2.193946e+00
    1.075665e+01    6.406077e+01    2.233834e+00    1.935934e+09    1.975412e-09    2.301978e-12    1.730832e-09   -2.188946e+00
    1.098591e+01    6.504065e+01    2.115657e+00    1.879920e+09    1.967715e-09    2.332842e-12    1.720703e-09   -2.183946e+00
    1.122035e+01    6.601598e+01    2.001410e+00    1.823682e+09    1.959808e-09    2.361495e-12    1.710302e-09   -2.178946e+00
    1.145983e+01    6.698455e+01    1.891091e+00    1.767259e+09    1.951688e-09    2.387968e-12    1.699624e-09   -2.173946e+00
    1.170417e+01    6.794397e+01    1.784692e+00    1.710694e+09    1.943351e-09    2.412294e-12    1.688665e-09   -2.168946e+00
    1.195312e+01    6.889170e+01    1.682203e+00    1.654036e+09    1.934795e-09    2.434501e-12    1.677420e-09   -2.163946e+00
    1.220642e+01    6.982502e+01    1.583610e+00    1.597338e+09    1.926017e-09    2.454617e-12    1.665884e-09   -2.158946e+00
    1.246374e+01    7.074111e+01    1.488894e+00    1.540661e+09    1.917012e-09    2.472672e-12    1.654054e-09   -2.153946e+00
    1.272467e+01    7.163696e+01    1.398030e+00    1.484071e+09    1.907780e-09    2.488694e-12    1.641926e-09   -2.148946e+00
    1.298877e+01    7.250951e+01    1.310989e+00    1.427639e+09    1.898316e-09    2.502711e-12    1.629497e-09   -2.143946e+00
    1.325555e+01    7.335559e+01    1.227736e+00    1.371444e+09    1.888621e-09    2.514749e-12    1.616764e-09   -2.138946e+00
    1.352443e+01    7.417192e+01    1.148231e+00    1.315568e+09    1.878691e-09    2.524838e-12    1.603723e-09   -2.133946e+00
    1.379480e+01    7.495522e+01    1.072427e+00    1.260098e+09    1.868526e-09    2.533004e-12    1.590374e-09   -2.128946e+00
    1.406595e+01    7.570222e+01    1.000273e+00    1.205128e+09    1.858124e-09    2.539274e-12    1.576713e-09   -2.123946e+00
    1.433716e+01    7.640967e+01    9.317090e-01    1.150755e+09    1.847483e-09    2.543677e-12    1.562740e-09   -2.118946e+00
    1.460763e+01    7.707434e+01    8.666695e-01    1.097077e+09    1.836607e-09    2.546242e-12    1.548454e-09   -2.113946e+00
    1.487650e+01    7.769320e+01    8.050840e-01    1.044196e+09    1.825492e-09    2.546995e-12    1.533854e-09   -2.108946e+00
    1.514289e+01    7.826337e+01    7.468745e-01    9.922153e+08    1.814140e-09    2.545968e-12    1.518941e-09   -2.103946e+00
    1.540592e+01    7.878223e+01    6.919565e-01    9.412366e+08    1.802552e-09    2.543189e-12    1.503716e-09   -2.098946e+00
    1.566460e+01    7.924733e+01    6.402415e-01    8.913605e+08    1.790729e-09    2.538688e-12    1.488178e-09   -2.093946e+00
    1.591804e+01    7.965666e+01    5.916330e-01    8.426859e+08    1.778675e-09    2.532498e-12    1.472332e-09   -2.088946e+00
    1.616530e+01    8.000849e+01    5.460305e-01    7.953057e+08    1.766390e-09    2.524649e-12    1.456179e-09   -2.083946e+00
    1.640544e+01    8.030167e+01    5.033295e-01    7.493087e+08    1.753879e-09    2.515176e-12    1.439723e-09   -2.078946e+00
    1.663761e+01    8.053534e+01    4.634201e-01    7.047760e+08    1.741144e-09    2.504112e-12    1.422968e-09   -2.073946e+00
    1.686098e+01    8.070927e+01    4.261893e-01    6.617806e+08    1.728190e-09    2.491493e-12    1.405919e-09   -2.068946e+00
