# sky130 pfet_01v8 gm/ID Processed Lookup Table
# Corner: sf
# Temperature: 0C
# W = 2.0 um
# L = 4.5 um (4500 nm)
# Columns: gm/id [1/V]  gm/gds [V/V]  id/W [A/m]  ft [Hz]  Cgg/W [F/m]  Cgd/W [F/m]  Cgs/W [F/m]  Vov [V]
#         gm/id          gm/gds            id/W              ft           Cgg/W           Cgd/W           Cgs/W             Vov
    2.545917e+00    1.177329e+01    3.628541e+00    5.856058e+07    2.510679e-08    1.382578e-09    2.361378e-08   -2.890685e+00
    2.570727e+00    1.237568e+01    3.582422e+00    5.846818e+07    2.506878e-08    1.336439e-09    2.360949e-08   -2.885685e+00
    2.595683e+00    1.301611e+01    3.536449e+00    5.836503e+07    2.503148e-08    1.291560e-09    2.360473e-08   -2.880685e+00
    2.620784e+00    1.369677e+01    3.490630e+00    5.825117e+07    2.499485e-08    1.247932e-09    2.359948e-08   -2.875685e+00
    2.646028e+00    1.441992e+01    3.444970e+00    5.812657e+07    2.495889e-08    1.205540e-09    2.359376e-08   -2.870685e+00
    2.671412e+00    1.518783e+01    3.399477e+00    5.799125e+07    2.492359e-08    1.164372e-09    2.358758e-08   -2.865685e+00
    2.696941e+00    1.600291e+01    3.354158e+00    5.784533e+07    2.488896e-08    1.124411e-09    2.358094e-08   -2.860685e+00
    2.722612e+00    1.686753e+01    3.309020e+00    5.768883e+07    2.485498e-08    1.085642e-09    2.357385e-08   -2.855685e+00
    2.748430e+00    1.778419e+01    3.264069e+00    5.752198e+07    2.482163e-08    1.048045e-09    2.356631e-08   -2.850685e+00
    2.774396e+00    1.875535e+01    3.219311e+00    5.734480e+07    2.478892e-08    1.011601e-09    2.355833e-08   -2.845685e+00
    2.800518e+00    1.978359e+01    3.174754e+00    5.715758e+07    2.475681e-08    9.762910e-10    2.354993e-08   -2.840685e+00
    2.826799e+00    2.087144e+01    3.130404e+00    5.696048e+07    2.472530e-08    9.420930e-10    2.354110e-08   -2.835685e+00
    2.853244e+00    2.202148e+01    3.086266e+00    5.675369e+07    2.469439e-08    9.089855e-10    2.353185e-08   -2.830685e+00
    2.879864e+00    2.323633e+01    3.042347e+00    5.653748e+07    2.466405e-08    8.769450e-10    2.352218e-08   -2.825685e+00
    2.906666e+00    2.451857e+01    2.998652e+00    5.631210e+07    2.463427e-08    8.459495e-10    2.351211e-08   -2.820685e+00
    2.933658e+00    2.587082e+01    2.955188e+00    5.607779e+07    2.460503e-08    8.159740e-10    2.350164e-08   -2.815685e+00
    2.960852e+00    2.729568e+01    2.911959e+00    5.583487e+07    2.457631e-08    7.869955e-10    2.349077e-08   -2.810685e+00
    2.988258e+00    2.879573e+01    2.868971e+00    5.558357e+07    2.454810e-08    7.589890e-10    2.347951e-08   -2.805685e+00
    3.015888e+00    3.037355e+01    2.826229e+00    5.532424e+07    2.452038e-08    7.319300e-10    2.346786e-08   -2.800685e+00
    3.043754e+00    3.203170e+01    2.783737e+00    5.505711e+07    2.449314e-08    7.057940e-10    2.345584e-08   -2.795685e+00
    3.071870e+00    3.377271e+01    2.741499e+00    5.478251e+07    2.446635e-08    6.805565e-10    2.344343e-08   -2.790685e+00
    3.100246e+00    3.559907e+01    2.699523e+00    5.450069e+07    2.444001e-08    6.561920e-10    2.343065e-08   -2.785685e+00
    3.128901e+00    3.751328e+01    2.657809e+00    5.421199e+07    2.441408e-08    6.326760e-10    2.341751e-08   -2.780685e+00
    3.157843e+00    3.951776e+01    2.616363e+00    5.391664e+07    2.438855e-08    6.099840e-10    2.340399e-08   -2.775685e+00
    3.187093e+00    4.161495e+01    2.575190e+00    5.361499e+07    2.436340e-08    5.880915e-10    2.339011e-08   -2.770685e+00
    3.216663e+00    4.380720e+01    2.534291e+00    5.330724e+07    2.433862e-08    5.669745e-10    2.337588e-08   -2.765685e+00
    3.246568e+00    4.609687e+01    2.493672e+00    5.299371e+07    2.431418e-08    5.466095e-10    2.336128e-08   -2.760685e+00
    3.276825e+00    4.848623e+01    2.453333e+00    5.267460e+07    2.429007e-08    5.269725e-10    2.334633e-08   -2.755685e+00
    3.307452e+00    5.097760e+01    2.413281e+00    5.235023e+07    2.426627e-08    5.080405e-10    2.333102e-08   -2.750685e+00
    3.338462e+00    5.357319e+01    2.373517e+00    5.202079e+07    2.424275e-08    4.897906e-10    2.331535e-08   -2.745685e+00
    3.369874e+00    5.627520e+01    2.334043e+00    5.168654e+07    2.421950e-08    4.722006e-10    2.329933e-08   -2.740685e+00
    3.401704e+00    5.908582e+01    2.294863e+00    5.134768e+07    2.419650e-08    4.552486e-10    2.328294e-08   -2.735685e+00
    3.433970e+00    6.200722e+01    2.255979e+00    5.100444e+07    2.417374e-08    4.389131e-10    2.326621e-08   -2.730685e+00
    3.466691e+00    6.504155e+01    2.217394e+00    5.065704e+07    2.415118e-08    4.231732e-10    2.324912e-08   -2.725685e+00
    3.499883e+00    6.819087e+01    2.179110e+00    5.030566e+07    2.412882e-08    4.080083e-10    2.323167e-08   -2.720685e+00
    3.533567e+00    7.145733e+01    2.141129e+00    4.995049e+07    2.410663e-08    3.933986e-10    2.321385e-08   -2.715685e+00
    3.567759e+00    7.484301e+01    2.103452e+00    4.959169e+07    2.408460e-08    3.793245e-10    2.319567e-08   -2.710685e+00
    3.602479e+00    7.834997e+01    2.066083e+00    4.922946e+07    2.406270e-08    3.657672e-10    2.317712e-08   -2.705685e+00
    3.637747e+00    8.198033e+01    2.029022e+00    4.886394e+07    2.404092e-08    3.527083e-10    2.315820e-08   -2.700685e+00
    3.673583e+00    8.573619e+01    1.992273e+00    4.849531e+07    2.401923e-08    3.401299e-10    2.313890e-08   -2.695685e+00
    3.710008e+00    8.961963e+01    1.955836e+00    4.812369e+07    2.399763e-08    3.280146e-10    2.311923e-08   -2.690685e+00
    3.747042e+00    9.363272e+01    1.919711e+00    4.774923e+07    2.397609e-08    3.163457e-10    2.309916e-08   -2.685685e+00
    3.784706e+00    9.777772e+01    1.883904e+00    4.737206e+07    2.395459e-08    3.051067e-10    2.307870e-08   -2.680685e+00
    3.823019e+00    1.020567e+02    1.848412e+00    4.699225e+07    2.393311e-08    2.942820e-10    2.305784e-08   -2.675685e+00
    3.862013e+00    1.064719e+02    1.813238e+00    4.661004e+07    2.391164e-08    2.838562e-10    2.303657e-08   -2.670685e+00
    3.901700e+00    1.110255e+02    1.778385e+00    4.622543e+07    2.389015e-08    2.738145e-10    2.301490e-08   -2.665685e+00
    3.942109e+00    1.157198e+02    1.743852e+00    4.583855e+07    2.386863e-08    2.641426e-10    2.299280e-08   -2.660685e+00
    3.983266e+00    1.205572e+02    1.709641e+00    4.544954e+07    2.384706e-08    2.548267e-10    2.297026e-08   -2.655685e+00
    4.025195e+00    1.255401e+02    1.675752e+00    4.505847e+07    2.382541e-08    2.458535e-10    2.294729e-08   -2.650685e+00
    4.067918e+00    1.306709e+02    1.642189e+00    4.466540e+07    2.380369e-08    2.372101e-10    2.292387e-08   -2.645685e+00
    4.111467e+00    1.359522e+02    1.608950e+00    4.427046e+07    2.378184e-08    2.288841e-10    2.289998e-08   -2.640685e+00
    4.155866e+00    1.413865e+02    1.576037e+00    4.387368e+07    2.375987e-08    2.208634e-10    2.287562e-08   -2.635685e+00
    4.201143e+00    1.469766e+02    1.543453e+00    4.347517e+07    2.373775e-08    2.131365e-10    2.285078e-08   -2.630685e+00
    4.247329e+00    1.527252e+02    1.511196e+00    4.307499e+07    2.371546e-08    2.056923e-10    2.282543e-08   -2.625685e+00
    4.294457e+00    1.586353e+02    1.479268e+00    4.267321e+07    2.369299e-08    1.985201e-10    2.279957e-08   -2.620685e+00
    4.342553e+00    1.647097e+02    1.447669e+00    4.226986e+07    2.367030e-08    1.916095e-10    2.277320e-08   -2.615685e+00
    4.391652e+00    1.709516e+02    1.416402e+00    4.186503e+07    2.364739e-08    1.849506e-10    2.274627e-08   -2.610685e+00
    4.441791e+00    1.773643e+02    1.385466e+00    4.145878e+07    2.362423e-08    1.785337e-10    2.271880e-08   -2.605685e+00
    4.493002e+00    1.839511e+02    1.354863e+00    4.105115e+07    2.360080e-08    1.723497e-10    2.269075e-08   -2.600685e+00
    4.545315e+00    1.907151e+02    1.324593e+00    4.064214e+07    2.357707e-08    1.663897e-10    2.266211e-08   -2.595685e+00
    4.598778e+00    1.976604e+02    1.294656e+00    4.023185e+07    2.355304e-08    1.606452e-10    2.263287e-08   -2.590685e+00
    4.653426e+00    2.047905e+02    1.265054e+00    3.982032e+07    2.352867e-08    1.551080e-10    2.260300e-08   -2.585685e+00
    4.709295e+00    2.121093e+02    1.235788e+00    3.940754e+07    2.350394e-08    1.497701e-10    2.257249e-08   -2.580685e+00
    4.766429e+00    2.196207e+02    1.206858e+00    3.899354e+07    2.347884e-08    1.446241e-10    2.254131e-08   -2.575685e+00
    4.824874e+00    2.273291e+02    1.178264e+00    3.857841e+07    2.345333e-08    1.396624e-10    2.250944e-08   -2.570685e+00
    4.884675e+00    2.352389e+02    1.150008e+00    3.816213e+07    2.342740e-08    1.348784e-10    2.247687e-08   -2.565685e+00
    4.945878e+00    2.433545e+02    1.122090e+00    3.774475e+07    2.340101e-08    1.302651e-10    2.244356e-08   -2.560685e+00
    5.008529e+00    2.516806e+02    1.094511e+00    3.732626e+07    2.337416e-08    1.258160e-10    2.240951e-08   -2.555685e+00
    5.072683e+00    2.602224e+02    1.067272e+00    3.690672e+07    2.334680e-08    1.215251e-10    2.237467e-08   -2.550685e+00
    5.138388e+00    2.689844e+02    1.040372e+00    3.648608e+07    2.331892e-08    1.173863e-10    2.233903e-08   -2.545685e+00
    5.205704e+00    2.779724e+02    1.013813e+00    3.606442e+07    2.329049e-08    1.133938e-10    2.230256e-08   -2.540685e+00
    5.274682e+00    2.871918e+02    9.875960e-01    3.564170e+07    2.326148e-08    1.095421e-10    2.226523e-08   -2.535685e+00
    5.345386e+00    2.966481e+02    9.617210e-01    3.521796e+07    2.323187e-08    1.058259e-10    2.222702e-08   -2.530685e+00
    5.417873e+00    3.063472e+02    9.361885e-01    3.479316e+07    2.320163e-08    1.022403e-10    2.218788e-08   -2.525685e+00
    5.492209e+00    3.162954e+02    9.109995e-01    3.436733e+07    2.317073e-08    9.878010e-11    2.214781e-08   -2.520685e+00
    5.568463e+00    3.264991e+02    8.861545e-01    3.394047e+07    2.313913e-08    9.544085e-11    2.210675e-08   -2.515685e+00
    5.646697e+00    3.369644e+02    8.616545e-01    3.351256e+07    2.310682e-08    9.221795e-11    2.206468e-08   -2.510685e+00
    5.726986e+00    3.476984e+02    8.375000e-01    3.308359e+07    2.307376e-08    8.910710e-11    2.202157e-08   -2.505685e+00
    5.809404e+00    3.587078e+02    8.136915e-01    3.265357e+07    2.303992e-08    8.610410e-11    2.197738e-08   -2.500685e+00
    5.894030e+00    3.700001e+02    7.902295e-01    3.222245e+07    2.300526e-08    8.320495e-11    2.193207e-08   -2.495685e+00
    5.980942e+00    3.815824e+02    7.671150e-01    3.179023e+07    2.296977e-08    8.040585e-11    2.188561e-08   -2.490685e+00
    6.070220e+00    3.934622e+02    7.443490e-01    3.135689e+07    2.293339e-08    7.770305e-11    2.183796e-08   -2.485685e+00
    6.161952e+00    4.056474e+02    7.219320e-01    3.092241e+07    2.289610e-08    7.509310e-11    2.178908e-08   -2.480685e+00
    6.256232e+00    4.181460e+02    6.998640e-01    3.048675e+07    2.285786e-08    7.257255e-11    2.173893e-08   -2.475685e+00
    6.353142e+00    4.309661e+02    6.781470e-01    3.004989e+07    2.281863e-08    7.013810e-11    2.168747e-08   -2.470685e+00
    6.452783e+00    4.441159e+02    6.567810e-01    2.961179e+07    2.277839e-08    6.778665e-11    2.163465e-08   -2.465685e+00
    6.555256e+00    4.576040e+02    6.357665e-01    2.917242e+07    2.273709e-08    6.551515e-11    2.158043e-08   -2.460685e+00
    6.660655e+00    4.714384e+02    6.151050e-01    2.873175e+07    2.269469e-08    6.332075e-11    2.152477e-08   -2.455685e+00
    6.769089e+00    4.856282e+02    5.947970e-01    2.828972e+07    2.265116e-08    6.120060e-11    2.146761e-08   -2.450685e+00
    6.880668e+00    5.001817e+02    5.748430e-01    2.784630e+07    2.260646e-08    5.915210e-11    2.140892e-08   -2.445685e+00
    6.995500e+00    5.151075e+02    5.552440e-01    2.740145e+07    2.256053e-08    5.717265e-11    2.134863e-08   -2.440685e+00
    7.113698e+00    5.304146e+02    5.360010e-01    2.695510e+07    2.251335e-08    5.525970e-11    2.128671e-08   -2.435685e+00
    7.235374e+00    5.461109e+02    5.171150e-01    2.650722e+07    2.246487e-08    5.341100e-11    2.122310e-08   -2.430685e+00
    7.360658e+00    5.622049e+02    4.985862e-01    2.605776e+07    2.241506e-08    5.162420e-11    2.115774e-08   -2.425685e+00
    7.489662e+00    5.787053e+02    4.804159e-01    2.560668e+07    2.236385e-08    4.989709e-11    2.109059e-08   -2.420685e+00
    7.622511e+00    5.956186e+02    4.626049e-01    2.515390e+07    2.231121e-08    4.822758e-11    2.102159e-08   -2.415685e+00
    7.759330e+00    6.129536e+02    4.451541e-01    2.469939e+07    2.225710e-08    4.661366e-11    2.095069e-08   -2.410685e+00
    7.900246e+00    6.307158e+02    4.280643e-01    2.424310e+07    2.220147e-08    4.505335e-11    2.087782e-08   -2.405685e+00
    8.045385e+00    6.489123e+02    4.113363e-01    2.378497e+07    2.214427e-08    4.354478e-11    2.080293e-08   -2.400685e+00
    8.194871e+00    6.675479e+02    3.949710e-01    2.332497e+07    2.208545e-08    4.208615e-11    2.072596e-08   -2.395685e+00
    8.348834e+00    6.866276e+02    3.789692e-01    2.286307e+07    2.202497e-08    4.067573e-11    2.064685e-08   -2.390685e+00
    8.507393e+00    7.061544e+02    3.633317e-01    2.239920e+07    2.196278e-08    3.931184e-11    2.056555e-08   -2.385685e+00
    8.670672e+00    7.261305e+02    3.480593e-01    2.193336e+07    2.189884e-08    3.799288e-11    2.048199e-08   -2.380685e+00
    8.838788e+00    7.465566e+02    3.331529e-01    2.146551e+07    2.183309e-08    3.671730e-11    2.039611e-08   -2.375685e+00
    9.011853e+00    7.674315e+02    3.186129e-01    2.099565e+07    2.176547e-08    3.548362e-11    2.030785e-08   -2.370685e+00
    9.189974e+00    7.887525e+02    3.044401e-01    2.052378e+07    2.169596e-08    3.429040e-11    2.021714e-08   -2.365685e+00
    9.373243e+00    8.105138e+02    2.906351e-01    2.004990e+07    2.162450e-08    3.313628e-11    2.012393e-08   -2.360685e+00
    9.561752e+00    8.327080e+02    2.771984e-01    1.957403e+07    2.155103e-08    3.201992e-11    2.002815e-08   -2.355685e+00
    9.755577e+00    8.553245e+02    2.641302e-01    1.909623e+07    2.147551e-08    3.094005e-11    1.992975e-08   -2.350685e+00
    9.954773e+00    8.783495e+02    2.514310e-01    1.861656e+07    2.139789e-08    2.989543e-11    1.982866e-08   -2.345685e+00
    1.015939e+01    9.017659e+02    2.391008e-01    1.813509e+07    2.131813e-08    2.888489e-11    1.972481e-08   -2.340685e+00
    1.036944e+01    9.255528e+02    2.271398e-01    1.765195e+07    2.123616e-08    2.790728e-11    1.961815e-08   -2.335685e+00
    1.058494e+01    9.496850e+02    2.155477e-01    1.716726e+07    2.115197e-08    2.696151e-11    1.950861e-08   -2.330685e+00
    1.080585e+01    9.741326e+02    2.043241e-01    1.668119e+07    2.106549e-08    2.604653e-11    1.939615e-08   -2.325685e+00
    1.103212e+01    9.988614e+02    1.934684e-01    1.619395e+07    2.097667e-08    2.516130e-11    1.928069e-08   -2.320685e+00
    1.126366e+01    1.023831e+03    1.829801e-01    1.570576e+07    2.088549e-08    2.430486e-11    1.916219e-08   -2.315685e+00
    1.150035e+01    1.048996e+03    1.728578e-01    1.521690e+07    2.079189e-08    2.347625e-11    1.904058e-08   -2.310685e+00
    1.174201e+01    1.074305e+03    1.631003e-01    1.472769e+07    2.069583e-08    2.267457e-11    1.891582e-08   -2.305685e+00
    1.198845e+01    1.099701e+03    1.537060e-01    1.423848e+07    2.059729e-08    2.189893e-11    1.878786e-08   -2.300685e+00
    1.223939e+01    1.125120e+03    1.446726e-01    1.374969e+07    2.049622e-08    2.114849e-11    1.865665e-08   -2.295685e+00
    1.249454e+01    1.150491e+03    1.359980e-01    1.326174e+07    2.039259e-08    2.042242e-11    1.852214e-08   -2.290685e+00
    1.275352e+01    1.175739e+03    1.276793e-01    1.277516e+07    2.028636e-08    1.971995e-11    1.838429e-08   -2.285685e+00
    1.301590e+01    1.200779e+03    1.197132e-01    1.229048e+07    2.017752e-08    1.904031e-11    1.824306e-08   -2.280685e+00
    1.328119e+01    1.225523e+03    1.120962e-01    1.180828e+07    2.006604e-08    1.838277e-11    1.809842e-08   -2.275685e+00
    1.354886e+01    1.249876e+03    1.048241e-01    1.132922e+07    1.995189e-08    1.774662e-11    1.795034e-08   -2.270685e+00
    1.381828e+01    1.273739e+03    9.789215e-02    1.085396e+07    1.983507e-08    1.713117e-11    1.779879e-08   -2.265685e+00
    1.408878e+01    1.297006e+03    9.129525e-02    1.038324e+07    1.971555e-08    1.653578e-11    1.764376e-08   -2.260685e+00
    1.435961e+01    1.319570e+03    8.502775e-02    9.917792e+06    1.959334e-08    1.595980e-11    1.748521e-08   -2.255685e+00
    1.462996e+01    1.341323e+03    7.908345e-02    9.458420e+06    1.946841e-08    1.540261e-11    1.732315e-08   -2.250685e+00
    1.489899e+01    1.362151e+03    7.345555e-02    9.005912e+06    1.934077e-08    1.486362e-11    1.715757e-08   -2.245685e+00
    1.516578e+01    1.381947e+03    6.813680e-02    8.561097e+06    1.921044e-08    1.434227e-11    1.698847e-08   -2.240685e+00
    1.542938e+01    1.400601e+03    6.311940e-02    8.124791e+06    1.907741e-08    1.383799e-11    1.681585e-08   -2.235685e+00
    1.568882e+01    1.418011e+03    5.839500e-02    7.697804e+06    1.894171e-08    1.335024e-11    1.663974e-08   -2.230685e+00
    1.594307e+01    1.434080e+03    5.395490e-02    7.280943e+06    1.880336e-08    1.287852e-11    1.646016e-08   -2.225685e+00
    1.619114e+01    1.448718e+03    4.978980e-02    6.874971e+06    1.866238e-08    1.242231e-11    1.627713e-08   -2.220685e+00
    1.643201e+01    1.461847e+03    4.589009e-02    6.480622e+06    1.851881e-08    1.198115e-11    1.609069e-08   -2.215685e+00
    1.666472e+01    1.473400e+03    4.224575e-02    6.098573e+06    1.837270e-08    1.155455e-11    1.590088e-08   -2.210685e+00
    1.688829e+01    1.483324e+03    3.884647e-02    5.729438e+06    1.822407e-08    1.114207e-11    1.570776e-08   -2.205685e+00
    1.710187e+01    1.491582e+03    3.568168e-02    5.373767e+06    1.807300e-08    1.074325e-11    1.551141e-08   -2.200685e+00
    1.730465e+01    1.498154e+03    3.274062e-02    5.032028e+06    1.791954e-08    1.035770e-11    1.531186e-08   -2.195685e+00
    1.749589e+01    1.503037e+03    3.001238e-02    4.704591e+06    1.776376e-08    9.984985e-12    1.510922e-08   -2.190685e+00
    1.767503e+01    1.506247e+03    2.748602e-02    4.391754e+06    1.760573e-08    9.624715e-12    1.490356e-08   -2.185685e+00
    1.784155e+01    1.507818e+03    2.515058e-02    4.093703e+06    1.744554e-08    9.276500e-12    1.469499e-08   -2.180685e+00
    1.799512e+01    1.507803e+03    2.299516e-02    3.810532e+06    1.728326e-08    8.939975e-12    1.448361e-08   -2.175685e+00
    1.813556e+01    1.506270e+03    2.100901e-02    3.542240e+06    1.711902e-08    8.614770e-12    1.426953e-08   -2.170685e+00
    1.826282e+01    1.503307e+03    1.918157e-02    3.288734e+06    1.695288e-08    8.300535e-12    1.405288e-08   -2.165685e+00
    1.837702e+01    1.499014e+03    1.750252e-02    3.049826e+06    1.678498e-08    7.996940e-12    1.383378e-08   -2.160685e+00
    1.847844e+01    1.493505e+03    1.596185e-02    2.825253e+06    1.661542e-08    7.703640e-12    1.361238e-08   -2.155685e+00
    1.856752e+01    1.486904e+03    1.454986e-02    2.614668e+06    1.644433e-08    7.420330e-12    1.338883e-08   -2.150685e+00
    1.864481e+01    1.479345e+03    1.325727e-02    2.417663e+06    1.627183e-08    7.146695e-12    1.316327e-08   -2.145685e+00
    1.871107e+01    1.470968e+03    1.207517e-02    2.233771e+06    1.609806e-08    6.882430e-12    1.293588e-08   -2.140685e+00
    1.876711e+01    1.461914e+03    1.099513e-02    2.062474e+06    1.592316e-08    6.627250e-12    1.270682e-08   -2.135685e+00
