# sky130 pfet_01v8 gm/ID Processed Lookup Table
# Corner: sf
# Temperature: 0C
# W = 2.0 um
# L = 0.72 um (720 nm)
# Columns: gm/id [1/V]  gm/gds [V/V]  id/W [A/m]  ft [Hz]  Cgg/W [F/m]  Cgd/W [F/m]  Cgs/W [F/m]  Vov [V]
#         gm/id          gm/gds            id/W              ft           Cgg/W           Cgd/W           Cgs/W             Vov
    2.301491e+00    6.004587e+00    2.218697e+01    1.893106e+09    4.292915e-09    1.527975e-10    4.074014e-09   -2.857152e+00
    2.325176e+00    6.218350e+00    2.193182e+01    1.892395e+09    4.288831e-09    1.479250e-10    4.073258e-09   -2.852152e+00
    2.349088e+00    6.442287e+00    2.167703e+01    1.891416e+09    4.284815e-09    1.431934e-10    4.072438e-09   -2.847152e+00
    2.373228e+00    6.676812e+00    2.142262e+01    1.890168e+09    4.280867e-09    1.385997e-10    4.071557e-09   -2.842152e+00
    2.397586e+00    6.922331e+00    2.116863e+01    1.888641e+09    4.276985e-09    1.341412e-10    4.070615e-09   -2.837152e+00
    2.422158e+00    7.179233e+00    2.091509e+01    1.886829e+09    4.273166e-09    1.298151e-10    4.069612e-09   -2.832152e+00
    2.446941e+00    7.447916e+00    2.066204e+01    1.884729e+09    4.269411e-09    1.256183e-10    4.068552e-09   -2.827152e+00
    2.471930e+00    7.728752e+00    2.040951e+01    1.882336e+09    4.265716e-09    1.215481e-10    4.067433e-09   -2.822152e+00
    2.497125e+00    8.022105e+00    2.015755e+01    1.879648e+09    4.262080e-09    1.176015e-10    4.066257e-09   -2.817152e+00
    2.522517e+00    8.328313e+00    1.990617e+01    1.876658e+09    4.258500e-09    1.137756e-10    4.065025e-09   -2.812152e+00
    2.548104e+00    8.647690e+00    1.965542e+01    1.873365e+09    4.254977e-09    1.100675e-10    4.063737e-09   -2.807152e+00
    2.573887e+00    8.980547e+00    1.940534e+01    1.869769e+09    4.251507e-09    1.064741e-10    4.062396e-09   -2.802152e+00
    2.599862e+00    9.327146e+00    1.915596e+01    1.865868e+09    4.248088e-09    1.029927e-10    4.061001e-09   -2.797152e+00
    2.626028e+00    9.687719e+00    1.890733e+01    1.861661e+09    4.244720e-09    9.962025e-11    4.059553e-09   -2.792152e+00
    2.652386e+00    1.006248e+01    1.865946e+01    1.857149e+09    4.241399e-09    9.635390e-11    4.058053e-09   -2.787152e+00
    2.678935e+00    1.045161e+01    1.841242e+01    1.852335e+09    4.238124e-09    9.319085e-11    4.056501e-09   -2.782152e+00
    2.705677e+00    1.085524e+01    1.816622e+01    1.847219e+09    4.234893e-09    9.012820e-11    4.054899e-09   -2.777152e+00
    2.732616e+00    1.127348e+01    1.792091e+01    1.841804e+09    4.231704e-09    8.716320e-11    4.053246e-09   -2.772152e+00
    2.759754e+00    1.170641e+01    1.767652e+01    1.836096e+09    4.228555e-09    8.429305e-11    4.051543e-09   -2.767152e+00
    2.787095e+00    1.215407e+01    1.743309e+01    1.830096e+09    4.225445e-09    8.151510e-11    4.049792e-09   -2.762152e+00
    2.814645e+00    1.261646e+01    1.719066e+01    1.823811e+09    4.222371e-09    7.882665e-11    4.047992e-09   -2.757152e+00
    2.842409e+00    1.309358e+01    1.694925e+01    1.817245e+09    4.219331e-09    7.622505e-11    4.046144e-09   -2.752152e+00
    2.870395e+00    1.358536e+01    1.670890e+01    1.810405e+09    4.216324e-09    7.370775e-11    4.044247e-09   -2.747152e+00
    2.898611e+00    1.409174e+01    1.646964e+01    1.803296e+09    4.213348e-09    7.127220e-11    4.042304e-09   -2.742152e+00
    2.927064e+00    1.461262e+01    1.623152e+01    1.795925e+09    4.210400e-09    6.891595e-11    4.040313e-09   -2.737152e+00
    2.955765e+00    1.514789e+01    1.599455e+01    1.788299e+09    4.207480e-09    6.663650e-11    4.038275e-09   -2.732152e+00
    2.984723e+00    1.569741e+01    1.575877e+01    1.780424e+09    4.204584e-09    6.443160e-11    4.036189e-09   -2.727152e+00
    3.013950e+00    1.626104e+01    1.552421e+01    1.772309e+09    4.201711e-09    6.229880e-11    4.034058e-09   -2.722152e+00
    3.043458e+00    1.683862e+01    1.529088e+01    1.763960e+09    4.198859e-09    6.023590e-11    4.031879e-09   -2.717152e+00
    3.073257e+00    1.743001e+01    1.505884e+01    1.755385e+09    4.196026e-09    5.824070e-11    4.029653e-09   -2.712152e+00
    3.103361e+00    1.803505e+01    1.482809e+01    1.746590e+09    4.193211e-09    5.631105e-11    4.027381e-09   -2.707152e+00
    3.133782e+00    1.865356e+01    1.459868e+01    1.737584e+09    4.190411e-09    5.444480e-11    4.025062e-09   -2.702152e+00
    3.164536e+00    1.928542e+01    1.437062e+01    1.728374e+09    4.187625e-09    5.263990e-11    4.022695e-09   -2.697152e+00
    3.195636e+00    1.993046e+01    1.414393e+01    1.718966e+09    4.184851e-09    5.089445e-11    4.020282e-09   -2.692152e+00
    3.227096e+00    2.058856e+01    1.391864e+01    1.709369e+09    4.182086e-09    4.920641e-11    4.017820e-09   -2.687152e+00
    3.258933e+00    2.125959e+01    1.369477e+01    1.699588e+09    4.179329e-09    4.757397e-11    4.015311e-09   -2.682152e+00
    3.291161e+00    2.194346e+01    1.347234e+01    1.689631e+09    4.176578e-09    4.599528e-11    4.012753e-09   -2.677152e+00
    3.323798e+00    2.264007e+01    1.325138e+01    1.679503e+09    4.173831e-09    4.446857e-11    4.010146e-09   -2.672152e+00
    3.356858e+00    2.334935e+01    1.303190e+01    1.669212e+09    4.171086e-09    4.299211e-11    4.007490e-09   -2.667152e+00
    3.390359e+00    2.407124e+01    1.281392e+01    1.658764e+09    4.168342e-09    4.156423e-11    4.004785e-09   -2.662152e+00
    3.424319e+00    2.480575e+01    1.259747e+01    1.648164e+09    4.165596e-09    4.018332e-11    4.002028e-09   -2.657152e+00
    3.458756e+00    2.555283e+01    1.238255e+01    1.637418e+09    4.162847e-09    3.884780e-11    3.999220e-09   -2.652152e+00
    3.493685e+00    2.631253e+01    1.216919e+01    1.626532e+09    4.160091e-09    3.755615e-11    3.996360e-09   -2.647152e+00
    3.529127e+00    2.708486e+01    1.195740e+01    1.615511e+09    4.157329e-09    3.630690e-11    3.993447e-09   -2.642152e+00
    3.565101e+00    2.786990e+01    1.174720e+01    1.604359e+09    4.154556e-09    3.509862e-11    3.990480e-09   -2.637152e+00
    3.601626e+00    2.866774e+01    1.153861e+01    1.593083e+09    4.151773e-09    3.392993e-11    3.987457e-09   -2.632152e+00
    3.638720e+00    2.947848e+01    1.133163e+01    1.581686e+09    4.148976e-09    3.279949e-11    3.984379e-09   -2.627152e+00
    3.676407e+00    3.030227e+01    1.112628e+01    1.570173e+09    4.146164e-09    3.170601e-11    3.981244e-09   -2.622152e+00
    3.714706e+00    3.113926e+01    1.092258e+01    1.558548e+09    4.143334e-09    3.064825e-11    3.978050e-09   -2.617152e+00
    3.753639e+00    3.198963e+01    1.072054e+01    1.546815e+09    4.140484e-09    2.962498e-11    3.974796e-09   -2.612152e+00
    3.793226e+00    3.285359e+01    1.052018e+01    1.534978e+09    4.137613e-09    2.863504e-11    3.971481e-09   -2.607152e+00
    3.833493e+00    3.373138e+01    1.032150e+01    1.523041e+09    4.134718e-09    2.767731e-11    3.968103e-09   -2.602152e+00
    3.874461e+00    3.462323e+01    1.012451e+01    1.511007e+09    4.131796e-09    2.675068e-11    3.964661e-09   -2.597152e+00
    3.916155e+00    3.552943e+01    9.929230e+00    1.498880e+09    4.128847e-09    2.585410e-11    3.961154e-09   -2.592152e+00
    3.958599e+00    3.645028e+01    9.735670e+00    1.486662e+09    4.125867e-09    2.498656e-11    3.957579e-09   -2.587152e+00
    4.001821e+00    3.738611e+01    9.543835e+00    1.474357e+09    4.122853e-09    2.414707e-11    3.953935e-09   -2.582152e+00
    4.045842e+00    3.833723e+01    9.353745e+00    1.461968e+09    4.119805e-09    2.333467e-11    3.950218e-09   -2.577152e+00
    4.090695e+00    3.930405e+01    9.165400e+00    1.449498e+09    4.116719e-09    2.254845e-11    3.946429e-09   -2.572152e+00
    4.136404e+00    4.028694e+01    8.978820e+00    1.436948e+09    4.113593e-09    2.178754e-11    3.942565e-09   -2.567152e+00
    4.183000e+00    4.128629e+01    8.794005e+00    1.424322e+09    4.110424e-09    2.105106e-11    3.938623e-09   -2.562152e+00
    4.230513e+00    4.230260e+01    8.610970e+00    1.411622e+09    4.107210e-09    2.033819e-11    3.934601e-09   -2.557152e+00
    4.278974e+00    4.333624e+01    8.429720e+00    1.398850e+09    4.103949e-09    1.964814e-11    3.930496e-09   -2.552152e+00
    4.328415e+00    4.438775e+01    8.250265e+00    1.386008e+09    4.100636e-09    1.898015e-11    3.926307e-09   -2.547152e+00
    4.378869e+00    4.545760e+01    8.072615e+00    1.373098e+09    4.097271e-09    1.833345e-11    3.922029e-09   -2.542152e+00
    4.430368e+00    4.654633e+01    7.896780e+00    1.360123e+09    4.093849e-09    1.770735e-11    3.917663e-09   -2.537152e+00
    4.482952e+00    4.765451e+01    7.722765e+00    1.347084e+09    4.090368e-09    1.710114e-11    3.913202e-09   -2.532152e+00
    4.536658e+00    4.878270e+01    7.550575e+00    1.333983e+09    4.086826e-09    1.651417e-11    3.908645e-09   -2.527152e+00
    4.591524e+00    4.993146e+01    7.380220e+00    1.320821e+09    4.083217e-09    1.594579e-11    3.903989e-09   -2.522152e+00
    4.647588e+00    5.110145e+01    7.211710e+00    1.307599e+09    4.079542e-09    1.539537e-11    3.899230e-09   -2.517152e+00
    4.704891e+00    5.229330e+01    7.045055e+00    1.294321e+09    4.075794e-09    1.486234e-11    3.894365e-09   -2.512152e+00
    4.763482e+00    5.350775e+01    6.880250e+00    1.280985e+09    4.071972e-09    1.434609e-11    3.889390e-09   -2.507152e+00
    4.823399e+00    5.474534e+01    6.717315e+00    1.267595e+09    4.068071e-09    1.384609e-11    3.884302e-09   -2.502152e+00
    4.884693e+00    5.600698e+01    6.556250e+00    1.254151e+09    4.064089e-09    1.336179e-11    3.879098e-09   -2.497152e+00
    4.947410e+00    5.729330e+01    6.397065e+00    1.240654e+09    4.060021e-09    1.289267e-11    3.873772e-09   -2.492152e+00
    5.011602e+00    5.860511e+01    6.239765e+00    1.227105e+09    4.055863e-09    1.243824e-11    3.868320e-09   -2.487152e+00
    5.077323e+00    5.994325e+01    6.084355e+00    1.213505e+09    4.051613e-09    1.199802e-11    3.862739e-09   -2.482152e+00
    5.144624e+00    6.130850e+01    5.930845e+00    1.199854e+09    4.047267e-09    1.157153e-11    3.857024e-09   -2.477152e+00
    5.213563e+00    6.270177e+01    5.779240e+00    1.186155e+09    4.042818e-09    1.115834e-11    3.851170e-09   -2.472152e+00
    5.284205e+00    6.412396e+01    5.629540e+00    1.172406e+09    4.038265e-09    1.075801e-11    3.845173e-09   -2.467152e+00
    5.356600e+00    6.557598e+01    5.481765e+00    1.158609e+09    4.033601e-09    1.037012e-11    3.839027e-09   -2.462152e+00
    5.430822e+00    6.705880e+01    5.335910e+00    1.144764e+09    4.028824e-09    9.994285e-12    3.832726e-09   -2.457152e+00
    5.506938e+00    6.857341e+01    5.191980e+00    1.130871e+09    4.023928e-09    9.630100e-12    3.826268e-09   -2.452152e+00
    5.585009e+00    7.012083e+01    5.049990e+00    1.116931e+09    4.018909e-09    9.277200e-12    3.819644e-09   -2.447152e+00
    5.665111e+00    7.170212e+01    4.909942e+00    1.102944e+09    4.013761e-09    8.935225e-12    3.812851e-09   -2.442152e+00
    5.747322e+00    7.331838e+01    4.771840e+00    1.088910e+09    4.008479e-09    8.603830e-12    3.805880e-09   -2.437152e+00
    5.831719e+00    7.497072e+01    4.635691e+00    1.074829e+09    4.003059e-09    8.282670e-12    3.798727e-09   -2.432152e+00
    5.918383e+00    7.666032e+01    4.501501e+00    1.060700e+09    3.997495e-09    7.971435e-12    3.791386e-09   -2.427152e+00
    6.007396e+00    7.838834e+01    4.369276e+00    1.046524e+09    3.991781e-09    7.669805e-12    3.783848e-09   -2.422152e+00
    6.098849e+00    8.015601e+01    4.239023e+00    1.032300e+09    3.985912e-09    7.377485e-12    3.776109e-09   -2.417152e+00
    6.192831e+00    8.196460e+01    4.110747e+00    1.018028e+09    3.979882e-09    7.094180e-12    3.768161e-09   -2.412152e+00
    6.289438e+00    8.381540e+01    3.984454e+00    1.003708e+09    3.973686e-09    6.819620e-12    3.759995e-09   -2.407152e+00
    6.388768e+00    8.570970e+01    3.860149e+00    9.893376e+08    3.967316e-09    6.553525e-12    3.751606e-09   -2.402152e+00
    6.490921e+00    8.764886e+01    3.737840e+00    9.749173e+08    3.960767e-09    6.295645e-12    3.742985e-09   -2.397152e+00
    6.596004e+00    8.963426e+01    3.617531e+00    9.604464e+08    3.954032e-09    6.045725e-12    3.734124e-09   -2.392152e+00
    6.704127e+00    9.166726e+01    3.499229e+00    9.459237e+08    3.947104e-09    5.803525e-12    3.725016e-09   -2.387152e+00
    6.815400e+00    9.374932e+01    3.382940e+00    9.313481e+08    3.939978e-09    5.568810e-12    3.715652e-09   -2.382152e+00
    6.929941e+00    9.588183e+01    3.268670e+00    9.167187e+08    3.932644e-09    5.341360e-12    3.706022e-09   -2.377152e+00
    7.047869e+00    9.806630e+01    3.156426e+00    9.020345e+08    3.925097e-09    5.120955e-12    3.696119e-09   -2.372152e+00
    7.169310e+00    1.003041e+02    3.046212e+00    8.872938e+08    3.917330e-09    4.907386e-12    3.685933e-09   -2.367152e+00
    7.294387e+00    1.025967e+02    2.938035e+00    8.724955e+08    3.909334e-09    4.700455e-12    3.675456e-09   -2.362152e+00
    7.423232e+00    1.049456e+02    2.831902e+00    8.576383e+08    3.901101e-09    4.499966e-12    3.664677e-09   -2.357152e+00
    7.555979e+00    1.073522e+02    2.727819e+00    8.427210e+08    3.892625e-09    4.305732e-12    3.653586e-09   -2.352152e+00
    7.692763e+00    1.098180e+02    2.625791e+00    8.277418e+08    3.883897e-09    4.117573e-12    3.642174e-09   -2.347152e+00
    7.833723e+00    1.123442e+02    2.525825e+00    8.126997e+08    3.874908e-09    3.935315e-12    3.630430e-09   -2.342152e+00
    7.978996e+00    1.149322e+02    2.427927e+00    7.975926e+08    3.865652e-09    3.758790e-12    3.618346e-09   -2.337152e+00
    8.128727e+00    1.175833e+02    2.332102e+00    7.824200e+08    3.856119e-09    3.587835e-12    3.605908e-09   -2.332152e+00
    8.283058e+00    1.202988e+02    2.238358e+00    7.671800e+08    3.846300e-09    3.422296e-12    3.593107e-09   -2.327152e+00
    8.442127e+00    1.230795e+02    2.146700e+00    7.518715e+08    3.836187e-09    3.262020e-12    3.579931e-09   -2.322152e+00
    8.606079e+00    1.259266e+02    2.057133e+00    7.364934e+08    3.825771e-09    3.106864e-12    3.566370e-09   -2.317152e+00
    8.775054e+00    1.288410e+02    1.969663e+00    7.210450e+08    3.815044e-09    2.956688e-12    3.552412e-09   -2.312152e+00
    8.949186e+00    1.318232e+02    1.884296e+00    7.055255e+08    3.803995e-09    2.811355e-12    3.538046e-09   -2.307152e+00
    9.128607e+00    1.348737e+02    1.801036e+00    6.899348e+08    3.792616e-09    2.670735e-12    3.523261e-09   -2.302152e+00
    9.313441e+00    1.379930e+02    1.719888e+00    6.742725e+08    3.780898e-09    2.534704e-12    3.508044e-09   -2.297152e+00
    9.503808e+00    1.411809e+02    1.640857e+00    6.585391e+08    3.768833e-09    2.403139e-12    3.492383e-09   -2.292152e+00
    9.699817e+00    1.444372e+02    1.563945e+00    6.427355e+08    3.756409e-09    2.275923e-12    3.476268e-09   -2.287152e+00
    9.901555e+00    1.477613e+02    1.489158e+00    6.268629e+08    3.743619e-09    2.152943e-12    3.459686e-09   -2.282152e+00
    1.010911e+01    1.511524e+02    1.416496e+00    6.109239e+08    3.730452e-09    2.034092e-12    3.442625e-09   -2.277152e+00
    1.032254e+01    1.546088e+02    1.345963e+00    5.949206e+08    3.716901e-09    1.919260e-12    3.425074e-09   -2.272152e+00
    1.054190e+01    1.581291e+02    1.277559e+00    5.788573e+08    3.702955e-09    1.808350e-12    3.407021e-09   -2.267152e+00
    1.076719e+01    1.617107e+02    1.211284e+00    5.627378e+08    3.688606e-09    1.701261e-12    3.388455e-09   -2.262152e+00
    1.099840e+01    1.653507e+02    1.147137e+00    5.465680e+08    3.673845e-09    1.597898e-12    3.369362e-09   -2.257152e+00
    1.123551e+01    1.690459e+02    1.085116e+00    5.303549e+08    3.658664e-09    1.498169e-12    3.349734e-09   -2.252152e+00
    1.147842e+01    1.727921e+02    1.025217e+00    5.141059e+08    3.643053e-09    1.401986e-12    3.329558e-09   -2.247152e+00
    1.172701e+01    1.765844e+02    9.674355e-01    4.978303e+08    3.627005e-09    1.309263e-12    3.308823e-09   -2.242152e+00
    1.198114e+01    1.804174e+02    9.117635e-01    4.815393e+08    3.610512e-09    1.219916e-12    3.287519e-09   -2.237152e+00
    1.224058e+01    1.842845e+02    8.581925e-01    4.652444e+08    3.593565e-09    1.133863e-12    3.265637e-09   -2.232152e+00
    1.250507e+01    1.881791e+02    8.067115e-01    4.489599e+08    3.576159e-09    1.051028e-12    3.243165e-09   -2.227152e+00
    1.277428e+01    1.920927e+02    7.573075e-01    4.327010e+08    3.558285e-09    9.713340e-13    3.220096e-09   -2.222152e+00
    1.304782e+01    1.960170e+02    7.099655e-01    4.164851e+08    3.539939e-09    8.947075e-13    3.196420e-09   -2.217152e+00
    1.332524e+01    1.999419e+02    6.646665e-01    4.003308e+08    3.521113e-09    8.210765e-13    3.172130e-09   -2.212152e+00
    1.360603e+01    2.038572e+02    6.213895e-01    3.842589e+08    3.501802e-09    7.503710e-13    3.147217e-09   -2.207152e+00
    1.388957e+01    2.077513e+02    5.801115e-01    3.682912e+08    3.482003e-09    6.825240e-13    3.121676e-09   -2.202152e+00
    1.417521e+01    2.116123e+02    5.408050e-01    3.524518e+08    3.461710e-09    6.174685e-13    3.095500e-09   -2.197152e+00
    1.446220e+01    2.154272e+02    5.034405e-01    3.367658e+08    3.440920e-09    5.551400e-13    3.068684e-09   -2.192152e+00
    1.474970e+01    2.191827e+02    4.679850e-01    3.212596e+08    3.419631e-09    4.954757e-13    3.041226e-09   -2.187152e+00
    1.503686e+01    2.228647e+02    4.344016e-01    3.059606e+08    3.397842e-09    4.384137e-13    3.013121e-09   -2.182152e+00
    1.532272e+01    2.264590e+02    4.026509e-01    2.908974e+08    3.375551e-09    3.838934e-13    2.984367e-09   -2.177152e+00
    1.560627e+01    2.299511e+02    3.726897e-01    2.760987e+08    3.352759e-09    3.318556e-13    2.954965e-09   -2.172152e+00
    1.588646e+01    2.333264e+02    3.444720e-01    2.615933e+08    3.329466e-09    2.822419e-13    2.924912e-09   -2.167152e+00
    1.616218e+01    2.365702e+02    3.179484e-01    2.474096e+08    3.305675e-09    2.349949e-13    2.894214e-09   -2.162152e+00
    1.643235e+01    2.396691e+02    2.930666e-01    2.335762e+08    3.281389e-09    1.900581e-13    2.862871e-09   -2.157152e+00
    1.669583e+01    2.426094e+02    2.697719e-01    2.201196e+08    3.256612e-09    1.473759e-13    2.830889e-09   -2.152152e+00
    1.695151e+01    2.453788e+02    2.480065e-01    2.070654e+08    3.231351e-09    1.068929e-13    2.798273e-09   -2.147152e+00
    1.719833e+01    2.479661e+02    2.277108e-01    1.944371e+08    3.205612e-09    6.855480e-14    2.765031e-09   -2.142152e+00
    1.743525e+01    2.503615e+02    2.088232e-01    1.822559e+08    3.179402e-09    3.230754e-14    2.731173e-09   -2.137152e+00
    1.766133e+01    2.525568e+02    1.912807e-01    1.705405e+08    3.152732e-09    1.902487e-15    2.696707e-09   -2.132152e+00
    1.787570e+01    2.545455e+02    1.750190e-01    1.593065e+08    3.125611e-09    3.412850e-14    2.661647e-09   -2.127152e+00
    1.807765e+01    2.563235e+02    1.599731e-01    1.485663e+08    3.098052e-09    6.442340e-14    2.626008e-09   -2.122152e+00
    1.826655e+01    2.578886e+02    1.460778e-01    1.383288e+08    3.070069e-09    9.283990e-14    2.589804e-09   -2.117152e+00
    1.844195e+01    2.592411e+02    1.332680e-01    1.285998e+08    3.041675e-09    1.194305e-13    2.553053e-09   -2.112152e+00
    1.860357e+01    2.603835e+02    1.214792e-01    1.193810e+08    3.012888e-09    1.442475e-13    2.515775e-09   -2.107152e+00
    1.875130e+01    2.613210e+02    1.106475e-01    1.106712e+08    2.983724e-09    1.673432e-13    2.477989e-09   -2.102152e+00
