# sky130 pfet_01v8 gm/ID Processed Lookup Table
# Corner: sf
# Temperature: 0C
# W = 2.0 um
# L = 5.94 um (5940 nm)
# Columns: gm/id [1/V]  gm/gds [V/V]  id/W [A/m]  ft [Hz]  Cgg/W [F/m]  Cgd/W [F/m]  Cgs/W [F/m]  Vov [V]
#         gm/id          gm/gds            id/W              ft           Cgg/W           Cgd/W           Cgs/W             Vov
    2.570444e+00    1.289024e+01    2.734524e+00    3.388160e+07    3.301765e-08    1.912010e-09    3.109395e-08   -2.890728e+00
    2.595070e+00    1.357851e+01    2.699438e+00    3.382108e+07    3.296515e-08    1.848192e-09    3.108865e-08   -2.885728e+00
    2.619833e+00    1.431223e+01    2.664474e+00    3.375436e+07    3.291359e-08    1.786084e-09    3.108271e-08   -2.880728e+00
    2.644734e+00    1.509421e+01    2.629635e+00    3.368147e+07    3.286296e-08    1.725675e-09    3.107613e-08   -2.875728e+00
    2.669771e+00    1.592737e+01    2.594928e+00    3.360241e+07    3.281324e-08    1.666951e-09    3.106891e-08   -2.870728e+00
    2.694945e+00    1.681473e+01    2.560358e+00    3.351721e+07    3.276445e-08    1.609898e-09    3.106107e-08   -2.865728e+00
    2.720257e+00    1.775944e+01    2.525930e+00    3.342595e+07    3.271656e-08    1.554495e-09    3.105262e-08   -2.860728e+00
    2.745709e+00    1.876471e+01    2.491648e+00    3.332867e+07    3.266956e-08    1.500724e-09    3.104356e-08   -2.855728e+00
    2.771302e+00    1.983389e+01    2.457518e+00    3.322544e+07    3.262346e-08    1.448562e-09    3.103390e-08   -2.850728e+00
    2.797042e+00    2.097040e+01    2.423544e+00    3.311637e+07    3.257822e-08    1.397985e-09    3.102365e-08   -2.845728e+00
    2.822936e+00    2.217780e+01    2.389732e+00    3.300162e+07    3.253382e-08    1.348966e-09    3.101283e-08   -2.840728e+00
    2.848986e+00    2.345965e+01    2.356086e+00    3.288124e+07    3.249028e-08    1.301480e-09    3.100143e-08   -2.835728e+00
    2.875202e+00    2.481965e+01    2.322609e+00    3.275539e+07    3.244754e-08    1.255499e-09    3.098946e-08   -2.830728e+00
    2.901592e+00    2.626157e+01    2.289307e+00    3.262423e+07    3.240561e-08    1.210992e-09    3.097694e-08   -2.825728e+00
    2.928165e+00    2.778924e+01    2.256184e+00    3.248791e+07    3.236447e-08    1.167929e-09    3.096386e-08   -2.820728e+00
    2.954933e+00    2.940655e+01    2.223244e+00    3.234660e+07    3.232408e-08    1.126278e-09    3.095025e-08   -2.815728e+00
    2.981899e+00    3.111740e+01    2.190490e+00    3.220040e+07    3.228443e-08    1.086010e-09    3.093611e-08   -2.810728e+00
    3.009083e+00    3.292584e+01    2.157927e+00    3.204955e+07    3.224549e-08    1.047089e-09    3.092143e-08   -2.805728e+00
    3.036493e+00    3.483589e+01    2.125557e+00    3.189419e+07    3.220725e-08    1.009484e-09    3.090624e-08   -2.800728e+00
    3.064143e+00    3.685161e+01    2.093385e+00    3.173448e+07    3.216968e-08    9.731610e-10    3.089053e-08   -2.795728e+00
    3.092043e+00    3.897713e+01    2.061414e+00    3.157060e+07    3.213276e-08    9.380865e-10    3.087432e-08   -2.790728e+00
    3.120211e+00    4.121659e+01    2.029647e+00    3.140273e+07    3.209646e-08    9.042275e-10    3.085760e-08   -2.785728e+00
    3.148657e+00    4.357411e+01    1.998085e+00    3.123099e+07    3.206075e-08    8.715490e-10    3.084038e-08   -2.780728e+00
    3.177399e+00    4.605395e+01    1.966735e+00    3.105561e+07    3.202561e-08    8.400190e-10    3.082268e-08   -2.775728e+00
    3.206450e+00    4.866024e+01    1.935596e+00    3.087671e+07    3.199103e-08    8.096030e-10    3.080449e-08   -2.770728e+00
    3.235826e+00    5.139725e+01    1.904672e+00    3.069446e+07    3.195696e-08    7.802685e-10    3.078581e-08   -2.765728e+00
    3.265542e+00    5.426914e+01    1.873965e+00    3.050900e+07    3.192338e-08    7.519820e-10    3.076665e-08   -2.760728e+00
    3.295615e+00    5.728015e+01    1.843477e+00    3.032048e+07    3.189027e-08    7.247115e-10    3.074700e-08   -2.755728e+00
    3.326060e+00    6.043454e+01    1.813212e+00    3.012906e+07    3.185761e-08    6.984255e-10    3.072688e-08   -2.750728e+00
    3.356894e+00    6.373651e+01    1.783169e+00    2.993485e+07    3.182535e-08    6.730915e-10    3.070628e-08   -2.745728e+00
    3.388131e+00    6.719030e+01    1.753353e+00    2.973798e+07    3.179350e-08    6.486790e-10    3.068521e-08   -2.740728e+00
    3.419795e+00    7.080020e+01    1.723764e+00    2.953862e+07    3.176200e-08    6.251570e-10    3.066366e-08   -2.735728e+00
    3.451898e+00    7.457039e+01    1.694404e+00    2.933685e+07    3.173084e-08    6.024970e-10    3.064162e-08   -2.730728e+00
    3.484459e+00    7.850518e+01    1.665276e+00    2.913281e+07    3.170000e-08    5.806685e-10    3.061911e-08   -2.725728e+00
    3.517495e+00    8.260870e+01    1.636379e+00    2.892659e+07    3.166944e-08    5.596435e-10    3.059612e-08   -2.720728e+00
    3.551028e+00    8.688535e+01    1.607716e+00    2.871832e+07    3.163913e-08    5.393945e-10    3.057265e-08   -2.715728e+00
    3.585069e+00    9.133918e+01    1.579289e+00    2.850806e+07    3.160906e-08    5.198935e-10    3.054868e-08   -2.710728e+00
    3.619646e+00    9.597472e+01    1.551098e+00    2.829595e+07    3.157920e-08    5.011150e-10    3.052422e-08   -2.705728e+00
    3.654774e+00    1.007960e+02    1.523145e+00    2.808207e+07    3.154952e-08    4.830324e-10    3.049927e-08   -2.700728e+00
    3.690471e+00    1.058074e+02    1.495431e+00    2.786649e+07    3.151999e-08    4.656211e-10    3.047381e-08   -2.695728e+00
    3.726764e+00    1.110134e+02    1.467957e+00    2.764933e+07    3.149060e-08    4.488569e-10    3.044784e-08   -2.690728e+00
    3.763667e+00    1.164179e+02    1.440724e+00    2.743061e+07    3.146130e-08    4.327160e-10    3.042136e-08   -2.685728e+00
    3.801202e+00    1.220256e+02    1.413733e+00    2.721042e+07    3.143209e-08    4.171755e-10    3.039436e-08   -2.680728e+00
    3.839395e+00    1.278408e+02    1.386985e+00    2.698888e+07    3.140292e-08    4.022134e-10    3.036682e-08   -2.675728e+00
    3.878263e+00    1.338677e+02    1.360482e+00    2.676598e+07    3.137378e-08    3.878082e-10    3.033873e-08   -2.670728e+00
    3.917836e+00    1.401111e+02    1.334223e+00    2.654186e+07    3.134464e-08    3.739391e-10    3.031010e-08   -2.665728e+00
    3.958128e+00    1.465751e+02    1.308210e+00    2.631650e+07    3.131548e-08    3.605860e-10    3.028090e-08   -2.660728e+00
    3.999173e+00    1.532646e+02    1.282443e+00    2.609003e+07    3.128626e-08    3.477296e-10    3.025113e-08   -2.655728e+00
    4.040989e+00    1.601839e+02    1.256923e+00    2.586244e+07    3.125697e-08    3.353510e-10    3.022077e-08   -2.650728e+00
    4.083606e+00    1.673377e+02    1.231650e+00    2.563381e+07    3.122757e-08    3.234323e-10    3.018981e-08   -2.645728e+00
    4.127048e+00    1.747308e+02    1.206627e+00    2.540419e+07    3.119804e-08    3.119559e-10    3.015823e-08   -2.640728e+00
    4.171344e+00    1.823679e+02    1.181852e+00    2.517361e+07    3.116836e-08    3.009051e-10    3.012603e-08   -2.635728e+00
    4.216521e+00    1.902539e+02    1.157328e+00    2.494212e+07    3.113849e-08    2.902635e-10    3.009318e-08   -2.630728e+00
    4.262608e+00    1.983938e+02    1.133054e+00    2.470975e+07    3.110841e-08    2.800156e-10    3.005967e-08   -2.625728e+00
    4.309639e+00    2.067924e+02    1.109031e+00    2.447655e+07    3.107810e-08    2.701462e-10    3.002548e-08   -2.620728e+00
    4.357642e+00    2.154551e+02    1.085259e+00    2.424253e+07    3.104751e-08    2.606409e-10    2.999059e-08   -2.615728e+00
    4.406648e+00    2.243869e+02    1.061739e+00    2.400775e+07    3.101665e-08    2.514857e-10    2.995498e-08   -2.610728e+00
    4.456692e+00    2.335933e+02    1.038472e+00    2.377222e+07    3.098545e-08    2.426670e-10    2.991863e-08   -2.605728e+00
    4.507812e+00    2.430797e+02    1.015458e+00    2.353597e+07    3.095392e-08    2.341722e-10    2.988152e-08   -2.600728e+00
    4.560039e+00    2.528517e+02    9.926970e-01    2.329904e+07    3.092200e-08    2.259885e-10    2.984363e-08   -2.595728e+00
    4.613414e+00    2.629149e+02    9.701905e-01    2.306143e+07    3.088968e-08    2.181042e-10    2.980493e-08   -2.590728e+00
    4.667972e+00    2.732753e+02    9.479385e-01    2.282317e+07    3.085691e-08    2.105075e-10    2.976540e-08   -2.585728e+00
    4.723759e+00    2.839389e+02    9.259410e-01    2.258429e+07    3.082369e-08    2.031877e-10    2.972501e-08   -2.580728e+00
    4.780812e+00    2.949117e+02    9.041990e-01    2.234480e+07    3.078998e-08    1.961339e-10    2.968375e-08   -2.575728e+00
    4.839175e+00    3.062002e+02    8.827130e-01    2.210472e+07    3.075573e-08    1.893359e-10    2.964157e-08   -2.570728e+00
    4.898891e+00    3.178106e+02    8.614835e-01    2.186405e+07    3.072093e-08    1.827839e-10    2.959844e-08   -2.565728e+00
    4.960014e+00    3.297497e+02    8.405100e-01    2.162282e+07    3.068554e-08    1.764685e-10    2.955436e-08   -2.560728e+00
    5.022586e+00    3.420245e+02    8.197940e-01    2.138103e+07    3.064952e-08    1.703807e-10    2.950927e-08   -2.555728e+00
    5.086658e+00    3.546416e+02    7.993355e-01    2.113869e+07    3.061285e-08    1.645116e-10    2.946314e-08   -2.550728e+00
    5.152283e+00    3.676084e+02    7.791350e-01    2.089581e+07    3.057548e-08    1.588530e-10    2.941595e-08   -2.545728e+00
    5.219519e+00    3.809321e+02    7.591925e-01    2.065240e+07    3.053740e-08    1.533968e-10    2.936766e-08   -2.540728e+00
    5.288421e+00    3.946204e+02    7.395085e-01    2.040846e+07    3.049855e-08    1.481354e-10    2.931823e-08   -2.535728e+00
    5.359044e+00    4.086810e+02    7.200840e-01    2.016398e+07    3.045891e-08    1.430613e-10    2.926763e-08   -2.530728e+00
    5.431453e+00    4.231218e+02    7.009190e-01    1.991898e+07    3.041843e-08    1.381673e-10    2.921580e-08   -2.525728e+00
    5.505710e+00    4.379506e+02    6.820140e-01    1.967346e+07    3.037708e-08    1.334467e-10    2.916273e-08   -2.520728e+00
    5.581880e+00    4.531763e+02    6.633695e-01    1.942740e+07    3.033482e-08    1.288928e-10    2.910835e-08   -2.515728e+00
    5.660031e+00    4.688068e+02    6.449860e-01    1.918081e+07    3.029161e-08    1.244996e-10    2.905264e-08   -2.510728e+00
    5.740239e+00    4.848510e+02    6.268635e-01    1.893367e+07    3.024741e-08    1.202607e-10    2.899554e-08   -2.505728e+00
    5.822576e+00    5.013174e+02    6.090025e-01    1.868599e+07    3.020218e-08    1.161705e-10    2.893700e-08   -2.500728e+00
    5.907114e+00    5.182152e+02    5.914040e-01    1.843775e+07    3.015587e-08    1.122235e-10    2.887699e-08   -2.495728e+00
    5.993937e+00    5.355538e+02    5.740680e-01    1.818894e+07    3.010845e-08    1.084141e-10    2.881546e-08   -2.490728e+00
    6.083127e+00    5.533417e+02    5.569950e-01    1.793955e+07    3.005986e-08    1.047374e-10    2.875234e-08   -2.485728e+00
    6.174776e+00    5.715889e+02    5.401850e-01    1.768956e+07    3.001006e-08    1.011883e-10    2.868760e-08   -2.480728e+00
    6.268959e+00    5.903040e+02    5.236395e-01    1.743895e+07    2.995901e-08    9.776210e-11    2.862118e-08   -2.475728e+00
    6.365774e+00    6.094968e+02    5.073585e-01    1.718772e+07    2.990667e-08    9.445435e-11    2.855302e-08   -2.470728e+00
    6.465315e+00    6.291766e+02    4.913426e-01    1.693584e+07    2.985296e-08    9.126060e-11    2.848306e-08   -2.465728e+00
    6.567682e+00    6.493528e+02    4.755920e-01    1.668329e+07    2.979787e-08    8.817665e-11    2.841125e-08   -2.460728e+00
    6.672975e+00    6.700346e+02    4.601074e-01    1.643004e+07    2.974131e-08    8.519855e-11    2.833752e-08   -2.455728e+00
    6.781298e+00    6.912311e+02    4.448893e-01    1.617608e+07    2.968326e-08    8.232235e-11    2.826183e-08   -2.450728e+00
    6.892758e+00    7.129510e+02    4.299383e-01    1.592138e+07    2.962366e-08    7.954435e-11    2.818409e-08   -2.445728e+00
    7.007465e+00    7.352030e+02    4.152549e-01    1.566591e+07    2.956244e-08    7.686100e-11    2.810425e-08   -2.440728e+00
    7.125531e+00    7.579953e+02    4.008396e-01    1.540964e+07    2.949957e-08    7.426885e-11    2.802225e-08   -2.435728e+00
    7.247073e+00    7.813353e+02    3.866932e-01    1.515255e+07    2.943497e-08    7.176465e-11    2.793801e-08   -2.430728e+00
    7.372210e+00    8.052305e+02    3.728159e-01    1.489461e+07    2.936860e-08    6.934520e-11    2.785147e-08   -2.425728e+00
    7.501059e+00    8.296866e+02    3.592086e-01    1.463578e+07    2.930039e-08    6.700745e-11    2.776255e-08   -2.420728e+00
    7.633745e+00    8.547097e+02    3.458717e-01    1.437605e+07    2.923030e-08    6.474850e-11    2.767119e-08   -2.415728e+00
    7.770390e+00    8.803038e+02    3.328058e-01    1.411537e+07    2.915825e-08    6.256550e-11    2.757731e-08   -2.410728e+00
    7.911122e+00    9.064726e+02    3.200115e-01    1.385373e+07    2.908420e-08    6.045585e-11    2.748084e-08   -2.405728e+00
    8.056062e+00    9.332172e+02    3.074895e-01    1.359110e+07    2.900807e-08    5.841680e-11    2.738169e-08   -2.400728e+00
    8.205339e+00    9.605384e+02    2.952402e-01    1.332744e+07    2.892980e-08    5.644600e-11    2.727980e-08   -2.395728e+00
    8.359076e+00    9.884345e+02    2.832642e-01    1.306274e+07    2.884934e-08    5.454100e-11    2.717509e-08   -2.390728e+00
    8.517394e+00    1.016902e+03    2.715621e-01    1.279697e+07    2.876661e-08    5.269950e-11    2.706747e-08   -2.385728e+00
    8.680416e+00    1.045934e+03    2.601344e-01    1.253013e+07    2.868157e-08    5.091925e-11    2.695689e-08   -2.380728e+00
    8.848256e+00    1.075522e+03    2.489815e-01    1.226219e+07    2.859414e-08    4.919813e-11    2.684323e-08   -2.375728e+00
    9.021022e+00    1.105654e+03    2.381040e-01    1.199314e+07    2.850426e-08    4.753412e-11    2.672643e-08   -2.370728e+00
    9.198825e+00    1.136316e+03    2.275022e-01    1.172299e+07    2.841186e-08    4.592522e-11    2.660642e-08   -2.365728e+00
    9.381756e+00    1.167488e+03    2.171765e-01    1.145175e+07    2.831688e-08    4.436954e-11    2.648309e-08   -2.360728e+00
    9.569900e+00    1.199146e+03    2.071274e-01    1.117942e+07    2.821926e-08    4.286525e-11    2.635638e-08   -2.355728e+00
    9.763335e+00    1.231264e+03    1.973548e-01    1.090604e+07    2.811893e-08    4.141061e-11    2.622621e-08   -2.350728e+00
    9.962115e+00    1.263809e+03    1.878589e-01    1.063163e+07    2.801584e-08    4.000392e-11    2.609249e-08   -2.345728e+00
    1.016628e+01    1.296742e+03    1.786400e-01    1.035625e+07    2.790990e-08    3.864353e-11    2.595513e-08   -2.340728e+00
    1.037586e+01    1.330021e+03    1.696979e-01    1.007996e+07    2.780108e-08    3.732790e-11    2.581408e-08   -2.335728e+00
    1.059084e+01    1.363593e+03    1.610324e-01    9.802834e+06    2.768930e-08    3.605552e-11    2.566924e-08   -2.330728e+00
    1.081121e+01    1.397404e+03    1.526431e-01    9.524969e+06    2.757452e-08    3.482492e-11    2.552054e-08   -2.325728e+00
    1.103690e+01    1.431389e+03    1.445296e-01    9.246483e+06    2.745665e-08    3.363471e-11    2.536789e-08   -2.320728e+00
    1.126783e+01    1.465476e+03    1.366912e-01    8.967502e+06    2.733566e-08    3.248355e-11    2.521124e-08   -2.315728e+00
    1.150387e+01    1.499587e+03    1.291271e-01    8.688185e+06    2.721149e-08    3.137013e-11    2.505050e-08   -2.310728e+00
    1.174484e+01    1.533635e+03    1.218362e-01    8.408713e+06    2.708409e-08    3.029322e-11    2.488563e-08   -2.305728e+00
    1.199056e+01    1.567524e+03    1.148172e-01    8.129291e+06    2.695340e-08    2.925158e-11    2.471652e-08   -2.300728e+00
    1.224073e+01    1.601151e+03    1.080685e-01    7.850143e+06    2.681939e-08    2.824408e-11    2.454315e-08   -2.295728e+00
    1.249508e+01    1.634406e+03    1.015882e-01    7.571532e+06    2.668201e-08    2.726959e-11    2.436543e-08   -2.290728e+00
    1.275322e+01    1.667170e+03    9.537415e-02    7.293734e+06    2.654121e-08    2.632702e-11    2.418333e-08   -2.285728e+00
    1.301473e+01    1.699319e+03    8.942400e-02    7.017062e+06    2.639698e-08    2.541534e-11    2.399680e-08   -2.280728e+00
    1.327914e+01    1.730718e+03    8.373485e-02    6.741851e+06    2.624926e-08    2.453355e-11    2.380577e-08   -2.275728e+00
    1.354588e+01    1.761230e+03    7.830360e-02    6.468462e+06    2.609805e-08    2.368067e-11    2.361022e-08   -2.270728e+00
    1.381435e+01    1.790714e+03    7.312670e-02    6.197280e+06    2.594331e-08    2.285577e-11    2.341012e-08   -2.265728e+00
    1.408388e+01    1.819028e+03    6.820025e-02    5.928719e+06    2.578502e-08    2.205796e-11    2.320544e-08   -2.260728e+00
    1.435373e+01    1.846020e+03    6.351995e-02    5.663198e+06    2.562319e-08    2.128636e-11    2.299614e-08   -2.255728e+00
    1.462309e+01    1.871548e+03    5.908115e-02    5.401164e+06    2.545780e-08    2.054012e-11    2.278225e-08   -2.250728e+00
    1.489114e+01    1.895469e+03    5.487870e-02    5.143074e+06    2.528886e-08    1.981845e-11    2.256372e-08   -2.245728e+00
    1.515696e+01    1.917646e+03    5.090720e-02    4.889391e+06    2.511636e-08    1.912056e-11    2.234058e-08   -2.240728e+00
    1.541961e+01    1.937947e+03    4.716072e-02    4.640574e+06    2.494034e-08    1.844569e-11    2.211284e-08   -2.235728e+00
    1.567814e+01    1.956254e+03    4.363306e-02    4.397092e+06    2.476080e-08    1.779311e-11    2.188051e-08   -2.230728e+00
    1.593152e+01    1.972459e+03    4.031762e-02    4.159389e+06    2.457779e-08    1.716212e-11    2.164362e-08   -2.225728e+00
    1.617879e+01    1.986470e+03    3.720749e-02    3.927905e+06    2.439133e-08    1.655203e-11    2.140222e-08   -2.220728e+00
    1.641893e+01    1.998213e+03    3.429545e-02    3.703051e+06    2.420147e-08    1.596218e-11    2.115635e-08   -2.215728e+00
    1.665098e+01    2.007632e+03    3.157401e-02    3.485207e+06    2.400827e-08    1.539194e-11    2.090608e-08   -2.210728e+00
    1.687400e+01    2.014697e+03    2.903546e-02    3.274725e+06    2.381180e-08    1.484069e-11    2.065147e-08   -2.205728e+00
    1.708714e+01    2.019395e+03    2.667190e-02    3.071912e+06    2.361211e-08    1.430784e-11    2.039262e-08   -2.200728e+00
    1.728959e+01    2.021744e+03    2.447530e-02    2.877031e+06    2.340929e-08    1.379280e-11    2.012961e-08   -2.195728e+00
    1.748066e+01    2.021781e+03    2.243750e-02    2.690296e+06    2.320345e-08    1.329502e-11    1.986254e-08   -2.190728e+00
    1.765975e+01    2.019572e+03    2.055034e-02    2.511868e+06    2.299466e-08    1.281396e-11    1.959153e-08   -2.185728e+00
    1.782639e+01    2.015203e+03    1.880564e-02    2.341855e+06    2.278304e-08    1.234910e-11    1.931671e-08   -2.180728e+00
    1.798025e+01    2.008786e+03    1.719528e-02    2.180312e+06    2.256871e-08    1.189992e-11    1.903823e-08   -2.175728e+00
    1.812115e+01    2.000452e+03    1.571124e-02    2.027235e+06    2.235179e-08    1.146595e-11    1.875622e-08   -2.170728e+00
    1.824905e+01    1.990353e+03    1.434563e-02    1.882570e+06    2.213241e-08    1.104670e-11    1.847085e-08   -2.165728e+00
    1.836408e+01    1.978654e+03    1.309077e-02    1.746214e+06    2.191073e-08    1.064171e-11    1.818230e-08   -2.160728e+00
    1.846651e+01    1.965536e+03    1.193918e-02    1.618013e+06    2.168689e-08    1.025054e-11    1.789075e-08   -2.155728e+00
    1.855678e+01    1.951189e+03    1.088365e-02    1.497775e+06    2.146106e-08    9.872750e-12    1.759639e-08   -2.150728e+00
    1.863548e+01    1.935810e+03    9.917260e-03    1.385265e+06    2.123339e-08    9.507925e-12    1.729943e-08   -2.145728e+00
    1.870331e+01    1.919599e+03    9.033370e-03    1.280220e+06    2.100408e-08    9.155660e-12    1.700008e-08   -2.140728e+00
    1.876114e+01    1.902758e+03    8.225675e-03    1.182347e+06    2.077331e-08    8.815565e-12    1.669857e-08   -2.135728e+00
