# sky130 pfet_01v8 gm/ID Processed Lookup Table
# Corner: sf
# Temperature: 0C
# W = 2.0 um
# L = 1.08 um (1080 nm)
# Columns: gm/id [1/V]  gm/gds [V/V]  id/W [A/m]  ft [Hz]  Cgg/W [F/m]  Cgd/W [F/m]  Cgs/W [F/m]  Vov [V]
#         gm/id          gm/gds            id/W              ft           Cgg/W           Cgd/W           Cgs/W             Vov
    2.397795e+00    7.379460e+00    1.484786e+01    8.998287e+08    6.297035e-09    2.457662e-10    5.982785e-09   -2.868570e+00
    2.422288e+00    7.676039e+00    1.467001e+01    8.990657e+08    6.290495e-09    2.378925e-10    5.981560e-09   -2.863570e+00
    2.446980e+00    7.987979e+00    1.449251e+01    8.981596e+08    6.284065e-09    2.302469e-10    5.980240e-09   -2.858570e+00
    2.471866e+00    8.315939e+00    1.431539e+01    8.971062e+08    6.277755e-09    2.228250e-10    5.978825e-09   -2.853570e+00
    2.496942e+00    8.660572e+00    1.413867e+01    8.959051e+08    6.271550e-09    2.156226e-10    5.977315e-09   -2.848570e+00
    2.522202e+00    9.022528e+00    1.396237e+01    8.945535e+08    6.265455e-09    2.086353e-10    5.975715e-09   -2.843570e+00
    2.547642e+00    9.402439e+00    1.378652e+01    8.930502e+08    6.259465e-09    2.018586e-10    5.974025e-09   -2.838570e+00
    2.573260e+00    9.800923e+00    1.361114e+01    8.913938e+08    6.253580e-09    1.952879e-10    5.972240e-09   -2.833570e+00
    2.599052e+00    1.021857e+01    1.343627e+01    8.895841e+08    6.247795e-09    1.889188e-10    5.970370e-09   -2.828570e+00
    2.625014e+00    1.065596e+01    1.326194e+01    8.876212e+08    6.242105e-09    1.827465e-10    5.968415e-09   -2.823570e+00
    2.651148e+00    1.111363e+01    1.308816e+01    8.855046e+08    6.236510e-09    1.767664e-10    5.966375e-09   -2.818570e+00
    2.677452e+00    1.159207e+01    1.291496e+01    8.832357e+08    6.231005e-09    1.709738e-10    5.964250e-09   -2.813570e+00
    2.703926e+00    1.209176e+01    1.274237e+01    8.808154e+08    6.225585e-09    1.653641e-10    5.962040e-09   -2.808570e+00
    2.730571e+00    1.261311e+01    1.257042e+01    8.782442e+08    6.220255e-09    1.599325e-10    5.959755e-09   -2.803570e+00
    2.757391e+00    1.315651e+01    1.239914e+01    8.755247e+08    6.215005e-09    1.546744e-10    5.957385e-09   -2.798570e+00
    2.784390e+00    1.372228e+01    1.222854e+01    8.726588e+08    6.209835e-09    1.495853e-10    5.954935e-09   -2.793570e+00
    2.811569e+00    1.431073e+01    1.205866e+01    8.696485e+08    6.204745e-09    1.446605e-10    5.952410e-09   -2.788570e+00
    2.838936e+00    1.492207e+01    1.188951e+01    8.664982e+08    6.199720e-09    1.398953e-10    5.949805e-09   -2.783570e+00
    2.866498e+00    1.555651e+01    1.172113e+01    8.632089e+08    6.194770e-09    1.352855e-10    5.947125e-09   -2.778570e+00
    2.894261e+00    1.621418e+01    1.155353e+01    8.597851e+08    6.189885e-09    1.308265e-10    5.944370e-09   -2.773570e+00
    2.922233e+00    1.689519e+01    1.138675e+01    8.562297e+08    6.185065e-09    1.265140e-10    5.941540e-09   -2.768570e+00
    2.950424e+00    1.759959e+01    1.122079e+01    8.525473e+08    6.180300e-09    1.223435e-10    5.938640e-09   -2.763570e+00
    2.978843e+00    1.832739e+01    1.105569e+01    8.487402e+08    6.175595e-09    1.183109e-10    5.935660e-09   -2.758570e+00
    3.007501e+00    1.907859e+01    1.089147e+01    8.448130e+08    6.170945e-09    1.144121e-10    5.932610e-09   -2.753570e+00
    3.036410e+00    1.985313e+01    1.072814e+01    8.407695e+08    6.166345e-09    1.106429e-10    5.929490e-09   -2.748570e+00
    3.065581e+00    2.065092e+01    1.056572e+01    8.366133e+08    6.161795e-09    1.069992e-10    5.926295e-09   -2.743570e+00
    3.095027e+00    2.147188e+01    1.040424e+01    8.323494e+08    6.157285e-09    1.034774e-10    5.923025e-09   -2.738570e+00
    3.124760e+00    2.231587e+01    1.024371e+01    8.279805e+08    6.152820e-09    1.000733e-10    5.919690e-09   -2.733570e+00
    3.154797e+00    2.318276e+01    1.008415e+01    8.235108e+08    6.148395e-09    9.678340e-11    5.916280e-09   -2.728570e+00
    3.185148e+00    2.407242e+01    9.925585e+00    8.189449e+08    6.144000e-09    9.360390e-11    5.912795e-09   -2.723570e+00
    3.215832e+00    2.498468e+01    9.768015e+00    8.142859e+08    6.139640e-09    9.053130e-11    5.909245e-09   -2.718570e+00
    3.246860e+00    2.591943e+01    9.611465e+00    8.095372e+08    6.135310e-09    8.756210e-11    5.905615e-09   -2.713570e+00
    3.278250e+00    2.687652e+01    9.455950e+00    8.047032e+08    6.131005e-09    8.469290e-11    5.901920e-09   -2.708570e+00
    3.310018e+00    2.785580e+01    9.301480e+00    7.997873e+08    6.126720e-09    8.192045e-11    5.898150e-09   -2.703570e+00
    3.342178e+00    2.885718e+01    9.148075e+00    7.947920e+08    6.122460e-09    7.924145e-11    5.894305e-09   -2.698570e+00
    3.374750e+00    2.988054e+01    8.995740e+00    7.897219e+08    6.118210e-09    7.665285e-11    5.890390e-09   -2.693570e+00
    3.407747e+00    3.092582e+01    8.844495e+00    7.845788e+08    6.113980e-09    7.415155e-11    5.886400e-09   -2.688570e+00
    3.441191e+00    3.199294e+01    8.694345e+00    7.793670e+08    6.109755e-09    7.173470e-11    5.882335e-09   -2.683570e+00
    3.475096e+00    3.308190e+01    8.545310e+00    7.740885e+08    6.105540e-09    6.939940e-11    5.878190e-09   -2.678570e+00
    3.509481e+00    3.419269e+01    8.397395e+00    7.687463e+08    6.101330e-09    6.714285e-11    5.873970e-09   -2.673570e+00
    3.544366e+00    3.532534e+01    8.250610e+00    7.633435e+08    6.097120e-09    6.496240e-11    5.869675e-09   -2.668570e+00
    3.579769e+00    3.647987e+01    8.104965e+00    7.578824e+08    6.092905e-09    6.285545e-11    5.865300e-09   -2.663570e+00
    3.615710e+00    3.765646e+01    7.960470e+00    7.523649e+08    6.088690e-09    6.081945e-11    5.860845e-09   -2.658570e+00
    3.652206e+00    3.885517e+01    7.817140e+00    7.467941e+08    6.084465e-09    5.885195e-11    5.856305e-09   -2.653570e+00
    3.689280e+00    4.007617e+01    7.674975e+00    7.411722e+08    6.080225e-09    5.695065e-11    5.851685e-09   -2.648570e+00
    3.726952e+00    4.131967e+01    7.533990e+00    7.355006e+08    6.075975e-09    5.511320e-11    5.846980e-09   -2.643570e+00
    3.765243e+00    4.258595e+01    7.394190e+00    7.297820e+08    6.071705e-09    5.333745e-11    5.842190e-09   -2.638570e+00
    3.804174e+00    4.387523e+01    7.255585e+00    7.240184e+08    6.067410e-09    5.162120e-11    5.837310e-09   -2.633570e+00
    3.843769e+00    4.518782e+01    7.118180e+00    7.182109e+08    6.063095e-09    4.996239e-11    5.832340e-09   -2.628570e+00
    3.884052e+00    4.652411e+01    6.981980e+00    7.123619e+08    6.058750e-09    4.835906e-11    5.827275e-09   -2.623570e+00
    3.925044e+00    4.788452e+01    6.846995e+00    7.064726e+08    6.054375e-09    4.680926e-11    5.822120e-09   -2.618570e+00
    3.966768e+00    4.926941e+01    6.713235e+00    7.005448e+08    6.049965e-09    4.531112e-11    5.816865e-09   -2.613570e+00
    4.009253e+00    5.067929e+01    6.580700e+00    6.945801e+08    6.045515e-09    4.386284e-11    5.811510e-09   -2.608570e+00
    4.052522e+00    5.211466e+01    6.449400e+00    6.885797e+08    6.041025e-09    4.246270e-11    5.806055e-09   -2.603570e+00
    4.096603e+00    5.357606e+01    6.319340e+00    6.825449e+08    6.036490e-09    4.110901e-11    5.800490e-09   -2.598570e+00
    4.141522e+00    5.506410e+01    6.190525e+00    6.764771e+08    6.031905e-09    3.980015e-11    5.794825e-09   -2.593570e+00
    4.187310e+00    5.657943e+01    6.062960e+00    6.703779e+08    6.027265e-09    3.853455e-11    5.789045e-09   -2.588570e+00
    4.233996e+00    5.812270e+01    5.936650e+00    6.642478e+08    6.022570e-09    3.731070e-11    5.783150e-09   -2.583570e+00
    4.281606e+00    5.969463e+01    5.811605e+00    6.580886e+08    6.017810e-09    3.612717e-11    5.777140e-09   -2.578570e+00
    4.330178e+00    6.129598e+01    5.687820e+00    6.519004e+08    6.012990e-09    3.498253e-11    5.771005e-09   -2.573570e+00
    4.379740e+00    6.292757e+01    5.565310e+00    6.456849e+08    6.008100e-09    3.387544e-11    5.764750e-09   -2.568570e+00
    4.430322e+00    6.459022e+01    5.444080e+00    6.394424e+08    6.003140e-09    3.280459e-11    5.758365e-09   -2.563570e+00
    4.481967e+00    6.628484e+01    5.324125e+00    6.331744e+08    5.998100e-09    3.176872e-11    5.751845e-09   -2.558570e+00
    4.534709e+00    6.801237e+01    5.205455e+00    6.268820e+08    5.992975e-09    3.076663e-11    5.745195e-09   -2.553570e+00
    4.588588e+00    6.977378e+01    5.088070e+00    6.205648e+08    5.987770e-09    2.979712e-11    5.738395e-09   -2.548570e+00
    4.643633e+00    7.157012e+01    4.971984e+00    6.142246e+08    5.982470e-09    2.885909e-11    5.731455e-09   -2.543570e+00
    4.699893e+00    7.340244e+01    4.857193e+00    6.078616e+08    5.977075e-09    2.795145e-11    5.724365e-09   -2.538570e+00
    4.757408e+00    7.527192e+01    4.743703e+00    6.014766e+08    5.971580e-09    2.707314e-11    5.717115e-09   -2.533570e+00
    4.816222e+00    7.717971e+01    4.631517e+00    5.950701e+08    5.965980e-09    2.622315e-11    5.709710e-09   -2.528570e+00
    4.876380e+00    7.912703e+01    4.520640e+00    5.886425e+08    5.960270e-09    2.540051e-11    5.702135e-09   -2.523570e+00
    4.937930e+00    8.111522e+01    4.411075e+00    5.821945e+08    5.954445e-09    2.460429e-11    5.694390e-09   -2.518570e+00
    5.000920e+00    8.314560e+01    4.302825e+00    5.757266e+08    5.948500e-09    2.383356e-11    5.686465e-09   -2.513570e+00
    5.065402e+00    8.521958e+01    4.195895e+00    5.692394e+08    5.942425e-09    2.308748e-11    5.678355e-09   -2.508570e+00
    5.131428e+00    8.733860e+01    4.090287e+00    5.627328e+08    5.936220e-09    2.236518e-11    5.670060e-09   -2.503570e+00
    5.199055e+00    8.950421e+01    3.986006e+00    5.562077e+08    5.929875e-09    2.166587e-11    5.661565e-09   -2.498570e+00
    5.268340e+00    9.171804e+01    3.883054e+00    5.496637e+08    5.923390e-09    2.098875e-11    5.652865e-09   -2.493570e+00
    5.339343e+00    9.398166e+01    3.781435e+00    5.431019e+08    5.916750e-09    2.033309e-11    5.643960e-09   -2.488570e+00
    5.412127e+00    9.629687e+01    3.681151e+00    5.365220e+08    5.909955e-09    1.969816e-11    5.634830e-09   -2.483570e+00
    5.486753e+00    9.866540e+01    3.582207e+00    5.299243e+08    5.902995e-09    1.908324e-11    5.625480e-09   -2.478570e+00
    5.563294e+00    1.010892e+02    3.484606e+00    5.233090e+08    5.895865e-09    1.848768e-11    5.615895e-09   -2.473570e+00
    5.641816e+00    1.035701e+02    3.388349e+00    5.166758e+08    5.888560e-09    1.791081e-11    5.606065e-09   -2.468570e+00
    5.722396e+00    1.061101e+02    3.293442e+00    5.100253e+08    5.881070e-09    1.735202e-11    5.595990e-09   -2.463570e+00
    5.805107e+00    1.087115e+02    3.199886e+00    5.033574e+08    5.873385e-09    1.681070e-11    5.585650e-09   -2.458570e+00
    5.890030e+00    1.113762e+02    3.107686e+00    4.966721e+08    5.865500e-09    1.628628e-11    5.575045e-09   -2.453570e+00
    5.977246e+00    1.141066e+02    3.016844e+00    4.899689e+08    5.857410e-09    1.577817e-11    5.564165e-09   -2.448570e+00
    6.066842e+00    1.169050e+02    2.927363e+00    4.832479e+08    5.849105e-09    1.528586e-11    5.552995e-09   -2.443570e+00
    6.158907e+00    1.197738e+02    2.839247e+00    4.765092e+08    5.840575e-09    1.480881e-11    5.541530e-09   -2.438570e+00
    6.253530e+00    1.227155e+02    2.752498e+00    4.697519e+08    5.831815e-09    1.434652e-11    5.529755e-09   -2.433570e+00
    6.350811e+00    1.257327e+02    2.667119e+00    4.629767e+08    5.822810e-09    1.389852e-11    5.517660e-09   -2.428570e+00
    6.450847e+00    1.288280e+02    2.583115e+00    4.561827e+08    5.813555e-09    1.346433e-11    5.505240e-09   -2.423570e+00
    6.553742e+00    1.320042e+02    2.500488e+00    4.493697e+08    5.804040e-09    1.304349e-11    5.492475e-09   -2.418570e+00
    6.659600e+00    1.352641e+02    2.419240e+00    4.425368e+08    5.794260e-09    1.263558e-11    5.479360e-09   -2.413570e+00
    6.768537e+00    1.386107e+02    2.339377e+00    4.356842e+08    5.784200e-09    1.224018e-11    5.465880e-09   -2.408570e+00
    6.880663e+00    1.420468e+02    2.260900e+00    4.288113e+08    5.773850e-09    1.185688e-11    5.452025e-09   -2.403570e+00
    6.996098e+00    1.455756e+02    2.183813e+00    4.219177e+08    5.763200e-09    1.148529e-11    5.437780e-09   -2.398570e+00
    7.114960e+00    1.492001e+02    2.108120e+00    4.150026e+08    5.752240e-09    1.112504e-11    5.423130e-09   -2.393570e+00
    7.237379e+00    1.529236e+02    2.033822e+00    4.080655e+08    5.740960e-09    1.077576e-11    5.408065e-09   -2.388570e+00
    7.363476e+00    1.567493e+02    1.960925e+00    4.011055e+08    5.729350e-09    1.043711e-11    5.392570e-09   -2.383570e+00
    7.493391e+00    1.606805e+02    1.889431e+00    3.941226e+08    5.717395e-09    1.010874e-11    5.376635e-09   -2.378570e+00
    7.627254e+00    1.647205e+02    1.819344e+00    3.871155e+08    5.705090e-09    9.790325e-12    5.360235e-09   -2.373570e+00
    7.765197e+00    1.688725e+02    1.750667e+00    3.800839e+08    5.692415e-09    9.481560e-12    5.343365e-09   -2.368570e+00
    7.907372e+00    1.731399e+02    1.683402e+00    3.730271e+08    5.679365e-09    9.182135e-12    5.326010e-09   -2.363570e+00
    8.053911e+00    1.775263e+02    1.617555e+00    3.659447e+08    5.665920e-09    8.891760e-12    5.308150e-09   -2.358570e+00
    8.204957e+00    1.820343e+02    1.553127e+00    3.588356e+08    5.652075e-09    8.610150e-12    5.289765e-09   -2.353570e+00
    8.360661e+00    1.866678e+02    1.490122e+00    3.516992e+08    5.637820e-09    8.337035e-12    5.270850e-09   -2.348570e+00
    8.521152e+00    1.914292e+02    1.428544e+00    3.445355e+08    5.623130e-09    8.072145e-12    5.251380e-09   -2.343570e+00
    8.686582e+00    1.963219e+02    1.368395e+00    3.373433e+08    5.608005e-09    7.815230e-12    5.231345e-09   -2.338570e+00
    8.857093e+00    2.013487e+02    1.309678e+00    3.301232e+08    5.592420e-09    7.566050e-12    5.210725e-09   -2.333570e+00
    9.032810e+00    2.065117e+02    1.252397e+00    3.228742e+08    5.576370e-09    7.324355e-12    5.189505e-09   -2.328570e+00
    9.213879e+00    2.118136e+02    1.196552e+00    3.155960e+08    5.559845e-09    7.089925e-12    5.167665e-09   -2.323570e+00
    9.400406e+00    2.172557e+02    1.142148e+00    3.082892e+08    5.542820e-09    6.862540e-12    5.145185e-09   -2.318570e+00
    9.592517e+00    2.228400e+02    1.089187e+00    3.009538e+08    5.525290e-09    6.641980e-12    5.122055e-09   -2.313570e+00
    9.790318e+00    2.285673e+02    1.037668e+00    2.935902e+08    5.507240e-09    6.428040e-12    5.098255e-09   -2.308570e+00
    9.993909e+00    2.344382e+02    9.875955e-01    2.861994e+08    5.488655e-09    6.220520e-12    5.073765e-09   -2.303570e+00
    1.020335e+01    2.404523e+02    9.389690e-01    2.787822e+08    5.469520e-09    6.019235e-12    5.048570e-09   -2.298570e+00
    1.041870e+01    2.466085e+02    8.917895e-01    2.713399e+08    5.449825e-09    5.823985e-12    5.022650e-09   -2.293570e+00
    1.064001e+01    2.529051e+02    8.460560e-01    2.638740e+08    5.429560e-09    5.634600e-12    4.995992e-09   -2.288570e+00
    1.086728e+01    2.593394e+02    8.017685e-01    2.563877e+08    5.408700e-09    5.450905e-12    4.968576e-09   -2.283570e+00
    1.110050e+01    2.659074e+02    7.589250e-01    2.488827e+08    5.387245e-09    5.272725e-12    4.940385e-09   -2.278570e+00
    1.133961e+01    2.726042e+02    7.175230e-01    2.413627e+08    5.365175e-09    5.099905e-12    4.911403e-09   -2.273570e+00
    1.158451e+01    2.794229e+02    6.775595e-01    2.338311e+08    5.342480e-09    4.932285e-12    4.881613e-09   -2.268570e+00
    1.183510e+01    2.863561e+02    6.390295e-01    2.262927e+08    5.319150e-09    4.769711e-12    4.850999e-09   -2.263570e+00
    1.209117e+01    2.933940e+02    6.019275e-01    2.187526e+08    5.295165e-09    4.612037e-12    4.819546e-09   -2.258570e+00
    1.235252e+01    3.005258e+02    5.662470e-01    2.112164e+08    5.270525e-09    4.459119e-12    4.787240e-09   -2.253570e+00
    1.261883e+01    3.077380e+02    5.319790e-01    2.036906e+08    5.245210e-09    4.310822e-12    4.754065e-09   -2.248570e+00
    1.288980e+01    3.150160e+02    4.991137e-01    1.961826e+08    5.219215e-09    4.167009e-12    4.720009e-09   -2.243570e+00
    1.316498e+01    3.223429e+02    4.676399e-01    1.887002e+08    5.192535e-09    4.027554e-12    4.685058e-09   -2.238570e+00
    1.344391e+01    3.296995e+02    4.375442e-01    1.812528e+08    5.165150e-09    3.892330e-12    4.649201e-09   -2.233570e+00
    1.372603e+01    3.370649e+02    4.088115e-01    1.738494e+08    5.137065e-09    3.761215e-12    4.612426e-09   -2.228570e+00
    1.401074e+01    3.444161e+02    3.814246e-01    1.665010e+08    5.108260e-09    3.634095e-12    4.574725e-09   -2.223570e+00
    1.429730e+01    3.517273e+02    3.553643e-01    1.592179e+08    5.078740e-09    3.510854e-12    4.536089e-09   -2.218570e+00
    1.458496e+01    3.589722e+02    3.306096e-01    1.520122e+08    5.048500e-09    3.391381e-12    4.496510e-09   -2.213570e+00
    1.487287e+01    3.661216e+02    3.071369e-01    1.448962e+08    5.017530e-09    3.275572e-12    4.455984e-09   -2.208570e+00
    1.516011e+01    3.731453e+02    2.849207e-01    1.378825e+08    4.985828e-09    3.163321e-12    4.414505e-09   -2.203570e+00
    1.544571e+01    3.800118e+02    2.639330e-01    1.309840e+08    4.953397e-09    3.054528e-12    4.372071e-09   -2.198570e+00
    1.572861e+01    3.866888e+02    2.441439e-01    1.242140e+08    4.920237e-09    2.949097e-12    4.328681e-09   -2.193570e+00
    1.600775e+01    3.931435e+02    2.255215e-01    1.175855e+08    4.886349e-09    2.846933e-12    4.284336e-09   -2.188570e+00
    1.628200e+01    3.993433e+02    2.080314e-01    1.111116e+08    4.851735e-09    2.747944e-12    4.239039e-09   -2.183570e+00
    1.655023e+01    4.052560e+02    1.916375e-01    1.048049e+08    4.816401e-09    2.652041e-12    4.192795e-09   -2.178570e+00
    1.681128e+01    4.108513e+02    1.763020e-01    9.867750e+07    4.780355e-09    2.559138e-12    4.145609e-09   -2.173570e+00
    1.706406e+01    4.160997e+02    1.619855e-01    9.274067e+07    4.743603e-09    2.469152e-12    4.097493e-09   -2.168570e+00
    1.730747e+01    4.209755e+02    1.486469e-01    8.700481e+07    4.706156e-09    2.382000e-12    4.048457e-09   -2.163570e+00
    1.754049e+01    4.254555e+02    1.362442e-01    8.147917e+07    4.668026e-09    2.297603e-12    3.998515e-09   -2.158570e+00
    1.776216e+01    4.295196e+02    1.247345e-01    7.617177e+07    4.629228e-09    2.215886e-12    3.947682e-09   -2.153570e+00
    1.797166e+01    4.331534e+02    1.140741e-01    7.108918e+07    4.589776e-09    2.136773e-12    3.895978e-09   -2.148570e+00
    1.816824e+01    4.363462e+02    1.042188e-01    6.623648e+07    4.549690e-09    2.060190e-12    3.843424e-09   -2.143570e+00
    1.835135e+01    4.390931e+02    9.512460e-02    6.161718e+07    4.508988e-09    1.986069e-12    3.790042e-09   -2.138570e+00
    1.852053e+01    4.413940e+02    8.674755e-02    5.723314e+07    4.467693e-09    1.914339e-12    3.735861e-09   -2.133570e+00
    1.867556e+01    4.432547e+02    7.904410e-02    5.308462e+07    4.425828e-09    1.844933e-12    3.680907e-09   -2.128570e+00
    1.881636e+01    4.446868e+02    7.197150e-02    4.917034e+07    4.383419e-09    1.777788e-12    3.625213e-09   -2.123570e+00
    1.894303e+01    4.457067e+02    6.548795e-02    4.548747e+07    4.340495e-09    1.712838e-12    3.568812e-09   -2.118570e+00
    1.905590e+01    4.463359e+02    5.955275e-02    4.203175e+07    4.297085e-09    1.650023e-12    3.511741e-09   -2.113570e+00
