# sky130 pfet_01v8 gm/ID Processed Lookup Table
# Corner: ss
# Temperature: 75C
# W = 2.0 um
# L = 5.4 um (5400 nm)
# Columns: gm/id [1/V]  gm/gds [V/V]  id/W [A/m]  ft [Hz]  Cgg/W [F/m]  Cgd/W [F/m]  Cgs/W [F/m]  Vov [V]
#         gm/id          gm/gds            id/W              ft           Cgg/W           Cgd/W           Cgs/W             Vov
    1.935346e+00    4.275276e+00    3.113167e+00    3.036329e+07    3.158146e-08    3.299653e-09    2.882047e-08   -2.774789e+00
    1.954663e+00    4.415852e+00    3.083038e+00    3.043174e+07    3.151695e-08    3.211776e-09    2.882569e-08   -2.769789e+00
    1.974235e+00    4.564152e+00    3.052904e+00    3.049800e+07    3.145291e-08    3.125065e-09    2.883028e-08   -2.764790e+00
    1.994062e+00    4.720712e+00    3.022768e+00    3.056192e+07    3.138939e-08    3.039566e-09    2.883422e-08   -2.759790e+00
    2.014144e+00    4.886113e+00    2.992629e+00    3.062337e+07    3.132640e-08    2.955321e-09    2.883752e-08   -2.754790e+00
    2.034476e+00    5.060971e+00    2.962492e+00    3.068214e+07    3.126398e-08    2.872369e-09    2.884016e-08   -2.749789e+00
    2.055060e+00    5.245962e+00    2.932359e+00    3.073811e+07    3.120217e-08    2.790749e-09    2.884214e-08   -2.744789e+00
    2.075892e+00    5.441802e+00    2.902232e+00    3.079108e+07    3.114096e-08    2.710495e-09    2.884345e-08   -2.739789e+00
    2.096969e+00    5.649260e+00    2.872113e+00    3.084089e+07    3.108041e-08    2.631639e-09    2.884409e-08   -2.734789e+00
    2.118288e+00    5.869171e+00    2.842005e+00    3.088738e+07    3.102051e-08    2.554211e-09    2.884404e-08   -2.729789e+00
    2.139843e+00    6.102414e+00    2.811911e+00    3.093033e+07    3.096130e-08    2.478237e-09    2.884332e-08   -2.724789e+00
    2.161634e+00    6.349953e+00    2.781836e+00    3.096963e+07    3.090279e-08    2.403742e-09    2.884191e-08   -2.719790e+00
    2.183652e+00    6.612797e+00    2.751780e+00    3.100505e+07    3.084500e-08    2.330746e-09    2.883981e-08   -2.714790e+00
    2.205893e+00    6.892038e+00    2.721748e+00    3.103643e+07    3.078794e-08    2.259268e-09    2.883703e-08   -2.709790e+00
    2.228354e+00    7.188852e+00    2.691742e+00    3.106363e+07    3.073163e-08    2.189322e-09    2.883355e-08   -2.704789e+00
    2.251027e+00    7.504464e+00    2.661767e+00    3.108645e+07    3.067608e-08    2.120921e-09    2.882939e-08   -2.699790e+00
    2.273906e+00    7.840208e+00    2.631826e+00    3.110473e+07    3.062129e-08    2.054073e-09    2.882455e-08   -2.694789e+00
    2.296986e+00    8.197489e+00    2.601923e+00    3.111834e+07    3.056726e-08    1.988787e-09    2.881903e-08   -2.689789e+00
    2.320261e+00    8.577807e+00    2.572062e+00    3.112713e+07    3.051401e-08    1.925063e-09    2.881281e-08   -2.684789e+00
    2.343723e+00    8.982735e+00    2.542245e+00    3.113093e+07    3.046155e-08    1.862905e-09    2.880593e-08   -2.679790e+00
    2.367367e+00    9.413958e+00    2.512479e+00    3.112962e+07    3.040986e-08    1.802309e-09    2.879837e-08   -2.674790e+00
    2.391186e+00    9.873241e+00    2.482768e+00    3.112311e+07    3.035894e-08    1.743271e-09    2.879013e-08   -2.669790e+00
    2.415176e+00    1.036246e+01    2.453114e+00    3.111127e+07    3.030880e-08    1.685784e-09    2.878123e-08   -2.664789e+00
    2.439330e+00    1.088357e+01    2.423522e+00    3.109402e+07    3.025943e-08    1.629840e-09    2.877166e-08   -2.659790e+00
    2.463645e+00    1.143863e+01    2.393998e+00    3.107130e+07    3.021083e-08    1.575426e-09    2.876144e-08   -2.654789e+00
    2.488114e+00    1.202980e+01    2.364544e+00    3.104300e+07    3.016298e-08    1.522527e-09    2.875056e-08   -2.649789e+00
    2.512738e+00    1.265935e+01    2.335166e+00    3.100914e+07    3.011587e-08    1.471131e-09    2.873904e-08   -2.644789e+00
    2.537510e+00    1.332962e+01    2.305869e+00    3.096965e+07    3.006950e-08    1.421218e-09    2.872686e-08   -2.639790e+00
    2.562429e+00    1.404306e+01    2.276656e+00    3.092452e+07    3.002386e-08    1.372769e-09    2.871406e-08   -2.634790e+00
    2.587495e+00    1.480220e+01    2.247532e+00    3.087377e+07    2.997892e-08    1.325763e-09    2.870063e-08   -2.629790e+00
    2.612708e+00    1.560968e+01    2.218503e+00    3.081743e+07    2.993468e-08    1.280178e-09    2.868656e-08   -2.624789e+00
    2.638067e+00    1.646821e+01    2.189571e+00    3.075551e+07    2.989111e-08    1.235990e-09    2.867188e-08   -2.619789e+00
    2.663573e+00    1.738057e+01    2.160742e+00    3.068806e+07    2.984821e-08    1.193174e-09    2.865657e-08   -2.614789e+00
    2.689234e+00    1.834966e+01    2.132020e+00    3.061519e+07    2.980595e-08    1.151705e-09    2.864066e-08   -2.609789e+00
    2.715048e+00    1.937842e+01    2.103409e+00    3.053693e+07    2.976431e-08    1.111555e-09    2.862415e-08   -2.604789e+00
    2.741022e+00    2.046984e+01    2.074912e+00    3.045338e+07    2.972329e-08    1.072697e-09    2.860703e-08   -2.599789e+00
    2.767161e+00    2.162703e+01    2.046536e+00    3.036467e+07    2.968284e-08    1.035103e-09    2.858931e-08   -2.594790e+00
    2.793474e+00    2.285313e+01    2.018282e+00    3.027090e+07    2.964295e-08    9.987435e-10    2.857100e-08   -2.589790e+00
    2.819966e+00    2.415130e+01    1.990157e+00    3.017218e+07    2.960361e-08    9.635900e-10    2.855211e-08   -2.584790e+00
    2.846648e+00    2.552481e+01    1.962162e+00    3.006867e+07    2.956478e-08    9.296120e-10    2.853263e-08   -2.579789e+00
    2.873527e+00    2.697692e+01    1.934303e+00    2.996047e+07    2.952644e-08    8.967800e-10    2.851256e-08   -2.574790e+00
    2.900617e+00    2.851097e+01    1.906581e+00    2.984777e+07    2.948858e-08    8.650640e-10    2.849192e-08   -2.569789e+00
    2.927923e+00    3.013025e+01    1.879001e+00    2.973065e+07    2.945116e-08    8.344335e-10    2.847069e-08   -2.564789e+00
    2.955460e+00    3.183816e+01    1.851566e+00    2.960928e+07    2.941417e-08    8.048595e-10    2.844889e-08   -2.559789e+00
    2.983241e+00    3.363809e+01    1.824280e+00    2.948383e+07    2.937757e-08    7.763115e-10    2.842652e-08   -2.554790e+00
    3.011277e+00    3.553346e+01    1.797145e+00    2.935444e+07    2.934135e-08    7.487595e-10    2.840357e-08   -2.549790e+00
    3.039581e+00    3.752765e+01    1.770164e+00    2.922123e+07    2.930547e-08    7.221745e-10    2.838005e-08   -2.544790e+00
    3.068168e+00    3.962412e+01    1.743340e+00    2.908437e+07    2.926993e-08    6.965270e-10    2.835596e-08   -2.539789e+00
    3.097049e+00    4.182624e+01    1.716676e+00    2.894398e+07    2.923468e-08    6.717885e-10    2.833129e-08   -2.534790e+00
    3.126245e+00    4.413755e+01    1.690175e+00    2.880025e+07    2.919970e-08    6.479305e-10    2.830604e-08   -2.529789e+00
    3.155765e+00    4.656136e+01    1.663838e+00    2.865327e+07    2.916497e-08    6.249250e-10    2.828022e-08   -2.524789e+00
    3.185623e+00    4.910113e+01    1.637669e+00    2.850317e+07    2.913047e-08    6.027440e-10    2.825381e-08   -2.519789e+00
    3.215841e+00    5.176032e+01    1.611669e+00    2.835012e+07    2.909616e-08    5.813615e-10    2.822682e-08   -2.514790e+00
    3.246430e+00    5.454231e+01    1.585841e+00    2.819421e+07    2.906202e-08    5.607500e-10    2.819925e-08   -2.509790e+00
    3.277404e+00    5.745045e+01    1.560186e+00    2.803555e+07    2.902803e-08    5.408845e-10    2.817108e-08   -2.504790e+00
    3.308787e+00    6.048826e+01    1.534708e+00    2.787431e+07    2.899416e-08    5.217395e-10    2.814232e-08   -2.499789e+00
    3.340588e+00    6.365904e+01    1.509407e+00    2.771054e+07    2.896038e-08    5.032900e-10    2.811295e-08   -2.494789e+00
    3.372826e+00    6.696615e+01    1.484285e+00    2.754436e+07    2.892669e-08    4.855119e-10    2.808298e-08   -2.489789e+00
    3.405522e+00    7.041310e+01    1.459345e+00    2.737592e+07    2.889303e-08    4.683822e-10    2.805239e-08   -2.484789e+00
    3.438689e+00    7.400316e+01    1.434587e+00    2.720525e+07    2.885940e-08    4.518778e-10    2.802119e-08   -2.479789e+00
    3.472345e+00    7.773966e+01    1.410014e+00    2.703247e+07    2.882576e-08    4.359766e-10    2.798935e-08   -2.474789e+00
    3.506509e+00    8.162600e+01    1.385627e+00    2.685767e+07    2.879209e-08    4.206570e-10    2.795687e-08   -2.469790e+00
    3.541199e+00    8.566562e+01    1.361428e+00    2.668091e+07    2.875837e-08    4.058980e-10    2.792376e-08   -2.464790e+00
    3.576434e+00    8.986180e+01    1.337417e+00    2.650230e+07    2.872457e-08    3.916795e-10    2.788998e-08   -2.459790e+00
    3.612232e+00    9.421793e+01    1.313596e+00    2.632188e+07    2.869067e-08    3.779816e-10    2.785554e-08   -2.454789e+00
    3.648612e+00    9.873749e+01    1.289967e+00    2.613973e+07    2.865664e-08    3.647854e-10    2.782042e-08   -2.449790e+00
    3.685595e+00    1.034238e+02    1.266531e+00    2.595592e+07    2.862246e-08    3.520725e-10    2.778461e-08   -2.444789e+00
    3.723200e+00    1.082802e+02    1.243288e+00    2.577050e+07    2.858810e-08    3.398249e-10    2.774810e-08   -2.439789e+00
    3.761446e+00    1.133102e+02    1.220241e+00    2.558354e+07    2.855354e-08    3.280255e-10    2.771088e-08   -2.434789e+00
    3.800357e+00    1.185174e+02    1.197390e+00    2.539508e+07    2.851876e-08    3.166575e-10    2.767293e-08   -2.429790e+00
    3.839953e+00    1.239050e+02    1.174736e+00    2.520517e+07    2.848372e-08    3.057048e-10    2.763423e-08   -2.424790e+00
    3.880254e+00    1.294767e+02    1.152281e+00    2.501386e+07    2.844841e-08    2.951521e-10    2.759480e-08   -2.419790e+00
    3.921286e+00    1.352361e+02    1.130025e+00    2.482120e+07    2.841280e-08    2.849841e-10    2.755458e-08   -2.414789e+00
    3.963069e+00    1.411866e+02    1.107970e+00    2.462721e+07    2.837686e-08    2.751865e-10    2.751358e-08   -2.409790e+00
    4.005626e+00    1.473319e+02    1.086116e+00    2.443195e+07    2.834058e-08    2.657454e-10    2.747178e-08   -2.404789e+00
    4.048983e+00    1.536758e+02    1.064464e+00    2.423543e+07    2.830391e-08    2.566471e-10    2.742916e-08   -2.399789e+00
    4.093165e+00    1.602219e+02    1.043016e+00    2.403769e+07    2.826686e-08    2.478789e-10    2.738570e-08   -2.394789e+00
    4.138195e+00    1.669740e+02    1.021772e+00    2.383877e+07    2.822938e-08    2.394283e-10    2.734139e-08   -2.389790e+00
    4.184099e+00    1.739361e+02    1.000733e+00    2.363868e+07    2.819145e-08    2.312831e-10    2.729620e-08   -2.384790e+00
    4.230905e+00    1.811118e+02    9.799010e-01    2.343744e+07    2.815305e-08    2.234319e-10    2.725011e-08   -2.379790e+00
    4.278642e+00    1.885054e+02    9.592750e-01    2.323509e+07    2.811414e-08    2.158635e-10    2.720312e-08   -2.374789e+00
    4.327334e+00    1.961206e+02    9.388570e-01    2.303163e+07    2.807472e-08    2.085672e-10    2.715519e-08   -2.369789e+00
    4.377011e+00    2.039617e+02    9.186480e-01    2.282708e+07    2.803474e-08    2.015327e-10    2.710631e-08   -2.364789e+00
    4.427706e+00    2.120330e+02    8.986480e-01    2.262147e+07    2.799419e-08    1.947501e-10    2.705645e-08   -2.359789e+00
    4.479447e+00    2.203386e+02    8.788585e-01    2.241478e+07    2.795304e-08    1.882098e-10    2.700558e-08   -2.354789e+00
    4.532263e+00    2.288828e+02    8.592805e-01    2.220705e+07    2.791125e-08    1.819025e-10    2.695369e-08   -2.349789e+00
    4.586192e+00    2.376701e+02    8.399140e-01    2.199827e+07    2.786882e-08    1.758198e-10    2.690076e-08   -2.344790e+00
    4.641261e+00    2.467049e+02    8.207605e-01    2.178845e+07    2.782571e-08    1.699528e-10    2.684675e-08   -2.339790e+00
    4.697510e+00    2.559920e+02    8.018205e-01    2.157761e+07    2.778189e-08    1.642935e-10    2.679164e-08   -2.334790e+00
    4.754965e+00    2.655357e+02    7.830955e-01    2.136572e+07    2.773734e-08    1.588341e-10    2.673541e-08   -2.329789e+00
    4.813674e+00    2.753410e+02    7.645850e-01    2.115280e+07    2.769203e-08    1.535670e-10    2.667803e-08   -2.324790e+00
    4.873665e+00    2.854127e+02    7.462910e-01    2.093885e+07    2.764593e-08    1.484851e-10    2.661948e-08   -2.319789e+00
    4.934979e+00    2.957554e+02    7.282135e-01    2.072386e+07    2.759902e-08    1.435813e-10    2.655972e-08   -2.314789e+00
    4.997654e+00    3.063745e+02    7.103540e-01    2.050783e+07    2.755126e-08    1.388489e-10    2.649872e-08   -2.309789e+00
    5.061730e+00    3.172747e+02    6.927130e-01    2.029075e+07    2.750264e-08    1.342817e-10    2.643647e-08   -2.304790e+00
    5.127250e+00    3.284611e+02    6.752910e-01    2.007262e+07    2.745312e-08    1.298733e-10    2.637292e-08   -2.299790e+00
    5.194252e+00    3.399390e+02    6.580895e-01    1.985341e+07    2.740267e-08    1.256179e-10    2.630806e-08   -2.294790e+00
    5.262784e+00    3.517135e+02    6.411085e-01    1.963314e+07    2.735127e-08    1.215098e-10    2.624184e-08   -2.289789e+00
    5.332885e+00    3.637896e+02    6.243495e-01    1.941177e+07    2.729889e-08    1.175434e-10    2.617423e-08   -2.284790e+00
    5.404602e+00    3.761726e+02    6.078130e-01    1.918930e+07    2.724550e-08    1.137136e-10    2.610523e-08   -2.279789e+00
    5.477981e+00    3.888681e+02    5.915000e-01    1.896571e+07    2.719106e-08    1.100153e-10    2.603477e-08   -2.274789e+00
    5.553071e+00    4.018808e+02    5.754110e-01    1.874099e+07    2.713556e-08    1.064436e-10    2.596283e-08   -2.269789e+00
    5.629918e+00    4.152162e+02    5.595470e-01    1.851513e+07    2.707897e-08    1.029939e-10    2.588938e-08   -2.264790e+00
    5.708568e+00    4.288792e+02    5.439090e-01    1.828809e+07    2.702123e-08    9.966175e-11    2.581439e-08   -2.259790e+00
    5.789070e+00    4.428751e+02    5.284980e-01    1.805987e+07    2.696235e-08    9.644275e-11    2.573782e-08   -2.254790e+00
    5.871477e+00    4.572086e+02    5.133145e-01    1.783044e+07    2.690228e-08    9.333285e-11    2.565964e-08   -2.249789e+00
    5.955843e+00    4.718848e+02    4.983591e-01    1.759978e+07    2.684099e-08    9.032800e-11    2.557981e-08   -2.244789e+00
    6.042215e+00    4.869080e+02    4.836331e-01    1.736788e+07    2.677846e-08    8.742450e-11    2.549829e-08   -2.239789e+00
    6.130643e+00    5.022831e+02    4.691373e-01    1.713471e+07    2.671464e-08    8.461855e-11    2.541507e-08   -2.234789e+00
    6.221183e+00    5.180141e+02    4.548723e-01    1.690025e+07    2.664953e-08    8.190670e-11    2.533009e-08   -2.229789e+00
    6.313885e+00    5.341048e+02    4.408391e-01    1.666448e+07    2.658307e-08    7.928555e-11    2.524332e-08   -2.224789e+00
    6.408802e+00    5.505591e+02    4.270385e-01    1.642738e+07    2.651525e-08    7.675180e-11    2.515472e-08   -2.219790e+00
    6.505986e+00    5.673798e+02    4.134713e-01    1.618893e+07    2.644603e-08    7.430240e-11    2.506427e-08   -2.214790e+00
    6.605490e+00    5.845700e+02    4.001383e-01    1.594911e+07    2.637539e-08    7.193425e-11    2.497191e-08   -2.209790e+00
    6.707364e+00    6.021316e+02    3.870405e-01    1.570791e+07    2.630329e-08    6.964450e-11    2.487763e-08   -2.204789e+00
    6.811657e+00    6.200664e+02    3.741784e-01    1.546530e+07    2.622970e-08    6.743040e-11    2.478138e-08   -2.199790e+00
    6.918421e+00    6.383754e+02    3.615530e-01    1.522127e+07    2.615460e-08    6.528920e-11    2.468313e-08   -2.194789e+00
    7.027702e+00    6.570588e+02    3.491649e-01    1.497581e+07    2.607796e-08    6.321840e-11    2.458283e-08   -2.189789e+00
    7.139545e+00    6.761159e+02    3.370149e-01    1.472892e+07    2.599975e-08    6.121550e-11    2.448046e-08   -2.184789e+00
    7.253997e+00    6.955453e+02    3.251038e-01    1.448057e+07    2.591993e-08    5.927810e-11    2.437597e-08   -2.179790e+00
    7.371095e+00    7.153442e+02    3.134322e-01    1.423078e+07    2.583848e-08    5.740390e-11    2.426934e-08   -2.174790e+00
    7.490879e+00    7.355092e+02    3.020006e-01    1.397953e+07    2.575539e-08    5.559075e-11    2.416053e-08   -2.169790e+00
    7.613382e+00    7.560351e+02    2.908098e-01    1.372685e+07    2.567061e-08    5.383645e-11    2.404950e-08   -2.164789e+00
    7.738636e+00    7.769157e+02    2.798604e-01    1.347273e+07    2.558412e-08    5.213905e-11    2.393623e-08   -2.159790e+00
    7.866666e+00    7.981431e+02    2.691526e-01    1.321719e+07    2.549589e-08    5.049655e-11    2.382067e-08   -2.154789e+00
    7.997490e+00    8.197080e+02    2.586871e-01    1.296027e+07    2.540591e-08    4.890705e-11    2.370280e-08   -2.149789e+00
    8.131123e+00    8.415991e+02    2.484643e-01    1.270198e+07    2.531414e-08    4.736874e-11    2.358258e-08   -2.144789e+00
    8.267574e+00    8.638036e+02    2.384843e-01    1.244237e+07    2.522056e-08    4.587987e-11    2.345998e-08   -2.139790e+00
    8.406841e+00    8.863065e+02    2.287475e-01    1.218149e+07    2.512516e-08    4.443877e-11    2.333498e-08   -2.134790e+00
    8.548915e+00    9.090902e+02    2.192539e-01    1.191939e+07    2.502791e-08    4.304380e-11    2.320755e-08   -2.129790e+00
    8.693780e+00    9.321356e+02    2.100036e-01    1.165613e+07    2.492878e-08    4.169340e-11    2.307766e-08   -2.124789e+00
    8.841403e+00    9.554207e+02    2.009966e-01    1.139180e+07    2.482777e-08    4.038607e-11    2.294528e-08   -2.119789e+00
    8.991753e+00    9.789212e+02    1.922326e-01    1.112648e+07    2.472485e-08    3.912035e-11    2.281039e-08   -2.114789e+00
    9.144770e+00    1.002610e+03    1.837114e-01    1.086027e+07    2.462001e-08    3.789487e-11    2.267297e-08   -2.109789e+00
    9.300400e+00    1.026457e+03    1.754325e-01    1.059330e+07    2.451323e-08    3.670826e-11    2.253300e-08   -2.104789e+00
    9.458560e+00    1.050431e+03    1.673953e-01    1.032567e+07    2.440451e-08    3.555923e-11    2.239045e-08   -2.099789e+00
    9.619164e+00    1.074495e+03    1.595990e-01    1.005754e+07    2.429382e-08    3.444653e-11    2.224531e-08   -2.094790e+00
    9.782101e+00    1.098612e+03    1.520428e-01    9.789064e+06    2.418115e-08    3.336897e-11    2.209757e-08   -2.089790e+00
    9.947245e+00    1.122740e+03    1.447257e-01    9.520403e+06    2.406651e-08    3.232538e-11    2.194722e-08   -2.084790e+00
    1.011446e+01    1.146835e+03    1.376461e-01    9.251745e+06    2.394989e-08    3.131465e-11    2.179423e-08   -2.079789e+00
    1.028359e+01    1.170850e+03    1.308030e-01    8.983290e+06    2.383127e-08    3.033569e-11    2.163862e-08   -2.074790e+00
    1.045447e+01    1.194736e+03    1.241943e-01    8.715254e+06    2.371067e-08    2.938746e-11    2.148036e-08   -2.069789e+00
    1.062688e+01    1.218439e+03    1.178184e-01    8.447862e+06    2.358807e-08    2.846896e-11    2.131945e-08   -2.064789e+00
    1.080063e+01    1.241906e+03    1.116731e-01    8.181358e+06    2.346349e-08    2.757924e-11    2.115591e-08   -2.059789e+00
    1.097548e+01    1.265080e+03    1.057562e-01    7.916001e+06    2.333693e-08    2.671733e-11    2.098972e-08   -2.054790e+00
    1.115118e+01    1.287901e+03    1.000650e-01    7.652057e+06    2.320839e-08    2.588237e-11    2.082090e-08   -2.049790e+00
    1.132746e+01    1.310309e+03    9.459680e-02    7.389806e+06    2.307789e-08    2.507346e-11    2.064946e-08   -2.044790e+00
    1.150404e+01    1.332243e+03    8.934855e-02    7.129545e+06    2.294544e-08    2.428978e-11    2.047540e-08   -2.039789e+00
    1.168062e+01    1.353642e+03    8.431700e-02    6.871566e+06    2.281105e-08    2.353051e-11    2.029875e-08   -2.034790e+00
    1.185687e+01    1.374442e+03    7.949860e-02    6.616177e+06    2.267475e-08    2.279488e-11    2.011952e-08   -2.029789e+00
    1.203248e+01    1.394582e+03    7.488965e-02    6.363696e+06    2.253655e-08    2.208213e-11    1.993773e-08   -2.024789e+00
    1.220709e+01    1.414001e+03    7.048615e-02    6.114431e+06    2.239648e-08    2.139152e-11    1.975342e-08   -2.019789e+00
