# sky130 pfet_01v8 gm/ID Processed Lookup Table
# Corner: ss
# Temperature: 75C
# W = 2.0 um
# L = 1.98 um (1980 nm)
# Columns: gm/id [1/V]  gm/gds [V/V]  id/W [A/m]  ft [Hz]  Cgg/W [F/m]  Cgd/W [F/m]  Cgs/W [F/m]  Vov [V]
#         gm/id          gm/gds            id/W              ft           Cgg/W           Cgd/W           Cgs/W             Vov
    1.834192e+00    3.485151e+00    8.294865e+00    2.056630e+08    1.177384e-08    1.124751e-09    1.062536e-08   -2.763670e+00
    1.852657e+00    3.583352e+00    8.218760e+00    2.062053e+08    1.175227e-08    1.094576e-09    1.062741e-08   -2.758670e+00
    1.871379e+00    3.686226e+00    8.142600e+00    2.067352e+08    1.173088e-08    1.064849e-09    1.062924e-08   -2.753670e+00
    1.890361e+00    3.794057e+00    8.066385e+00    2.072516e+08    1.170971e-08    1.035583e-09    1.063081e-08   -2.748670e+00
    1.909605e+00    3.907148e+00    7.990115e+00    2.077539e+08    1.168873e-08    1.006790e-09    1.063216e-08   -2.743670e+00
    1.929109e+00    4.025822e+00    7.913805e+00    2.082412e+08    1.166798e-08    9.784790e-10    1.063326e-08   -2.738670e+00
    1.948876e+00    4.150424e+00    7.837455e+00    2.087124e+08    1.164746e-08    9.506625e-10    1.063412e-08   -2.733670e+00
    1.968904e+00    4.281316e+00    7.761065e+00    2.091666e+08    1.162716e-08    9.233485e-10    1.063473e-08   -2.728670e+00
    1.989194e+00    4.418888e+00    7.684645e+00    2.096029e+08    1.160710e-08    8.965450e-10    1.063510e-08   -2.723670e+00
    2.009743e+00    4.563551e+00    7.608205e+00    2.100203e+08    1.158729e-08    8.702590e-10    1.063522e-08   -2.718670e+00
    2.030553e+00    4.715743e+00    7.531745e+00    2.104178e+08    1.156771e-08    8.444975e-10    1.063510e-08   -2.713670e+00
    2.051621e+00    4.875926e+00    7.455270e+00    2.107942e+08    1.154840e-08    8.192655e-10    1.063472e-08   -2.708670e+00
    2.072944e+00    5.044589e+00    7.378790e+00    2.111487e+08    1.152934e-08    7.945675e-10    1.063411e-08   -2.703670e+00
    2.094519e+00    5.222253e+00    7.302315e+00    2.114801e+08    1.151054e-08    7.704065e-10    1.063324e-08   -2.698670e+00
    2.116347e+00    5.409461e+00    7.225845e+00    2.117875e+08    1.149199e-08    7.467855e-10    1.063213e-08   -2.693670e+00
    2.138421e+00    5.606789e+00    7.149395e+00    2.120698e+08    1.147371e-08    7.237055e-10    1.063078e-08   -2.688670e+00
    2.160739e+00    5.814838e+00    7.072965e+00    2.123257e+08    1.145570e-08    7.011675e-10    1.062917e-08   -2.683670e+00
    2.183297e+00    6.034248e+00    6.996570e+00    2.125544e+08    1.143795e-08    6.791715e-10    1.062733e-08   -2.678670e+00
    2.206091e+00    6.265678e+00    6.920210e+00    2.127548e+08    1.142046e-08    6.577160e-10    1.062525e-08   -2.673670e+00
    2.229116e+00    6.509827e+00    6.843905e+00    2.129260e+08    1.140324e-08    6.367990e-10    1.062292e-08   -2.668670e+00
    2.252369e+00    6.767416e+00    6.767655e+00    2.130669e+08    1.138628e-08    6.164185e-10    1.062036e-08   -2.663670e+00
    2.275842e+00    7.039196e+00    6.691475e+00    2.131767e+08    1.136958e-08    5.965710e-10    1.061755e-08   -2.658670e+00
    2.299534e+00    7.325950e+00    6.615370e+00    2.132544e+08    1.135314e-08    5.772515e-10    1.061452e-08   -2.653670e+00
    2.323436e+00    7.628485e+00    6.539355e+00    2.132992e+08    1.133696e-08    5.584560e-10    1.061125e-08   -2.648670e+00
    2.347546e+00    7.947638e+00    6.463440e+00    2.133104e+08    1.132103e-08    5.401790e-10    1.060775e-08   -2.643670e+00
    2.371862e+00    8.284260e+00    6.387625e+00    2.132873e+08    1.130535e-08    5.224145e-10    1.060402e-08   -2.638670e+00
    2.396374e+00    8.639238e+00    6.311935e+00    2.132291e+08    1.128992e-08    5.051555e-10    1.060006e-08   -2.633670e+00
    2.421081e+00    9.013467e+00    6.236375e+00    2.131354e+08    1.127473e-08    4.883950e-10    1.059588e-08   -2.628670e+00
    2.445982e+00    9.407865e+00    6.160950e+00    2.130057e+08    1.125978e-08    4.721256e-10    1.059148e-08   -2.623670e+00
    2.471069e+00    9.823367e+00    6.085680e+00    2.128397e+08    1.124505e-08    4.563393e-10    1.058685e-08   -2.618670e+00
    2.496341e+00    1.026091e+01    6.010575e+00    2.126370e+08    1.123056e-08    4.410278e-10    1.058201e-08   -2.613670e+00
    2.521798e+00    1.072146e+01    5.935640e+00    2.123974e+08    1.121628e-08    4.261823e-10    1.057695e-08   -2.608670e+00
    2.547437e+00    1.120597e+01    5.860895e+00    2.121210e+08    1.120221e-08    4.117938e-10    1.057167e-08   -2.603670e+00
    2.573260e+00    1.171540e+01    5.786340e+00    2.118075e+08    1.118836e-08    3.978531e-10    1.056619e-08   -2.598670e+00
    2.599264e+00    1.225072e+01    5.712000e+00    2.114572e+08    1.117471e-08    3.843507e-10    1.056049e-08   -2.593670e+00
    2.625454e+00    1.281289e+01    5.637875e+00    2.110703e+08    1.116125e-08    3.712770e-10    1.055458e-08   -2.588670e+00
    2.651828e+00    1.340288e+01    5.563985e+00    2.106470e+08    1.114798e-08    3.586222e-10    1.054848e-08   -2.583670e+00
    2.678394e+00    1.402161e+01    5.490330e+00    2.101876e+08    1.113489e-08    3.463764e-10    1.054216e-08   -2.578670e+00
    2.705149e+00    1.467004e+01    5.416935e+00    2.096926e+08    1.112197e-08    3.345295e-10    1.053564e-08   -2.573670e+00
    2.732104e+00    1.534909e+01    5.343800e+00    2.091626e+08    1.110922e-08    3.230716e-10    1.052892e-08   -2.568670e+00
    2.759262e+00    1.605966e+01    5.270940e+00    2.085981e+08    1.109662e-08    3.119926e-10    1.052199e-08   -2.563670e+00
    2.786629e+00    1.680265e+01    5.198365e+00    2.079996e+08    1.108418e-08    3.012824e-10    1.051487e-08   -2.558670e+00
    2.814214e+00    1.757895e+01    5.126085e+00    2.073681e+08    1.107188e-08    2.909310e-10    1.050754e-08   -2.553670e+00
    2.842024e+00    1.838941e+01    5.054110e+00    2.067039e+08    1.105971e-08    2.809284e-10    1.050002e-08   -2.548670e+00
    2.870067e+00    1.923484e+01    4.982448e+00    2.060082e+08    1.104766e-08    2.712647e-10    1.049230e-08   -2.543670e+00
    2.898354e+00    2.011611e+01    4.911112e+00    2.052815e+08    1.103574e-08    2.619302e-10    1.048439e-08   -2.538670e+00
    2.926893e+00    2.103399e+01    4.840109e+00    2.045247e+08    1.102393e-08    2.529150e-10    1.047627e-08   -2.533670e+00
    2.955698e+00    2.198925e+01    4.769450e+00    2.037388e+08    1.101222e-08    2.442097e-10    1.046796e-08   -2.528670e+00
    2.984778e+00    2.298268e+01    4.699141e+00    2.029244e+08    1.100060e-08    2.358047e-10    1.045945e-08   -2.523670e+00
    3.014145e+00    2.401502e+01    4.629194e+00    2.020825e+08    1.098907e-08    2.276909e-10    1.045074e-08   -2.518670e+00
    3.043812e+00    2.508699e+01    4.559614e+00    2.012140e+08    1.097762e-08    2.198589e-10    1.044184e-08   -2.513670e+00
    3.073793e+00    2.619927e+01    4.490410e+00    2.003196e+08    1.096623e-08    2.122999e-10    1.043273e-08   -2.508670e+00
    3.104100e+00    2.735264e+01    4.421590e+00    1.994002e+08    1.095491e-08    2.050052e-10    1.042343e-08   -2.503670e+00
    3.134748e+00    2.854773e+01    4.353162e+00    1.984567e+08    1.094364e-08    1.979660e-10    1.041393e-08   -2.498670e+00
    3.165751e+00    2.978525e+01    4.285132e+00    1.974899e+08    1.093241e-08    1.911740e-10    1.040422e-08   -2.493670e+00
    3.197123e+00    3.106586e+01    4.217508e+00    1.965006e+08    1.092123e-08    1.846209e-10    1.039430e-08   -2.488670e+00
    3.228880e+00    3.239024e+01    4.150296e+00    1.954895e+08    1.091007e-08    1.782988e-10    1.038419e-08   -2.483670e+00
    3.261037e+00    3.375906e+01    4.083502e+00    1.944575e+08    1.089893e-08    1.721999e-10    1.037387e-08   -2.478670e+00
    3.293610e+00    3.517298e+01    4.017133e+00    1.934051e+08    1.088781e-08    1.663165e-10    1.036333e-08   -2.473670e+00
    3.326615e+00    3.663268e+01    3.951195e+00    1.923333e+08    1.087669e-08    1.606412e-10    1.035259e-08   -2.468670e+00
    3.360069e+00    3.813884e+01    3.885694e+00    1.912426e+08    1.086557e-08    1.551668e-10    1.034163e-08   -2.463670e+00
    3.393989e+00    3.969216e+01    3.820635e+00    1.901337e+08    1.085443e-08    1.498864e-10    1.033046e-08   -2.458670e+00
    3.428392e+00    4.129331e+01    3.756023e+00    1.890072e+08    1.084327e-08    1.447931e-10    1.031906e-08   -2.453670e+00
    3.463295e+00    4.294303e+01    3.691866e+00    1.878639e+08    1.083209e-08    1.398804e-10    1.030744e-08   -2.448670e+00
    3.498718e+00    4.464204e+01    3.628165e+00    1.867040e+08    1.082088e-08    1.351418e-10    1.029559e-08   -2.443670e+00
    3.534676e+00    4.639107e+01    3.564928e+00    1.855283e+08    1.080962e-08    1.305712e-10    1.028352e-08   -2.438670e+00
    3.571192e+00    4.819093e+01    3.502158e+00    1.843375e+08    1.079830e-08    1.261625e-10    1.027120e-08   -2.433670e+00
    3.608281e+00    5.004236e+01    3.439861e+00    1.831318e+08    1.078693e-08    1.219100e-10    1.025866e-08   -2.428670e+00
    3.645967e+00    5.194622e+01    3.378039e+00    1.819117e+08    1.077548e-08    1.178081e-10    1.024587e-08   -2.423670e+00
    3.684265e+00    5.390332e+01    3.316699e+00    1.806777e+08    1.076397e-08    1.138512e-10    1.023283e-08   -2.418670e+00
    3.723199e+00    5.591456e+01    3.255845e+00    1.794304e+08    1.075236e-08    1.100343e-10    1.021955e-08   -2.413670e+00
    3.762791e+00    5.798086e+01    3.195480e+00    1.781700e+08    1.074068e-08    1.063522e-10    1.020600e-08   -2.408670e+00
    3.803060e+00    6.010315e+01    3.135607e+00    1.768970e+08    1.072888e-08    1.027999e-10    1.019220e-08   -2.403670e+00
    3.844026e+00    6.228236e+01    3.076232e+00    1.756116e+08    1.071698e-08    9.937285e-11    1.017812e-08   -2.398670e+00
    3.885717e+00    6.451960e+01    3.017357e+00    1.743143e+08    1.070496e-08    9.606635e-11    1.016378e-08   -2.393670e+00
    3.928152e+00    6.681586e+01    2.958987e+00    1.730052e+08    1.069282e-08    9.287610e-11    1.014916e-08   -2.388670e+00
    3.971358e+00    6.917231e+01    2.901125e+00    1.716849e+08    1.068055e-08    8.979775e-11    1.013425e-08   -2.383670e+00
    4.015356e+00    7.159004e+01    2.843774e+00    1.703535e+08    1.066813e-08    8.682730e-11    1.011905e-08   -2.378670e+00
    4.060172e+00    7.407026e+01    2.786938e+00    1.690113e+08    1.065556e-08    8.396070e-11    1.010356e-08   -2.373670e+00
    4.105834e+00    7.661424e+01    2.730621e+00    1.676585e+08    1.064284e-08    8.119420e-11    1.008776e-08   -2.368670e+00
    4.152366e+00    7.922325e+01    2.674825e+00    1.662954e+08    1.062994e-08    7.852415e-11    1.007165e-08   -2.363670e+00
    4.199796e+00    8.189866e+01    2.619554e+00    1.649221e+08    1.061688e-08    7.594700e-11    1.005523e-08   -2.358670e+00
    4.248151e+00    8.464185e+01    2.564810e+00    1.635388e+08    1.060362e-08    7.345930e-11    1.003848e-08   -2.353670e+00
    4.297461e+00    8.745431e+01    2.510598e+00    1.621458e+08    1.059018e-08    7.105780e-11    1.002139e-08   -2.348670e+00
    4.347754e+00    9.033750e+01    2.456919e+00    1.607431e+08    1.057654e-08    6.873935e-11    1.000398e-08   -2.343670e+00
    4.399061e+00    9.329308e+01    2.403777e+00    1.593309e+08    1.056269e-08    6.650090e-11    9.986200e-09   -2.338670e+00
    4.451415e+00    9.632262e+01    2.351176e+00    1.579094e+08    1.054861e-08    6.433955e-11    9.968075e-09   -2.333670e+00
    4.504845e+00    9.942785e+01    2.299118e+00    1.564787e+08    1.053431e-08    6.225245e-11    9.949580e-09   -2.328670e+00
    4.559388e+00    1.026105e+02    2.247606e+00    1.550388e+08    1.051978e-08    6.023690e-11    9.930710e-09   -2.323670e+00
    4.615072e+00    1.058725e+02    2.196642e+00    1.535897e+08    1.050499e-08    5.829025e-11    9.911460e-09   -2.318670e+00
    4.671936e+00    1.092156e+02    2.146230e+00    1.521318e+08    1.048995e-08    5.641005e-11    9.891815e-09   -2.313670e+00
    4.730019e+00    1.126420e+02    2.096372e+00    1.506649e+08    1.047465e-08    5.459385e-11    9.871770e-09   -2.308670e+00
    4.789350e+00    1.161534e+02    2.047072e+00    1.491890e+08    1.045907e-08    5.283935e-11    9.851315e-09   -2.303670e+00
    4.849974e+00    1.197522e+02    1.998331e+00    1.477043e+08    1.044321e-08    5.114425e-11    9.830435e-09   -2.298670e+00
    4.911926e+00    1.234404e+02    1.950155e+00    1.462108e+08    1.042705e-08    4.950649e-11    9.809125e-09   -2.293670e+00
    4.975248e+00    1.272203e+02    1.902543e+00    1.447084e+08    1.041060e-08    4.792392e-11    9.787370e-09   -2.288670e+00
    5.039981e+00    1.310942e+02    1.855499e+00    1.431971e+08    1.039383e-08    4.639458e-11    9.765165e-09   -2.283670e+00
    5.106166e+00    1.350646e+02    1.809027e+00    1.416770e+08    1.037673e-08    4.491654e-11    9.742495e-09   -2.278670e+00
    5.173847e+00    1.391338e+02    1.763128e+00    1.401480e+08    1.035930e-08    4.348797e-11    9.719355e-09   -2.273670e+00
    5.243069e+00    1.433043e+02    1.717806e+00    1.386101e+08    1.034153e-08    4.210708e-11    9.695725e-09   -2.268670e+00
    5.313879e+00    1.475790e+02    1.673063e+00    1.370632e+08    1.032341e-08    4.077217e-11    9.671595e-09   -2.263670e+00
    5.386320e+00    1.519603e+02    1.628902e+00    1.355072e+08    1.030492e-08    3.948160e-11    9.646960e-09   -2.258670e+00
    5.460445e+00    1.564509e+02    1.585326e+00    1.339422e+08    1.028606e-08    3.823380e-11    9.621800e-09   -2.253670e+00
    5.536298e+00    1.610538e+02    1.542337e+00    1.323680e+08    1.026682e-08    3.702723e-11    9.596110e-09   -2.248670e+00
    5.613930e+00    1.657717e+02    1.499939e+00    1.307845e+08    1.024718e-08    3.586044e-11    9.569870e-09   -2.243670e+00
    5.693394e+00    1.706076e+02    1.458133e+00    1.291917e+08    1.022713e-08    3.473201e-11    9.543075e-09   -2.238670e+00
    5.774737e+00    1.755644e+02    1.416923e+00    1.275893e+08    1.020667e-08    3.364061e-11    9.515710e-09   -2.233670e+00
    5.858019e+00    1.806453e+02    1.376310e+00    1.259775e+08    1.018578e-08    3.258491e-11    9.487760e-09   -2.228670e+00
    5.943290e+00    1.858532e+02    1.336299e+00    1.243560e+08    1.016445e-08    3.156368e-11    9.459215e-09   -2.223670e+00
    6.030603e+00    1.911913e+02    1.296891e+00    1.227247e+08    1.014267e-08    3.057570e-11    9.430060e-09   -2.218670e+00
    6.120014e+00    1.966626e+02    1.258090e+00    1.210835e+08    1.012044e-08    2.961981e-11    9.400280e-09   -2.213670e+00
    6.211580e+00    2.022704e+02    1.219896e+00    1.194323e+08    1.009773e-08    2.869490e-11    9.369870e-09   -2.208670e+00
    6.305352e+00    2.080177e+02    1.182316e+00    1.177709e+08    1.007454e-08    2.779989e-11    9.338805e-09   -2.203670e+00
    6.401395e+00    2.139078e+02    1.145348e+00    1.160993e+08    1.005085e-08    2.693374e-11    9.307075e-09   -2.198670e+00
    6.499755e+00    2.199437e+02    1.108998e+00    1.144172e+08    1.002667e-08    2.609546e-11    9.274675e-09   -2.193670e+00
    6.600492e+00    2.261285e+02    1.073267e+00    1.127247e+08    1.000196e-08    2.528409e-11    9.241580e-09   -2.188670e+00
    6.703666e+00    2.324655e+02    1.038158e+00    1.110217e+08    9.976730e-09    2.449871e-11    9.207780e-09   -2.183670e+00
    6.809329e+00    2.389573e+02    1.003673e+00    1.093079e+08    9.950960e-09    2.373842e-11    9.173260e-09   -2.178670e+00
    6.917527e+00    2.456068e+02    9.698155e-01    1.075834e+08    9.924645e-09    2.300238e-11    9.138015e-09   -2.173670e+00
    7.028331e+00    2.524171e+02    9.365865e-01    1.058481e+08    9.897770e-09    2.228975e-11    9.102020e-09   -2.168670e+00
    7.141781e+00    2.593907e+02    9.039895e-01    1.041019e+08    9.870320e-09    2.159975e-11    9.065265e-09   -2.163670e+00
    7.257922e+00    2.665298e+02    8.720265e-01    1.023448e+08    9.842295e-09    2.093161e-11    9.027740e-09   -2.158670e+00
    7.376809e+00    2.738370e+02    8.406995e-01    1.005768e+08    9.813675e-09    2.028458e-11    8.989425e-09   -2.153670e+00
    7.498489e+00    2.813141e+02    8.100105e-01    9.879794e+07    9.784455e-09    1.965797e-11    8.950315e-09   -2.148670e+00
    7.622992e+00    2.889626e+02    7.799615e-01    9.700814e+07    9.754625e-09    1.905109e-11    8.910385e-09   -2.143670e+00
    7.750370e+00    2.967844e+02    7.505545e-01    9.520774e+07    9.724170e-09    1.846327e-11    8.869635e-09   -2.138670e+00
    7.880641e+00    3.047802e+02    7.217915e-01    9.339673e+07    9.693080e-09    1.789389e-11    8.828045e-09   -2.133670e+00
    8.013848e+00    3.129508e+02    6.936730e-01    9.157522e+07    9.661355e-09    1.734234e-11    8.785600e-09   -2.128670e+00
    8.149991e+00    3.212961e+02    6.662020e-01    8.974352e+07    9.628975e-09    1.680801e-11    8.742295e-09   -2.123670e+00
    8.289111e+00    3.298161e+02    6.393780e-01    8.790194e+07    9.595935e-09    1.629036e-11    8.698110e-09   -2.118670e+00
    8.431198e+00    3.385099e+02    6.132035e-01    8.605083e+07    9.562225e-09    1.578882e-11    8.653040e-09   -2.113670e+00
    8.576261e+00    3.473756e+02    5.876780e-01    8.419050e+07    9.527840e-09    1.530287e-11    8.607070e-09   -2.108670e+00
    8.724286e+00    3.564111e+02    5.628025e-01    8.232151e+07    9.492765e-09    1.483200e-11    8.560190e-09   -2.103670e+00
    8.875254e+00    3.656136e+02    5.385775e-01    8.044438e+07    9.457000e-09    1.437572e-11    8.512390e-09   -2.098670e+00
    9.029138e+00    3.749792e+02    5.150025e-01    7.855977e+07    9.420535e-09    1.393355e-11    8.463660e-09   -2.093670e+00
    9.185898e+00    3.845032e+02    4.920771e-01    7.666837e+07    9.383365e-09    1.350504e-11    8.413990e-09   -2.088670e+00
    9.345477e+00    3.941799e+02    4.698004e-01    7.477104e+07    9.345480e-09    1.308976e-11    8.363370e-09   -2.083670e+00
    9.507808e+00    4.040026e+02    4.481715e-01    7.286868e+07    9.306875e-09    1.268726e-11    8.311795e-09   -2.078670e+00
    9.672810e+00    4.139637e+02    4.271886e-01    7.096226e+07    9.267550e-09    1.229714e-11    8.259255e-09   -2.073670e+00
    9.840381e+00    4.240542e+02    4.068496e-01    6.905293e+07    9.227495e-09    1.191901e-11    8.205745e-09   -2.068670e+00
    1.001041e+01    4.342641e+02    3.871521e-01    6.714193e+07    9.186705e-09    1.155248e-11    8.151260e-09   -2.063670e+00
    1.018276e+01    4.445822e+02    3.680930e-01    6.523051e+07    9.145185e-09    1.119718e-11    8.095795e-09   -2.058670e+00
    1.035729e+01    4.549958e+02    3.496688e-01    6.332018e+07    9.102925e-09    1.085276e-11    8.039345e-09   -2.053670e+00
    1.053383e+01    4.654907e+02    3.318753e-01    6.141244e+07    9.059930e-09    1.051888e-11    7.981905e-09   -2.048670e+00
    1.071218e+01    4.760523e+02    3.147080e-01    5.950898e+07    9.016190e-09    1.019520e-11    7.923470e-09   -2.043670e+00
    1.089214e+01    4.866636e+02    2.981614e-01    5.761151e+07    8.971715e-09    9.881390e-12    7.864050e-09   -2.038670e+00
    1.107349e+01    4.973071e+02    2.822297e-01    5.572192e+07    8.926500e-09    9.577160e-12    7.803630e-09   -2.033670e+00
    1.125597e+01    5.079633e+02    2.669064e-01    5.384213e+07    8.880550e-09    9.282205e-12    7.742225e-09   -2.028670e+00
    1.143932e+01    5.186120e+02    2.521843e-01    5.197420e+07    8.833865e-09    8.996225e-12    7.679830e-09   -2.023670e+00
    1.162326e+01    5.292317e+02    2.380555e-01    5.012023e+07    8.786450e-09    8.718955e-12    7.616450e-09   -2.018670e+00
    1.180749e+01    5.397995e+02    2.245116e-01    4.828241e+07    8.738310e-09    8.450115e-12    7.552085e-09   -2.013670e+00
    1.199168e+01    5.502924e+02    2.115432e-01    4.646296e+07    8.689450e-09    8.189445e-12    7.486750e-09   -2.008670e+00
