# sky130 pfet_01v8 gm/ID Processed Lookup Table
# Corner: ss
# Temperature: 75C
# W = 2.0 um
# L = 4.14 um (4140 nm)
# Columns: gm/id [1/V]  gm/gds [V/V]  id/W [A/m]  ft [Hz]  Cgg/W [F/m]  Cgd/W [F/m]  Cgs/W [F/m]  Vov [V]
#         gm/id          gm/gds            id/W              ft           Cgg/W           Cgd/W           Cgs/W             Vov
    1.914282e+00    4.085359e+00    4.096167e+00    5.140676e+07    2.427636e-08    2.442157e-09    2.215335e-08   -2.772913e+00
    1.933398e+00    4.215072e+00    4.056955e+00    5.152480e+07    2.422843e-08    2.376582e-09    2.215729e-08   -2.767913e+00
    1.952771e+00    4.351672e+00    4.017732e+00    5.163925e+07    2.418090e-08    2.311928e-09    2.216074e-08   -2.762913e+00
    1.972401e+00    4.495623e+00    3.978499e+00    5.174988e+07    2.413378e-08    2.248228e-09    2.216369e-08   -2.757913e+00
    1.992286e+00    4.647417e+00    3.939261e+00    5.185640e+07    2.408708e-08    2.185511e-09    2.216614e-08   -2.752913e+00
    2.012425e+00    4.807582e+00    3.900018e+00    5.195853e+07    2.404084e-08    2.123804e-09    2.216808e-08   -2.747913e+00
    2.032818e+00    4.976693e+00    3.860777e+00    5.205605e+07    2.399507e-08    2.063132e-09    2.216951e-08   -2.742913e+00
    2.053460e+00    5.155351e+00    3.821537e+00    5.214864e+07    2.394978e-08    2.003519e-09    2.217043e-08   -2.737913e+00
    2.074351e+00    5.344211e+00    3.782304e+00    5.223603e+07    2.390499e-08    1.944986e-09    2.217082e-08   -2.732913e+00
    2.095487e+00    5.543966e+00    3.743080e+00    5.231795e+07    2.386071e-08    1.887551e-09    2.217069e-08   -2.727913e+00
    2.116866e+00    5.755366e+00    3.703870e+00    5.239413e+07    2.381697e-08    1.831235e-09    2.217005e-08   -2.722913e+00
    2.138483e+00    5.979191e+00    3.664675e+00    5.246426e+07    2.377376e-08    1.776049e-09    2.216888e-08   -2.717913e+00
    2.160333e+00    6.216291e+00    3.625502e+00    5.252801e+07    2.373110e-08    1.722008e-09    2.216717e-08   -2.712913e+00
    2.182411e+00    6.467564e+00    3.586354e+00    5.258515e+07    2.368901e-08    1.669121e-09    2.216496e-08   -2.707913e+00
    2.204715e+00    6.733961e+00    3.547235e+00    5.263538e+07    2.364747e-08    1.617398e-09    2.216221e-08   -2.702913e+00
    2.227237e+00    7.016497e+00    3.508149e+00    5.267844e+07    2.360651e-08    1.566845e-09    2.215893e-08   -2.697913e+00
    2.249973e+00    7.316240e+00    3.469101e+00    5.271405e+07    2.356612e-08    1.517467e-09    2.215513e-08   -2.692913e+00
    2.272917e+00    7.634325e+00    3.430097e+00    5.274196e+07    2.352631e-08    1.469264e-09    2.215082e-08   -2.687913e+00
    2.296061e+00    7.971944e+00    3.391140e+00    5.276188e+07    2.348708e-08    1.422238e-09    2.214599e-08   -2.682913e+00
    2.319403e+00    8.330358e+00    3.352235e+00    5.277363e+07    2.344844e-08    1.376387e-09    2.214064e-08   -2.677913e+00
    2.342933e+00    8.710886e+00    3.313389e+00    5.277694e+07    2.341037e-08    1.331707e-09    2.213477e-08   -2.672913e+00
    2.366649e+00    9.114918e+00    3.274607e+00    5.277168e+07    2.337288e-08    1.288193e-09    2.212840e-08   -2.667913e+00
    2.390541e+00    9.543893e+00    3.235893e+00    5.275755e+07    2.333597e-08    1.245838e-09    2.212152e-08   -2.662913e+00
    2.414608e+00    9.999339e+00    3.197254e+00    5.273452e+07    2.329963e-08    1.204632e-09    2.211414e-08   -2.657913e+00
    2.438843e+00    1.048281e+01    3.158694e+00    5.270237e+07    2.326384e-08    1.164565e-09    2.210626e-08   -2.652913e+00
    2.463243e+00    1.099596e+01    3.120220e+00    5.266101e+07    2.322862e-08    1.125626e-09    2.209788e-08   -2.647913e+00
    2.487802e+00    1.154045e+01    3.081837e+00    5.261032e+07    2.319395e-08    1.087801e-09    2.208901e-08   -2.642913e+00
    2.512520e+00    1.211806e+01    3.043552e+00    5.255032e+07    2.315981e-08    1.051076e-09    2.207966e-08   -2.637913e+00
    2.537392e+00    1.273056e+01    3.005370e+00    5.248090e+07    2.312620e-08    1.015434e-09    2.206983e-08   -2.632913e+00
    2.562418e+00    1.337980e+01    2.967296e+00    5.240205e+07    2.309312e-08    9.808600e-10    2.205951e-08   -2.627913e+00
    2.587596e+00    1.406765e+01    2.929337e+00    5.231384e+07    2.306053e-08    9.473360e-10    2.204873e-08   -2.622913e+00
    2.612929e+00    1.479608e+01    2.891498e+00    5.221630e+07    2.302845e-08    9.148430e-10    2.203748e-08   -2.617913e+00
    2.638416e+00    1.556702e+01    2.853786e+00    5.210948e+07    2.299684e-08    8.833615e-10    2.202576e-08   -2.612913e+00
    2.664058e+00    1.638244e+01    2.816206e+00    5.199344e+07    2.296570e-08    8.528720e-10    2.201358e-08   -2.607913e+00
    2.689863e+00    1.724440e+01    2.778763e+00    5.186840e+07    2.293501e-08    8.233535e-10    2.200095e-08   -2.602913e+00
    2.715830e+00    1.815490e+01    2.741462e+00    5.173440e+07    2.290475e-08    7.947850e-10    2.198785e-08   -2.597913e+00
    2.741967e+00    1.911599e+01    2.704311e+00    5.159164e+07    2.287492e-08    7.671455e-10    2.197431e-08   -2.592913e+00
    2.768281e+00    2.012974e+01    2.667312e+00    5.144032e+07    2.284549e-08    7.404130e-10    2.196032e-08   -2.587913e+00
    2.794774e+00    2.119818e+01    2.630474e+00    5.128056e+07    2.281645e-08    7.145650e-10    2.194589e-08   -2.582913e+00
    2.821460e+00    2.232339e+01    2.593799e+00    5.111263e+07    2.278779e-08    6.895800e-10    2.193102e-08   -2.577913e+00
    2.848344e+00    2.350741e+01    2.557292e+00    5.093671e+07    2.275947e-08    6.654350e-10    2.191570e-08   -2.572913e+00
    2.875437e+00    2.475227e+01    2.520960e+00    5.075303e+07    2.273149e-08    6.421080e-10    2.189994e-08   -2.567913e+00
    2.902749e+00    2.606001e+01    2.484805e+00    5.056183e+07    2.270383e-08    6.195765e-10    2.188376e-08   -2.562913e+00
    2.930289e+00    2.743262e+01    2.448834e+00    5.036331e+07    2.267648e-08    5.978185e-10    2.186714e-08   -2.557913e+00
    2.958074e+00    2.887213e+01    2.413049e+00    5.015781e+07    2.264940e-08    5.768115e-10    2.185008e-08   -2.552913e+00
    2.986109e+00    3.038046e+01    2.377455e+00    4.994544e+07    2.262259e-08    5.565340e-10    2.183259e-08   -2.547913e+00
    3.014411e+00    3.195955e+01    2.342057e+00    4.972651e+07    2.259602e-08    5.369640e-10    2.181466e-08   -2.542913e+00
    3.042991e+00    3.361132e+01    2.306857e+00    4.950124e+07    2.256968e-08    5.180800e-10    2.179631e-08   -2.537913e+00
    3.071863e+00    3.533765e+01    2.271861e+00    4.926988e+07    2.254355e-08    4.998606e-10    2.177751e-08   -2.532913e+00
    3.101045e+00    3.714044e+01    2.237070e+00    4.903268e+07    2.251761e-08    4.822854e-10    2.175829e-08   -2.527913e+00
    3.130547e+00    3.902146e+01    2.202489e+00    4.878982e+07    2.249184e-08    4.653336e-10    2.173862e-08   -2.522913e+00
    3.160384e+00    4.098254e+01    2.168121e+00    4.854153e+07    2.246622e-08    4.489851e-10    2.171852e-08   -2.517913e+00
    3.190571e+00    4.302543e+01    2.133969e+00    4.828804e+07    2.244074e-08    4.332203e-10    2.169798e-08   -2.512913e+00
    3.221128e+00    4.515195e+01    2.100036e+00    4.802960e+07    2.241537e-08    4.180196e-10    2.167700e-08   -2.507913e+00
    3.252063e+00    4.736372e+01    2.066325e+00    4.776632e+07    2.239010e-08    4.033644e-10    2.165556e-08   -2.502913e+00
    3.283398e+00    4.966254e+01    2.032839e+00    4.749846e+07    2.236491e-08    3.892360e-10    2.163367e-08   -2.497913e+00
    3.315149e+00    5.205008e+01    1.999580e+00    4.722621e+07    2.233978e-08    3.756166e-10    2.161134e-08   -2.492913e+00
    3.347328e+00    5.452795e+01    1.966551e+00    4.694969e+07    2.231469e-08    3.624884e-10    2.158854e-08   -2.487913e+00
    3.379958e+00    5.709790e+01    1.933753e+00    4.666916e+07    2.228961e-08    3.498347e-10    2.156528e-08   -2.482913e+00
    3.413049e+00    5.976151e+01    1.901192e+00    4.638467e+07    2.226456e-08    3.376384e-10    2.154154e-08   -2.477913e+00
    3.446625e+00    6.252046e+01    1.868866e+00    4.609648e+07    2.223948e-08    3.258837e-10    2.151734e-08   -2.472913e+00
    3.480702e+00    6.537641e+01    1.836779e+00    4.580469e+07    2.221437e-08    3.145547e-10    2.149265e-08   -2.467913e+00
    3.515293e+00    6.833095e+01    1.804934e+00    4.550940e+07    2.218921e-08    3.036364e-10    2.146747e-08   -2.462913e+00
    3.550423e+00    7.138577e+01    1.773331e+00    4.521082e+07    2.216398e-08    2.931137e-10    2.144180e-08   -2.457913e+00
    3.586108e+00    7.454251e+01    1.741974e+00    4.490904e+07    2.213865e-08    2.829725e-10    2.141562e-08   -2.452913e+00
    3.622369e+00    7.780296e+01    1.710862e+00    4.460419e+07    2.211324e-08    2.731990e-10    2.138892e-08   -2.447913e+00
    3.659219e+00    8.116859e+01    1.680001e+00    4.429632e+07    2.208769e-08    2.637797e-10    2.136172e-08   -2.442913e+00
    3.696685e+00    8.464128e+01    1.649389e+00    4.398562e+07    2.206200e-08    2.547015e-10    2.133397e-08   -2.437913e+00
    3.734783e+00    8.822273e+01    1.619028e+00    4.367212e+07    2.203615e-08    2.459521e-10    2.130570e-08   -2.432913e+00
    3.773538e+00    9.191473e+01    1.588922e+00    4.335595e+07    2.201013e-08    2.375192e-10    2.127687e-08   -2.427913e+00
    3.812969e+00    9.571914e+01    1.559070e+00    4.303722e+07    2.198390e-08    2.293912e-10    2.124748e-08   -2.422913e+00
    3.853092e+00    9.963768e+01    1.529475e+00    4.271593e+07    2.195747e-08    2.215567e-10    2.121751e-08   -2.417913e+00
    3.893937e+00    1.036723e+02    1.500139e+00    4.239221e+07    2.193080e-08    2.140048e-10    2.118697e-08   -2.412913e+00
    3.935525e+00    1.078249e+02    1.471062e+00    4.206616e+07    2.190387e-08    2.067249e-10    2.115583e-08   -2.407913e+00
    3.977878e+00    1.120976e+02    1.442245e+00    4.173777e+07    2.187668e-08    1.997071e-10    2.112408e-08   -2.402913e+00
    4.021020e+00    1.164924e+02    1.413691e+00    4.140715e+07    2.184920e-08    1.929413e-10    2.109171e-08   -2.397913e+00
    4.064973e+00    1.210112e+02    1.385401e+00    4.107430e+07    2.182142e-08    1.864183e-10    2.105871e-08   -2.392913e+00
    4.109765e+00    1.256564e+02    1.357376e+00    4.073936e+07    2.179330e-08    1.801289e-10    2.102507e-08   -2.387913e+00
    4.155422e+00    1.304301e+02    1.329616e+00    4.040228e+07    2.176485e-08    1.740644e-10    2.099076e-08   -2.382913e+00
    4.201971e+00    1.353348e+02    1.302124e+00    4.006319e+07    2.173603e-08    1.682163e-10    2.095578e-08   -2.377913e+00
    4.249434e+00    1.403725e+02    1.274902e+00    3.972203e+07    2.170683e-08    1.625767e-10    2.092010e-08   -2.372913e+00
    4.297844e+00    1.455460e+02    1.247949e+00    3.937893e+07    2.167723e-08    1.571374e-10    2.088371e-08   -2.367913e+00
    4.347231e+00    1.508578e+02    1.221267e+00    3.903387e+07    2.164721e-08    1.518912e-10    2.084661e-08   -2.362913e+00
    4.397619e+00    1.563103e+02    1.194858e+00    3.868687e+07    2.161675e-08    1.468308e-10    2.080875e-08   -2.357913e+00
    4.449042e+00    1.619063e+02    1.168723e+00    3.833798e+07    2.158583e-08    1.419490e-10    2.077015e-08   -2.352913e+00
    4.501530e+00    1.676485e+02    1.142861e+00    3.798719e+07    2.155444e-08    1.372395e-10    2.073077e-08   -2.347913e+00
    4.555112e+00    1.735398e+02    1.117277e+00    3.763451e+07    2.152255e-08    1.326956e-10    2.069059e-08   -2.342913e+00
    4.609826e+00    1.795832e+02    1.091969e+00    3.727998e+07    2.149013e-08    1.283111e-10    2.064960e-08   -2.337913e+00
    4.665706e+00    1.857818e+02    1.066939e+00    3.692362e+07    2.145719e-08    1.240802e-10    2.060778e-08   -2.332913e+00
    4.722782e+00    1.921386e+02    1.042189e+00    3.656539e+07    2.142369e-08    1.199970e-10    2.056510e-08   -2.327913e+00
    4.781094e+00    1.986569e+02    1.017719e+00    3.620533e+07    2.138961e-08    1.160562e-10    2.052157e-08   -2.322913e+00
    4.840676e+00    2.053400e+02    9.935310e-01    3.584342e+07    2.135493e-08    1.122523e-10    2.047713e-08   -2.317913e+00
    4.901565e+00    2.121912e+02    9.696260e-01    3.547966e+07    2.131963e-08    1.085803e-10    2.043178e-08   -2.312913e+00
    4.963804e+00    2.192142e+02    9.460045e-01    3.511405e+07    2.128369e-08    1.050353e-10    2.038549e-08   -2.307913e+00
    5.027428e+00    2.264125e+02    9.226685e-01    3.474657e+07    2.124710e-08    1.016126e-10    2.033826e-08   -2.302913e+00
    5.092479e+00    2.337896e+02    8.996185e-01    3.437722e+07    2.120982e-08    9.830765e-11    2.029004e-08   -2.297913e+00
    5.159000e+00    2.413496e+02    8.768560e-01    3.400599e+07    2.117184e-08    9.511615e-11    2.024081e-08   -2.292913e+00
    5.227033e+00    2.490960e+02    8.543820e-01    3.363284e+07    2.113314e-08    9.203395e-11    2.019057e-08   -2.287913e+00
    5.296622e+00    2.570329e+02    8.321975e-01    3.325777e+07    2.109369e-08    8.905695e-11    2.013928e-08   -2.282913e+00
    5.367811e+00    2.651644e+02    8.103040e-01    3.288075e+07    2.105347e-08    8.618135e-11    2.008691e-08   -2.277913e+00
    5.440645e+00    2.734943e+02    7.887025e-01    3.250177e+07    2.101245e-08    8.340345e-11    2.003345e-08   -2.272913e+00
    5.515173e+00    2.820269e+02    7.673940e-01    3.212078e+07    2.097064e-08    8.071965e-11    1.997886e-08   -2.267913e+00
    5.591444e+00    2.907663e+02    7.463795e-01    3.173778e+07    2.092798e-08    7.812655e-11    1.992313e-08   -2.262913e+00
    5.669499e+00    2.997166e+02    7.256610e-01    3.135272e+07    2.088446e-08    7.562085e-11    1.986622e-08   -2.257913e+00
    5.749398e+00    3.088822e+02    7.052385e-01    3.096558e+07    2.084008e-08    7.319935e-11    1.980812e-08   -2.252913e+00
    5.831183e+00    3.182672e+02    6.851140e-01    3.057633e+07    2.079478e-08    7.085905e-11    1.974879e-08   -2.247913e+00
    5.914906e+00    3.278758e+02    6.652885e-01    3.018491e+07    2.074856e-08    6.859705e-11    1.968820e-08   -2.242913e+00
    6.000616e+00    3.377123e+02    6.457635e-01    2.979132e+07    2.070140e-08    6.641050e-11    1.962634e-08   -2.237913e+00
    6.088372e+00    3.477809e+02    6.265395e-01    2.939551e+07    2.065327e-08    6.429665e-11    1.956318e-08   -2.232913e+00
    6.178226e+00    3.580857e+02    6.076175e-01    2.899745e+07    2.060414e-08    6.225300e-11    1.949868e-08   -2.227913e+00
    6.270224e+00    3.686304e+02    5.889995e-01    2.859710e+07    2.055399e-08    6.027700e-11    1.943281e-08   -2.222913e+00
    6.364420e+00    3.794196e+02    5.706865e-01    2.819443e+07    2.050281e-08    5.836620e-11    1.936556e-08   -2.217913e+00
    6.460872e+00    3.904562e+02    5.526790e-01    2.778939e+07    2.045056e-08    5.651840e-11    1.929690e-08   -2.212913e+00
    6.559625e+00    4.017442e+02    5.349790e-01    2.738197e+07    2.039723e-08    5.473125e-11    1.922680e-08   -2.207913e+00
    6.660736e+00    4.132871e+02    5.175870e-01    2.697213e+07    2.034279e-08    5.300270e-11    1.915522e-08   -2.202913e+00
    6.764252e+00    4.250877e+02    5.005045e-01    2.655983e+07    2.028722e-08    5.133070e-11    1.908214e-08   -2.197913e+00
    6.870232e+00    4.371487e+02    4.837320e-01    2.614507e+07    2.023049e-08    4.971321e-11    1.900754e-08   -2.192913e+00
    6.978714e+00    4.494727e+02    4.672711e-01    2.572780e+07    2.017260e-08    4.814835e-11    1.893137e-08   -2.187913e+00
    7.089749e+00    4.620617e+02    4.511228e-01    2.530802e+07    2.011350e-08    4.663431e-11    1.885363e-08   -2.182913e+00
    7.203385e+00    4.749177e+02    4.352880e-01    2.488571e+07    2.005319e-08    4.516931e-11    1.877427e-08   -2.177913e+00
    7.319658e+00    4.880407e+02    4.197677e-01    2.446086e+07    1.999163e-08    4.375166e-11    1.869328e-08   -2.172913e+00
    7.438613e+00    5.014318e+02    4.045627e-01    2.403348e+07    1.992881e-08    4.237972e-11    1.861063e-08   -2.167913e+00
    7.560284e+00    5.150908e+02    3.896740e-01    2.360357e+07    1.986470e-08    4.105193e-11    1.852629e-08   -2.162913e+00
    7.684704e+00    5.290163e+02    3.751025e-01    2.317114e+07    1.979930e-08    3.976676e-11    1.844022e-08   -2.157913e+00
    7.811898e+00    5.432067e+02    3.608488e-01    2.273622e+07    1.973257e-08    3.852278e-11    1.835242e-08   -2.152913e+00
    7.941892e+00    5.576595e+02    3.469136e-01    2.229886e+07    1.966450e-08    3.731857e-11    1.826284e-08   -2.147913e+00
    8.074702e+00    5.723706e+02    3.332975e-01    2.185909e+07    1.959506e-08    3.615278e-11    1.817148e-08   -2.142913e+00
    8.210335e+00    5.873353e+02    3.200010e-01    2.141697e+07    1.952425e-08    3.502412e-11    1.807829e-08   -2.137913e+00
    8.348799e+00    6.025476e+02    3.070244e-01    2.097259e+07    1.945203e-08    3.393134e-11    1.798326e-08   -2.132913e+00
    8.490085e+00    6.180001e+02    2.943682e-01    2.052603e+07    1.937840e-08    3.287322e-11    1.788638e-08   -2.127913e+00
    8.634180e+00    6.336842e+02    2.820323e-01    2.007741e+07    1.930334e-08    3.184861e-11    1.778761e-08   -2.122913e+00
    8.781058e+00    6.495896e+02    2.700170e-01    1.962684e+07    1.922684e-08    3.085639e-11    1.768694e-08   -2.117913e+00
    8.930689e+00    6.657046e+02    2.583219e-01    1.917447e+07    1.914887e-08    2.989547e-11    1.758434e-08   -2.112913e+00
    9.083028e+00    6.820159e+02    2.469469e-01    1.872046e+07    1.906943e-08    2.896483e-11    1.747980e-08   -2.107913e+00
    9.238008e+00    6.985078e+02    2.358915e-01    1.826501e+07    1.898851e-08    2.806345e-11    1.737331e-08   -2.102913e+00
    9.395565e+00    7.151636e+02    2.251550e-01    1.780831e+07    1.890610e-08    2.719038e-11    1.726484e-08   -2.097913e+00
    9.555611e+00    7.319640e+02    2.147366e-01    1.735062e+07    1.882217e-08    2.634468e-11    1.715438e-08   -2.092913e+00
    9.718045e+00    7.488878e+02    2.046352e-01    1.689217e+07    1.873673e-08    2.552545e-11    1.704193e-08   -2.087913e+00
    9.882745e+00    7.659121e+02    1.948496e-01    1.643325e+07    1.864978e-08    2.473184e-11    1.692746e-08   -2.082913e+00
    1.004959e+01    7.830117e+02    1.853781e-01    1.597418e+07    1.856130e-08    2.396299e-11    1.681097e-08   -2.077913e+00
    1.021841e+01    8.001591e+02    1.762192e-01    1.551528e+07    1.847129e-08    2.321812e-11    1.669246e-08   -2.072913e+00
    1.038905e+01    8.173245e+02    1.673707e-01    1.505690e+07    1.837975e-08    2.249644e-11    1.657191e-08   -2.067913e+00
    1.056132e+01    8.344768e+02    1.588302e-01    1.459945e+07    1.828668e-08    2.179721e-11    1.644933e-08   -2.062913e+00
    1.073501e+01    8.515818e+02    1.505952e-01    1.414331e+07    1.819208e-08    2.111969e-11    1.632471e-08   -2.057913e+00
    1.090989e+01    8.686042e+02    1.426628e-01    1.368894e+07    1.809595e-08    2.046320e-11    1.619806e-08   -2.052913e+00
    1.108572e+01    8.855066e+02    1.350297e-01    1.323677e+07    1.799829e-08    1.982707e-11    1.606937e-08   -2.047913e+00
    1.126224e+01    9.022500e+02    1.276925e-01    1.278729e+07    1.789912e-08    1.921062e-11    1.593866e-08   -2.042913e+00
    1.143916e+01    9.187935e+02    1.206474e-01    1.234099e+07    1.779845e-08    1.861326e-11    1.580592e-08   -2.037913e+00
    1.161620e+01    9.350962e+02    1.138900e-01    1.189838e+07    1.769628e-08    1.803436e-11    1.567119e-08   -2.032913e+00
    1.179302e+01    9.511146e+02    1.074161e-01    1.145999e+07    1.759262e-08    1.747335e-11    1.553446e-08   -2.027913e+00
    1.196931e+01    9.668058e+02    1.012207e-01    1.102634e+07    1.748750e-08    1.692965e-11    1.539575e-08   -2.022913e+00
    1.214473e+01    9.821268e+02    9.529890e-02    1.059798e+07    1.738093e-08    1.640272e-11    1.525509e-08   -2.017913e+00
