# sky130 pfet_01v8 gm/ID Processed Lookup Table
# Corner: ss
# Temperature: 75C
# W = 2.0 um
# L = 3.24 um (3240 nm)
# Columns: gm/id [1/V]  gm/gds [V/V]  id/W [A/m]  ft [Hz]  Cgg/W [F/m]  Cgd/W [F/m]  Cgs/W [F/m]  Vov [V]
#         gm/id          gm/gds            id/W              ft           Cgg/W           Cgd/W           Cgs/W             Vov
    1.892234e+00    3.892646e+00    5.184425e+00    8.189212e+07    1.906573e-08    1.876457e-09    1.736125e-08   -2.770550e+00
    1.911164e+00    4.011881e+00    5.135360e+00    8.208661e+07    1.902903e-08    1.825957e-09    1.736437e-08   -2.765550e+00
    1.930351e+00    4.137248e+00    5.086280e+00    8.227563e+07    1.899264e-08    1.776188e-09    1.736710e-08   -2.760550e+00
    1.949796e+00    4.269146e+00    5.037180e+00    8.245875e+07    1.895659e-08    1.727173e-09    1.736945e-08   -2.755550e+00
    1.969501e+00    4.408004e+00    4.988066e+00    8.263564e+07    1.892087e-08    1.678931e-09    1.737139e-08   -2.750550e+00
    1.989463e+00    4.554277e+00    4.938941e+00    8.280587e+07    1.888551e-08    1.631485e-09    1.737294e-08   -2.745550e+00
    2.009682e+00    4.708457e+00    4.889808e+00    8.296902e+07    1.885052e-08    1.584850e-09    1.737410e-08   -2.740550e+00
    2.030156e+00    4.871063e+00    4.840672e+00    8.312468e+07    1.881591e-08    1.539045e-09    1.737484e-08   -2.735550e+00
    2.050884e+00    5.042653e+00    4.791536e+00    8.327245e+07    1.878169e-08    1.494085e-09    1.737519e-08   -2.730550e+00
    2.071862e+00    5.223819e+00    4.742405e+00    8.341182e+07    1.874788e-08    1.449983e-09    1.737512e-08   -2.725550e+00
    2.093090e+00    5.415200e+00    4.693282e+00    8.354240e+07    1.871448e-08    1.406751e-09    1.737465e-08   -2.720550e+00
    2.114562e+00    5.617463e+00    4.644171e+00    8.366376e+07    1.868149e-08    1.364401e-09    1.737377e-08   -2.715550e+00
    2.136278e+00    5.831330e+00    4.595080e+00    8.377548e+07    1.864893e-08    1.322940e-09    1.737248e-08   -2.710550e+00
    2.158229e+00    6.057554e+00    4.546010e+00    8.387700e+07    1.861681e-08    1.282374e-09    1.737077e-08   -2.705550e+00
    2.180415e+00    6.296946e+00    4.496968e+00    8.396797e+07    1.858512e-08    1.242712e-09    1.736867e-08   -2.700550e+00
    2.202828e+00    6.550355e+00    4.447959e+00    8.404791e+07    1.855388e-08    1.203954e-09    1.736615e-08   -2.695550e+00
    2.225465e+00    6.818679e+00    4.398989e+00    8.411639e+07    1.852308e-08    1.166106e-09    1.736323e-08   -2.690550e+00
    2.248320e+00    7.102872e+00    4.350063e+00    8.417305e+07    1.849272e-08    1.129165e-09    1.735991e-08   -2.685550e+00
    2.271388e+00    7.403928e+00    4.301188e+00    8.421743e+07    1.846281e-08    1.093133e-09    1.735617e-08   -2.680550e+00
    2.294661e+00    7.722891e+00    4.252369e+00    8.424911e+07    1.843335e-08    1.058006e-09    1.735205e-08   -2.675550e+00
    2.318137e+00    8.060868e+00    4.203612e+00    8.426783e+07    1.840434e-08    1.023781e-09    1.734752e-08   -2.670550e+00
    2.341809e+00    8.419003e+00    4.154925e+00    8.427319e+07    1.837576e-08    9.904530e-10    1.734260e-08   -2.665550e+00
    2.365670e+00    8.798487e+00    4.106314e+00    8.426489e+07    1.834763e-08    9.580160e-10    1.733729e-08   -2.660550e+00
    2.389716e+00    9.200562e+00    4.057785e+00    8.424259e+07    1.831993e-08    9.264625e-10    1.733158e-08   -2.655550e+00
    2.413942e+00    9.626525e+00    4.009347e+00    8.420613e+07    1.829266e-08    8.957830e-10    1.732549e-08   -2.650550e+00
    2.438342e+00    1.007770e+01    3.961005e+00    8.415520e+07    1.826582e-08    8.659690e-10    1.731902e-08   -2.645550e+00
    2.462915e+00    1.055547e+01    3.912767e+00    8.408974e+07    1.823940e-08    8.370090e-10    1.731216e-08   -2.640550e+00
    2.487654e+00    1.106124e+01    3.864639e+00    8.400952e+07    1.821338e-08    8.088920e-10    1.730494e-08   -2.635550e+00
    2.512560e+00    1.159648e+01    3.816630e+00    8.391452e+07    1.818777e-08    7.816050e-10    1.729734e-08   -2.630550e+00
    2.537626e+00    1.216264e+01    3.768747e+00    8.380461e+07    1.816255e-08    7.551345e-10    1.728937e-08   -2.625550e+00
    2.562854e+00    1.276124e+01    3.720995e+00    8.367978e+07    1.813772e-08    7.294675e-10    1.728103e-08   -2.620550e+00
    2.588245e+00    1.339382e+01    3.673385e+00    8.354014e+07    1.811326e-08    7.045895e-10    1.727234e-08   -2.615550e+00
    2.613795e+00    1.406191e+01    3.625922e+00    8.338566e+07    1.808917e-08    6.804845e-10    1.726328e-08   -2.610550e+00
    2.639509e+00    1.476711e+01    3.578613e+00    8.321654e+07    1.806543e-08    6.571370e-10    1.725386e-08   -2.605550e+00
    2.665387e+00    1.551096e+01    3.531467e+00    8.303286e+07    1.804204e-08    6.345320e-10    1.724409e-08   -2.600550e+00
    2.691434e+00    1.629507e+01    3.484489e+00    8.283481e+07    1.801897e-08    6.126525e-10    1.723397e-08   -2.595550e+00
    2.717652e+00    1.712102e+01    3.437686e+00    8.262259e+07    1.799623e-08    5.914820e-10    1.722351e-08   -2.590550e+00
    2.744049e+00    1.799037e+01    3.391066e+00    8.239648e+07    1.797379e-08    5.710040e-10    1.721270e-08   -2.585550e+00
    2.770629e+00    1.890472e+01    3.344636e+00    8.215677e+07    1.795164e-08    5.512010e-10    1.720155e-08   -2.580550e+00
    2.797399e+00    1.986562e+01    3.298401e+00    8.190367e+07    1.792977e-08    5.320565e-10    1.719005e-08   -2.575550e+00
    2.824369e+00    2.087463e+01    3.252369e+00    8.163759e+07    1.790817e-08    5.135530e-10    1.717821e-08   -2.570550e+00
    2.851545e+00    2.193326e+01    3.206544e+00    8.135876e+07    1.788683e-08    4.956734e-10    1.716605e-08   -2.565550e+00
    2.878939e+00    2.304304e+01    3.160934e+00    8.106762e+07    1.786572e-08    4.784007e-10    1.715353e-08   -2.560550e+00
    2.906558e+00    2.420544e+01    3.115545e+00    8.076448e+07    1.784484e-08    4.617179e-10    1.714069e-08   -2.555550e+00
    2.934414e+00    2.542193e+01    3.070381e+00    8.044969e+07    1.782418e-08    4.456081e-10    1.712751e-08   -2.550550e+00
    2.962521e+00    2.669396e+01    3.025448e+00    8.012369e+07    1.780371e-08    4.300544e-10    1.711399e-08   -2.545550e+00
    2.990889e+00    2.802293e+01    2.980753e+00    7.978678e+07    1.778343e-08    4.150404e-10    1.710015e-08   -2.540550e+00
    3.019528e+00    2.941021e+01    2.936300e+00    7.943936e+07    1.776331e-08    4.005496e-10    1.708597e-08   -2.535550e+00
    3.048455e+00    3.085716e+01    2.892093e+00    7.908178e+07    1.774336e-08    3.865659e-10    1.707145e-08   -2.530550e+00
    3.077682e+00    3.236512e+01    2.848137e+00    7.871439e+07    1.772355e-08    3.730735e-10    1.705660e-08   -2.525550e+00
    3.107224e+00    3.393539e+01    2.804438e+00    7.833764e+07    1.770386e-08    3.600567e-10    1.704141e-08   -2.520550e+00
    3.137094e+00    3.556924e+01    2.760998e+00    7.795179e+07    1.768429e-08    3.475002e-10    1.702588e-08   -2.515550e+00
    3.167306e+00    3.726791e+01    2.717824e+00    7.755722e+07    1.766482e-08    3.353890e-10    1.701001e-08   -2.510550e+00
    3.197878e+00    3.903268e+01    2.674918e+00    7.715429e+07    1.764544e-08    3.237083e-10    1.699381e-08   -2.505550e+00
    3.228823e+00    4.086471e+01    2.632284e+00    7.674327e+07    1.762613e-08    3.124439e-10    1.697725e-08   -2.500550e+00
    3.260158e+00    4.276525e+01    2.589927e+00    7.632452e+07    1.760687e-08    3.015817e-10    1.696035e-08   -2.495550e+00
    3.291898e+00    4.473544e+01    2.547849e+00    7.589832e+07    1.758766e-08    2.911080e-10    1.694310e-08   -2.490550e+00
    3.324058e+00    4.677649e+01    2.506055e+00    7.546495e+07    1.756848e-08    2.810095e-10    1.692549e-08   -2.485550e+00
    3.356658e+00    4.888954e+01    2.464548e+00    7.502471e+07    1.754931e-08    2.712732e-10    1.690753e-08   -2.480550e+00
    3.389714e+00    5.107580e+01    2.423330e+00    7.457789e+07    1.753015e-08    2.618865e-10    1.688921e-08   -2.475550e+00
    3.423240e+00    5.333637e+01    2.382405e+00    7.412469e+07    1.751097e-08    2.528371e-10    1.687052e-08   -2.470550e+00
    3.457259e+00    5.567249e+01    2.341775e+00    7.366540e+07    1.749177e-08    2.441130e-10    1.685145e-08   -2.465550e+00
    3.491785e+00    5.808532e+01    2.301445e+00    7.320024e+07    1.747253e-08    2.357028e-10    1.683202e-08   -2.460550e+00
    3.526838e+00    6.057602e+01    2.261415e+00    7.272944e+07    1.745323e-08    2.275951e-10    1.681220e-08   -2.455550e+00
    3.562436e+00    6.314582e+01    2.221689e+00    7.225317e+07    1.743386e-08    2.197792e-10    1.679199e-08   -2.450550e+00
    3.598595e+00    6.579589e+01    2.182270e+00    7.177160e+07    1.741441e-08    2.122445e-10    1.677139e-08   -2.445550e+00
    3.635339e+00    6.852755e+01    2.143159e+00    7.128502e+07    1.739487e-08    2.049808e-10    1.675038e-08   -2.440550e+00
    3.672685e+00    7.134203e+01    2.104360e+00    7.079353e+07    1.737522e-08    1.979782e-10    1.672897e-08   -2.435550e+00
    3.710654e+00    7.424061e+01    2.065873e+00    7.029731e+07    1.735544e-08    1.912272e-10    1.670714e-08   -2.430550e+00
    3.749268e+00    7.722465e+01    2.027702e+00    6.979655e+07    1.733552e-08    1.847185e-10    1.668489e-08   -2.425550e+00
    3.788544e+00    8.029554e+01    1.989850e+00    6.929134e+07    1.731545e-08    1.784434e-10    1.666221e-08   -2.420550e+00
    3.828507e+00    8.345464e+01    1.952317e+00    6.878185e+07    1.729522e-08    1.723931e-10    1.663909e-08   -2.415550e+00
    3.869177e+00    8.670340e+01    1.915106e+00    6.826818e+07    1.727481e-08    1.665594e-10    1.661552e-08   -2.410550e+00
    3.910577e+00    9.004328e+01    1.878219e+00    6.775046e+07    1.725420e-08    1.609343e-10    1.659150e-08   -2.405550e+00
    3.952733e+00    9.347601e+01    1.841658e+00    6.722886e+07    1.723339e-08    1.555099e-10    1.656700e-08   -2.400550e+00
    3.995664e+00    9.700292e+01    1.805424e+00    6.670338e+07    1.721235e-08    1.502791e-10    1.654203e-08   -2.395550e+00
    4.039396e+00    1.006259e+02    1.769520e+00    6.617419e+07    1.719109e-08    1.452344e-10    1.651656e-08   -2.390550e+00
    4.083955e+00    1.043466e+02    1.733947e+00    6.564135e+07    1.716957e-08    1.403690e-10    1.649060e-08   -2.385550e+00
    4.129365e+00    1.081667e+02    1.698707e+00    6.510493e+07    1.714778e-08    1.356762e-10    1.646414e-08   -2.380550e+00
    4.175656e+00    1.120882e+02    1.663801e+00    6.456503e+07    1.712572e-08    1.311497e-10    1.643715e-08   -2.375550e+00
    4.222852e+00    1.161128e+02    1.629232e+00    6.402174e+07    1.710336e-08    1.267831e-10    1.640963e-08   -2.370550e+00
    4.270977e+00    1.202428e+02    1.595001e+00    6.347503e+07    1.708070e-08    1.225706e-10    1.638156e-08   -2.365550e+00
    4.320066e+00    1.244798e+02    1.561111e+00    6.292503e+07    1.705771e-08    1.185064e-10    1.635294e-08   -2.360550e+00
    4.370143e+00    1.288264e+02    1.527561e+00    6.237174e+07    1.703439e-08    1.145851e-10    1.632374e-08   -2.355550e+00
    4.421243e+00    1.332845e+02    1.494355e+00    6.181527e+07    1.701071e-08    1.108012e-10    1.629396e-08   -2.350550e+00
    4.473393e+00    1.378564e+02    1.461493e+00    6.125558e+07    1.698667e-08    1.071497e-10    1.626358e-08   -2.345550e+00
    4.526628e+00    1.425446e+02    1.428977e+00    6.069275e+07    1.696224e-08    1.036257e-10    1.623260e-08   -2.340550e+00
    4.580979e+00    1.473515e+02    1.396809e+00    6.012679e+07    1.693742e-08    1.002244e-10    1.620098e-08   -2.335550e+00
    4.636477e+00    1.522796e+02    1.364990e+00    5.955771e+07    1.691218e-08    9.694135e-11    1.616873e-08   -2.330550e+00
    4.693160e+00    1.573314e+02    1.333522e+00    5.898551e+07    1.688652e-08    9.377210e-11    1.613581e-08   -2.325550e+00
    4.751065e+00    1.625099e+02    1.302406e+00    5.841028e+07    1.686041e-08    9.071240e-11    1.610222e-08   -2.320550e+00
    4.810222e+00    1.678175e+02    1.271644e+00    5.783190e+07    1.683385e-08    8.775830e-11    1.606796e-08   -2.315550e+00
    4.870675e+00    1.732574e+02    1.241237e+00    5.725049e+07    1.680680e-08    8.490590e-11    1.603298e-08   -2.310550e+00
    4.932459e+00    1.788324e+02    1.211188e+00    5.666596e+07    1.677926e-08    8.215140e-11    1.599728e-08   -2.305550e+00
    4.995618e+00    1.845457e+02    1.181497e+00    5.607836e+07    1.675122e-08    7.949120e-11    1.596085e-08   -2.300550e+00
    5.060184e+00    1.904002e+02    1.152165e+00    5.548764e+07    1.672265e-08    7.692190e-11    1.592366e-08   -2.295550e+00
    5.126209e+00    1.963994e+02    1.123196e+00    5.489381e+07    1.669354e-08    7.444015e-11    1.588570e-08   -2.290550e+00
    5.193728e+00    2.025463e+02    1.094589e+00    5.429680e+07    1.666388e-08    7.204270e-11    1.584694e-08   -2.285550e+00
    5.262785e+00    2.088444e+02    1.066346e+00    5.369660e+07    1.663364e-08    6.972655e-11    1.580738e-08   -2.280550e+00
    5.333431e+00    2.152973e+02    1.038469e+00    5.309324e+07    1.660280e-08    6.748870e-11    1.576698e-08   -2.275550e+00
    5.405706e+00    2.219084e+02    1.010961e+00    5.248662e+07    1.657136e-08    6.532635e-11    1.572574e-08   -2.270550e+00
    5.479658e+00    2.286813e+02    9.838205e-01    5.187673e+07    1.653929e-08    6.323670e-11    1.568364e-08   -2.265550e+00
    5.555331e+00    2.356195e+02    9.570510e-01    5.126348e+07    1.650658e-08    6.121720e-11    1.564064e-08   -2.260550e+00
    5.632784e+00    2.427272e+02    9.306535e-01    5.064692e+07    1.647321e-08    5.926525e-11    1.559674e-08   -2.255550e+00
    5.712054e+00    2.500077e+02    9.046300e-01    5.002692e+07    1.643916e-08    5.737850e-11    1.555191e-08   -2.250550e+00
    5.793203e+00    2.574651e+02    8.789810e-01    4.940349e+07    1.640441e-08    5.555455e-11    1.550614e-08   -2.245550e+00
    5.876270e+00    2.651030e+02    8.537090e-01    4.877651e+07    1.636896e-08    5.379115e-11    1.545939e-08   -2.240550e+00
    5.961315e+00    2.729254e+02    8.288155e-01    4.814600e+07    1.633277e-08    5.208620e-11    1.541166e-08   -2.235550e+00
    6.048389e+00    2.809362e+02    8.043015e-01    4.751188e+07    1.629583e-08    5.043755e-11    1.536292e-08   -2.230550e+00
    6.137547e+00    2.891391e+02    7.801685e-01    4.687409e+07    1.625813e-08    4.884326e-11    1.531314e-08   -2.225550e+00
    6.228837e+00    2.975381e+02    7.564185e-01    4.623258e+07    1.621963e-08    4.730137e-11    1.526231e-08   -2.220550e+00
    6.322314e+00    3.061368e+02    7.330530e-01    4.558730e+07    1.618034e-08    4.581006e-11    1.521042e-08   -2.215550e+00
    6.418031e+00    3.149389e+02    7.100735e-01    4.493820e+07    1.614022e-08    4.436754e-11    1.515741e-08   -2.210550e+00
    6.516045e+00    3.239481e+02    6.874810e-01    4.428521e+07    1.609927e-08    4.297209e-11    1.510330e-08   -2.205550e+00
    6.616410e+00    3.331679e+02    6.652770e-01    4.362829e+07    1.605746e-08    4.162208e-11    1.504804e-08   -2.200550e+00
    6.719168e+00    3.426014e+02    6.434640e-01    4.296739e+07    1.601478e-08    4.031591e-11    1.499161e-08   -2.195550e+00
    6.824380e+00    3.522520e+02    6.220425e-01    4.230250e+07    1.597120e-08    3.905207e-11    1.493401e-08   -2.190550e+00
    6.932095e+00    3.621225e+02    6.010140e-01    4.163352e+07    1.592671e-08    3.782909e-11    1.487519e-08   -2.185550e+00
    7.042362e+00    3.722155e+02    5.803800e-01    4.096049e+07    1.588129e-08    3.664556e-11    1.481515e-08   -2.180550e+00
    7.155224e+00    3.825333e+02    5.601420e-01    4.028333e+07    1.583493e-08    3.550010e-11    1.475385e-08   -2.175550e+00
    7.270732e+00    3.930782e+02    5.403010e-01    3.960206e+07    1.578761e-08    3.439144e-11    1.469129e-08   -2.170550e+00
    7.388923e+00    4.038513e+02    5.208585e-01    3.891667e+07    1.573930e-08    3.331830e-11    1.462743e-08   -2.165550e+00
    7.509840e+00    4.148539e+02    5.018155e-01    3.822714e+07    1.569001e-08    3.227947e-11    1.456225e-08   -2.160550e+00
    7.633516e+00    4.260869e+02    4.831732e-01    3.753353e+07    1.563969e-08    3.127378e-11    1.449574e-08   -2.155550e+00
    7.759983e+00    4.375501e+02    4.649327e-01    3.683585e+07    1.558836e-08    3.030011e-11    1.442788e-08   -2.150550e+00
    7.889266e+00    4.492428e+02    4.470948e-01    3.613416e+07    1.553597e-08    2.935738e-11    1.435863e-08   -2.145550e+00
    8.021387e+00    4.611634e+02    4.296604e-01    3.542852e+07    1.548253e-08    2.844454e-11    1.428799e-08   -2.140550e+00
    8.156362e+00    4.733102e+02    4.126303e-01    3.471904e+07    1.542802e-08    2.756060e-11    1.421594e-08   -2.135550e+00
    8.294196e+00    4.856801e+02    3.960050e-01    3.400581e+07    1.537241e-08    2.670457e-11    1.414245e-08   -2.130550e+00
    8.434892e+00    4.982689e+02    3.797850e-01    3.328898e+07    1.531571e-08    2.587554e-11    1.406751e-08   -2.125550e+00
    8.578442e+00    5.110717e+02    3.639706e-01    3.256869e+07    1.525789e-08    2.507260e-11    1.399110e-08   -2.120550e+00
    8.724824e+00    5.240818e+02    3.485620e-01    3.184516e+07    1.519895e-08    2.429489e-11    1.391320e-08   -2.115550e+00
    8.874015e+00    5.372930e+02    3.335592e-01    3.111860e+07    1.513886e-08    2.354158e-11    1.383380e-08   -2.110550e+00
    9.025974e+00    5.506957e+02    3.189618e-01    3.038924e+07    1.507763e-08    2.281184e-11    1.375288e-08   -2.105550e+00
    9.180650e+00    5.642798e+02    3.047696e-01    2.965738e+07    1.501524e-08    2.210494e-11    1.367043e-08   -2.100550e+00
    9.337981e+00    5.780342e+02    2.909817e-01    2.892336e+07    1.495168e-08    2.142009e-11    1.358644e-08   -2.095550e+00
    9.497884e+00    5.919455e+02    2.775974e-01    2.818752e+07    1.488695e-08    2.075659e-11    1.350089e-08   -2.090550e+00
    9.660271e+00    6.059990e+02    2.646154e-01    2.745024e+07    1.482103e-08    2.011374e-11    1.341378e-08   -2.085550e+00
    9.825034e+00    6.201785e+02    2.520343e-01    2.671200e+07    1.475392e-08    1.949087e-11    1.332509e-08   -2.080550e+00
    9.992045e+00    6.344657e+02    2.398523e-01    2.597324e+07    1.468562e-08    1.888734e-11    1.323482e-08   -2.075550e+00
    1.016116e+01    6.488408e+02    2.280674e-01    2.523450e+07    1.461612e-08    1.830251e-11    1.314295e-08   -2.070550e+00
    1.033223e+01    6.632818e+02    2.166772e-01    2.449632e+07    1.454542e-08    1.773580e-11    1.304949e-08   -2.065550e+00
    1.050506e+01    6.777656e+02    2.056789e-01    2.375933e+07    1.447352e-08    1.718660e-11    1.295443e-08   -2.060550e+00
    1.067947e+01    6.922665e+02    1.950694e-01    2.302415e+07    1.440042e-08    1.665438e-11    1.285777e-08   -2.055550e+00
    1.085522e+01    7.067575e+02    1.848452e-01    2.229147e+07    1.432612e-08    1.613858e-11    1.275951e-08   -2.050550e+00
    1.103210e+01    7.212100e+02    1.750027e-01    2.156203e+07    1.425061e-08    1.563868e-11    1.265964e-08   -2.045550e+00
    1.120984e+01    7.355934e+02    1.655373e-01    2.083654e+07    1.417392e-08    1.515418e-11    1.255818e-08   -2.040550e+00
    1.138817e+01    7.498758e+02    1.564446e-01    2.011581e+07    1.409604e-08    1.468460e-11    1.245513e-08   -2.035550e+00
    1.156680e+01    7.640246e+02    1.477194e-01    1.940067e+07    1.401697e-08    1.422945e-11    1.235049e-08   -2.030550e+00
    1.174543e+01    7.780051e+02    1.393563e-01    1.869194e+07    1.393674e-08    1.378828e-11    1.224428e-08   -2.025550e+00
    1.192372e+01    7.917823e+02    1.313494e-01    1.799047e+07    1.385535e-08    1.336067e-11    1.213651e-08   -2.020550e+00
    1.210135e+01    8.053203e+02    1.236923e-01    1.729714e+07    1.377281e-08    1.294617e-11    1.202718e-08   -2.015550e+00
