# sky130 nfet_01v8 gm/ID Processed Lookup Table
# Corner: tt
# Temperature: 75C
# W = 2.0 um
# L = 0.72 um (720 nm)
# Columns: gm/id [1/V]  gm/gds [V/V]  id/W [A/m]  ft [Hz]  Cgg/W [F/m]  Cgd/W [F/m]  Cgs/W [F/m]  Vov [V]
#         gm/id          gm/gds            id/W              ft           Cgg/W           Cgd/W           Cgs/W             Vov
    2.382195e+01    1.575218e+02    9.274685e-07    2.333677e+03    1.506801e-09    1.701157e-14    9.151250e-11   -5.728521e-01
    2.382063e+01    1.575139e+02    1.044784e-06    2.632409e+03    1.504688e-09    1.742985e-14    9.499060e-11   -5.678521e-01
    2.381922e+01    1.575056e+02    1.176930e-06    2.969026e+03    1.502742e-09    1.785600e-14    9.862040e-11   -5.628521e-01
    2.381773e+01    1.574967e+02    1.325782e-06    3.348272e+03    1.500969e-09    1.829016e-14    1.024083e-10   -5.578521e-01
    2.381615e+01    1.574873e+02    1.493447e-06    3.775478e+03    1.499373e-09    1.873250e-14    1.063609e-10   -5.528521e-01
    2.381447e+01    1.574772e+02    1.682303e-06    4.256630e+03    1.497957e-09    1.918321e-14    1.104850e-10   -5.478521e-01
    2.381270e+01    1.574665e+02    1.895024e-06    4.798443e+03    1.496729e-09    1.964248e-14    1.147877e-10   -5.428521e-01
    2.381081e+01    1.574552e+02    2.134623e-06    5.408461e+03    1.495690e-09    2.011052e-14    1.192764e-10   -5.378521e-01
    2.380882e+01    1.574432e+02    2.404494e-06    6.095146e+03    1.494849e-09    2.058760e-14    1.239585e-10   -5.328521e-01
    2.380670e+01    1.574304e+02    2.708454e-06    6.867980e+03    1.494211e-09    2.107399e-14    1.288417e-10   -5.278521e-01
    2.380444e+01    1.574167e+02    3.050806e-06    7.737606e+03    1.493779e-09    2.156996e-14    1.339340e-10   -5.228521e-01
    2.380205e+01    1.574022e+02    3.436393e-06    8.715946e+03    1.493561e-09    2.207586e-14    1.392437e-10   -5.178521e-01
    2.379952e+01    1.573869e+02    3.870665e-06    9.816365e+03    1.493562e-09    2.259206e-14    1.447790e-10   -5.128521e-01
    2.379683e+01    1.573705e+02    4.359761e-06    1.105383e+04    1.493789e-09    2.311896e-14    1.505485e-10   -5.078521e-01
    2.379398e+01    1.573531e+02    4.910590e-06    1.244510e+04    1.494248e-09    2.365702e-14    1.565611e-10   -5.028521e-01
    2.379096e+01    1.573347e+02    5.530935e-06    1.400894e+04    1.494945e-09    2.420673e-14    1.628259e-10   -4.978521e-01
    2.378776e+01    1.573152e+02    6.229545e-06    1.576635e+04    1.495888e-09    2.476866e-14    1.693519e-10   -4.928521e-01
    2.378436e+01    1.572944e+02    7.016285e-06    1.774080e+04    1.497083e-09    2.534340e-14    1.761487e-10   -4.878521e-01
    2.378075e+01    1.572724e+02    7.902245e-06    1.995854e+04    1.498537e-09    2.593163e-14    1.832258e-10   -4.828521e-01
    2.377693e+01    1.572490e+02    8.899910e-06    2.244894e+04    1.500257e-09    2.653411e-14    1.905927e-10   -4.778521e-01
    2.377288e+01    1.572242e+02    1.002334e-05    2.524476e+04    1.502252e-09    2.715165e-14    1.982595e-10   -4.728521e-01
    2.376859e+01    1.571978e+02    1.128833e-05    2.838265e+04    1.504528e-09    2.778517e-14    2.062364e-10   -4.678521e-01
    2.376403e+01    1.571699e+02    1.271270e-05    3.190345e+04    1.507094e-09    2.843564e-14    2.145335e-10   -4.628521e-01
    2.375921e+01    1.571403e+02    1.431645e-05    3.585282e+04    1.509956e-09    2.910416e-14    2.231612e-10   -4.578521e-01
    2.375409e+01    1.571089e+02    1.612213e-05    4.028161e+04    1.513122e-09    2.979194e-14    2.321300e-10   -4.528521e-01
    2.374867e+01    1.570756e+02    1.815506e-05    4.524657e+04    1.516601e-09    3.050029e-14    2.414503e-10   -4.478521e-01
    2.374292e+01    1.570403e+02    2.044379e-05    5.081093e+04    1.520402e-09    3.123064e-14    2.511326e-10   -4.428521e-01
    2.373683e+01    1.570029e+02    2.302035e-05    5.704511e+04    1.524531e-09    3.198455e-14    2.611876e-10   -4.378521e-01
    2.373038e+01    1.569633e+02    2.592082e-05    6.402757e+04    1.528997e-09    3.276374e-14    2.716261e-10   -4.328521e-01
    2.372356e+01    1.569214e+02    2.918578e-05    7.184561e+04    1.533808e-09    3.357008e-14    2.824585e-10   -4.278521e-01
    2.371633e+01    1.568770e+02    3.286084e-05    8.059636e+04    1.538973e-09    3.440558e-14    2.936955e-10   -4.228521e-01
    2.370867e+01    1.568299e+02    3.699727e-05    9.038773e+04    1.544499e-09    3.527244e-14    3.053476e-10   -4.178521e-01
    2.370056e+01    1.567803e+02    4.165275e-05    1.013399e+05    1.550394e-09    3.617305e-14    3.174252e-10   -4.128521e-01
    2.369197e+01    1.567275e+02    4.689209e-05    1.135861e+05    1.556667e-09    3.711001e-14    3.299388e-10   -4.078521e-01
    2.368287e+01    1.566718e+02    5.278815e-05    1.272746e+05    1.563325e-09    3.808608e-14    3.428984e-10   -4.028521e-01
    2.367326e+01    1.566128e+02    5.942275e-05    1.425697e+05    1.570377e-09    3.910431e-14    3.563142e-10   -3.978521e-01
    2.366308e+01    1.565504e+02    6.688790e-05    1.596537e+05    1.577829e-09    4.016794e-14    3.701958e-10   -3.928521e-01
    2.365232e+01    1.564845e+02    7.528695e-05    1.787291e+05    1.585690e-09    4.128047e-14    3.845527e-10   -3.878521e-01
    2.364093e+01    1.564148e+02    8.473595e-05    2.000199e+05    1.593967e-09    4.244567e-14    3.993941e-10   -3.828521e-01
    2.362889e+01    1.563412e+02    9.536530e-05    2.237747e+05    1.602666e-09    4.366759e-14    4.147290e-10   -3.778521e-01
    2.361615e+01    1.562634e+02    1.073214e-04    2.502683e+05    1.611794e-09    4.495056e-14    4.305659e-10   -3.728521e-01
    2.360269e+01    1.561813e+02    1.207685e-04    2.798054e+05    1.621359e-09    4.629924e-14    4.469128e-10   -3.678521e-01
    2.358846e+01    1.560946e+02    1.358911e-04    3.127227e+05    1.631365e-09    4.771859e-14    4.637774e-10   -3.628521e-01
    2.357343e+01    1.560031e+02    1.528961e-04    3.493928e+05    1.641819e-09    4.921391e-14    4.811669e-10   -3.578521e-01
    2.355755e+01    1.559066e+02    1.720158e-04    3.902273e+05    1.652727e-09    5.079085e-14    4.990878e-10   -3.528521e-01
    2.354079e+01    1.558049e+02    1.935107e-04    4.356813e+05    1.664092e-09    5.245545e-14    5.175460e-10   -3.478521e-01
    2.352309e+01    1.556976e+02    2.176728e-04    4.862564e+05    1.675919e-09    5.421410e-14    5.365475e-10   -3.428521e-01
    2.350442e+01    1.555847e+02    2.448295e-04    5.425077e+05    1.688214e-09    5.607360e-14    5.560965e-10   -3.378521e-01
    2.348473e+01    1.554658e+02    2.753479e-04    6.050463e+05    1.700978e-09    5.804115e-14    5.761975e-10   -3.328521e-01
    2.346397e+01    1.553409e+02    3.096392e-04    6.745469e+05    1.714216e-09    6.012440e-14    5.968535e-10   -3.278521e-01
    2.344208e+01    1.552092e+02    3.481639e-04    7.517515e+05    1.727928e-09    6.233145e-14    6.180670e-10   -3.228521e-01
    2.341903e+01    1.550711e+02    3.914377e-04    8.374795e+05    1.742118e-09    6.467080e-14    6.398405e-10   -3.178521e-01
    2.339474e+01    1.549259e+02    4.400382e-04    9.326319e+05    1.756784e-09    6.715145e-14    6.621740e-10   -3.128521e-01
    2.336919e+01    1.547736e+02    4.946111e-04    1.038200e+06    1.771930e-09    6.978290e-14    6.850680e-10   -3.078521e-01
    2.334231e+01    1.546137e+02    5.558790e-04    1.155275e+06    1.787553e-09    7.257510e-14    7.085220e-10   -3.028521e-01
    2.331403e+01    1.544463e+02    6.246505e-04    1.285055e+06    1.803653e-09    7.553855e-14    7.325340e-10   -2.978521e-01
    2.328431e+01    1.542709e+02    7.018285e-04    1.428857e+06    1.820228e-09    7.868425e-14    7.571010e-10   -2.928521e-01
    2.325312e+01    1.540875e+02    7.884215e-04    1.588127e+06    1.837277e-09    8.202370e-14    7.822195e-10   -2.878521e-01
    2.322037e+01    1.538958e+02    8.855575e-04    1.764454e+06    1.854794e-09    8.556900e-14    8.078850e-10   -2.828521e-01
    2.318602e+01    1.536956e+02    9.944940e-04    1.959579e+06    1.872776e-09    8.933270e-14    8.340920e-10   -2.778521e-01
    2.315002e+01    1.534869e+02    1.116635e-03    2.175410e+06    1.891218e-09    9.332805e-14    8.608335e-10   -2.728521e-01
    2.311231e+01    1.532694e+02    1.253546e-03    2.414039e+06    1.910115e-09    9.756870e-14    8.881020e-10   -2.678521e-01
    2.307287e+01    1.530432e+02    1.406972e-03    2.677758e+06    1.929460e-09    1.020690e-13    9.158895e-10   -2.628521e-01
    2.303162e+01    1.528080e+02    1.578858e-03    2.969074e+06    1.949246e-09    1.068438e-13    9.441850e-10   -2.578521e-01
    2.298853e+01    1.525641e+02    1.771370e-03    3.290731e+06    1.969465e-09    1.119085e-13    9.729785e-10   -2.528521e-01
    2.294356e+01    1.523114e+02    1.986917e-03    3.645728e+06    1.990107e-09    1.172793e-13    1.002258e-09   -2.478521e-01
    2.289669e+01    1.520502e+02    2.228180e-03    4.037346e+06    2.011163e-09    1.229726e-13    1.032013e-09   -2.428521e-01
    2.284786e+01    1.517803e+02    2.498143e-03    4.469163e+06    2.032622e-09    1.290060e-13    1.062226e-09   -2.378521e-01
    2.279706e+01    1.515022e+02    2.800115e-03    4.945091e+06    2.054474e-09    1.353970e-13    1.092885e-09   -2.328521e-01
    2.274428e+01    1.512163e+02    3.137778e-03    5.469396e+06    2.076707e-09    1.421641e-13    1.123974e-09   -2.278521e-01
    2.268951e+01    1.509229e+02    3.515213e-03    6.046737e+06    2.099306e-09    1.493264e-13    1.155477e-09   -2.228521e-01
    2.263273e+01    1.506225e+02    3.936951e-03    6.682185e+06    2.122260e-09    1.569034e-13    1.187376e-09   -2.178521e-01
    2.257398e+01    1.503159e+02    4.408014e-03    7.381282e+06    2.145554e-09    1.649155e-13    1.219652e-09   -2.128521e-01
    2.251326e+01    1.500036e+02    4.933966e-03    8.150053e+06    2.169173e-09    1.733832e-13    1.252290e-09   -2.078521e-01
    2.245059e+01    1.496867e+02    5.520970e-03    8.995069e+06    2.193102e-09    1.823282e-13    1.285266e-09   -2.028521e-01
    2.238604e+01    1.493661e+02    6.175845e-03    9.923489e+06    2.217325e-09    1.917723e-13    1.318562e-09   -1.978521e-01
    2.231962e+01    1.490429e+02    6.906140e-03    1.094310e+07    2.241826e-09    2.017381e-13    1.352158e-09   -1.928521e-01
    2.225143e+01    1.487185e+02    7.720190e-03    1.206239e+07    2.266588e-09    2.122487e-13    1.386030e-09   -1.878521e-01
    2.218153e+01    1.483941e+02    8.627220e-03    1.329061e+07    2.291593e-09    2.233279e-13    1.420158e-09   -1.828521e-01
    2.211000e+01    1.480715e+02    9.637405e-03    1.463780e+07    2.316824e-09    2.349999e-13    1.454519e-09   -1.778521e-01
    2.203696e+01    1.477522e+02    1.076198e-02    1.611493e+07    2.342263e-09    2.472898e-13    1.489092e-09   -1.728521e-01
    2.196251e+01    1.474382e+02    1.201336e-02    1.773392e+07    2.367890e-09    2.602227e-13    1.523851e-09   -1.678521e-01
    2.188678e+01    1.471314e+02    1.340520e-02    1.950776e+07    2.393689e-09    2.738249e-13    1.558774e-09   -1.628521e-01
    2.180988e+01    1.468340e+02    1.495260e-02    2.145060e+07    2.419639e-09    2.881228e-13    1.593837e-09   -1.578521e-01
    2.173198e+01    1.465481e+02    1.667215e-02    2.357784e+07    2.445722e-09    3.031434e-13    1.629018e-09   -1.528521e-01
    2.165320e+01    1.462762e+02    1.858218e-02    2.590625e+07    2.471919e-09    3.189147e-13    1.664292e-09   -1.478521e-01
    2.157369e+01    1.460206e+02    2.070284e-02    2.845414e+07    2.498210e-09    3.354646e-13    1.699635e-09   -1.428521e-01
    2.149359e+01    1.457837e+02    2.305630e-02    3.124136e+07    2.524577e-09    3.528221e-13    1.735023e-09   -1.378521e-01
    2.141303e+01    1.455680e+02    2.566699e-02    3.428962e+07    2.551000e-09    3.710163e-13    1.770433e-09   -1.328521e-01
    2.133214e+01    1.453758e+02    2.856176e-02    3.762248e+07    2.577461e-09    3.900773e-13    1.805841e-09   -1.278521e-01
    2.125103e+01    1.452095e+02    3.177013e-02    4.126560e+07    2.603940e-09    4.100354e-13    1.841225e-09   -1.228521e-01
    2.116978e+01    1.450713e+02    3.532458e-02    4.524686e+07    2.630419e-09    4.309217e-13    1.876561e-09   -1.178521e-01
    2.108845e+01    1.449630e+02    3.926072e-02    4.959649e+07    2.656880e-09    4.527677e-13    1.911827e-09   -1.128521e-01
    2.100705e+01    1.448864e+02    4.361771e-02    5.434732e+07    2.683305e-09    4.756056e-13    1.947000e-09   -1.078521e-01
    2.092560e+01    1.448430e+02    4.843850e-02    5.953488e+07    2.709675e-09    4.994680e-13    1.982060e-09   -1.028521e-01
    2.084401e+01    1.448335e+02    5.377015e-02    6.519747e+07    2.735973e-09    5.243880e-13    2.016984e-09   -9.785210e-02
    2.076215e+01    1.448585e+02    5.966435e-02    7.137644e+07    2.762183e-09    5.504000e-13    2.051752e-09   -9.285210e-02
    2.067989e+01    1.449180e+02    6.617745e-02    7.811616e+07    2.788288e-09    5.775385e-13    2.086344e-09   -8.785210e-02
    2.059699e+01    1.450113e+02    7.337125e-02    8.546414e+07    2.814271e-09    6.058380e-13    2.120741e-09   -8.285210e-02
    2.051315e+01    1.451370e+02    8.131320e-02    9.347105e+07    2.840118e-09    6.353350e-13    2.154922e-09   -7.785210e-02
    2.042805e+01    1.452931e+02    9.007670e-02    1.021908e+08    2.865812e-09    6.660655e-13    2.188873e-09   -7.285210e-02
    2.034124e+01    1.454767e+02    9.974190e-02    1.116802e+08    2.891339e-09    6.980670e-13    2.222573e-09   -6.785210e-02
    2.025229e+01    1.456841e+02    1.103956e-01    1.219990e+08    2.916686e-09    7.313765e-13    2.256006e-09   -6.285210e-02
    2.016065e+01    1.459109e+02    1.221322e-01    1.332097e+08    2.941840e-09    7.660335e-13    2.289157e-09   -5.785210e-02
    2.006577e+01    1.461518e+02    1.350536e-01    1.453770e+08    2.966787e-09    8.020770e-13    2.322011e-09   -5.285210e-02
    1.996707e+01    1.464007e+02    1.492698e-01    1.585679e+08    2.991515e-09    8.395465e-13    2.354552e-09   -4.785210e-02
    1.986389e+01    1.466507e+02    1.648993e-01    1.728503e+08    3.016012e-09    8.784835e-13    2.386769e-09   -4.285210e-02
    1.975562e+01    1.468944e+02    1.820690e-01    1.882933e+08    3.040268e-09    9.189295e-13    2.418647e-09   -3.785210e-02
    1.964160e+01    1.471237e+02    2.009149e-01    2.049659e+08    3.064274e-09    9.609275e-13    2.450175e-09   -3.285210e-02
    1.952123e+01    1.473300e+02    2.215817e-01    2.229367e+08    3.088017e-09    1.004520e-12    2.481342e-09   -2.785210e-02
    1.939393e+01    1.475043e+02    2.442231e-01    2.422725e+08    3.111491e-09    1.049753e-12    2.512138e-09   -2.285210e-02
    1.925913e+01    1.476375e+02    2.690018e-01    2.630376e+08    3.134686e-09    1.096671e-12    2.542552e-09   -1.785210e-02
    1.911636e+01    1.477204e+02    2.960891e-01    2.852931e+08    3.157595e-09    1.145320e-12    2.572577e-09   -1.285210e-02
    1.896521e+01    1.477439e+02    3.256645e-01    3.090952e+08    3.180211e-09    1.195748e-12    2.602205e-09   -7.852100e-03
    1.880533e+01    1.476989e+02    3.579158e-01    3.344947e+08    3.202527e-09    1.248004e-12    2.631427e-09   -2.852100e-03
    1.863651e+01    1.475772e+02    3.930380e-01    3.615362e+08    3.224538e-09    1.302138e-12    2.660240e-09    2.147900e-03
    1.845855e+01    1.473705e+02    4.312326e-01    3.902556e+08    3.246238e-09    1.358201e-12    2.688635e-09    7.147900e-03
    1.827145e+01    1.470719e+02    4.727074e-01    4.206818e+08    3.267623e-09    1.416245e-12    2.716609e-09    1.214790e-02
    1.807525e+01    1.466751e+02    5.176745e-01    4.528334e+08    3.288688e-09    1.476323e-12    2.744157e-09    1.714790e-02
    1.787008e+01    1.461744e+02    5.663510e-01    4.867200e+08    3.309430e-09    1.538492e-12    2.771277e-09    2.214790e-02
    1.765620e+01    1.455654e+02    6.189555e-01    5.223392e+08    3.329847e-09    1.602807e-12    2.797964e-09    2.714790e-02
    1.743397e+01    1.448449e+02    6.757085e-01    5.596797e+08    3.349935e-09    1.669327e-12    2.824217e-09    3.214790e-02
    1.720377e+01    1.440106e+02    7.368320e-01    5.987173e+08    3.369693e-09    1.738111e-12    2.850035e-09    3.714790e-02
    1.696612e+01    1.430614e+02    8.025445e-01    6.394180e+08    3.389119e-09    1.809221e-12    2.875416e-09    4.214790e-02
    1.672156e+01    1.419974e+02    8.730645e-01    6.817363e+08    3.408214e-09    1.882720e-12    2.900361e-09    4.714790e-02
    1.647072e+01    1.408197e+02    9.486050e-01    7.256168e+08    3.426975e-09    1.958673e-12    2.924868e-09    5.214790e-02
    1.621424e+01    1.395306e+02    1.029375e+00    7.709930e+08    3.445403e-09    2.037145e-12    2.948941e-09    5.714790e-02
    1.595281e+01    1.381332e+02    1.115577e+00    8.177902e+08    3.463498e-09    2.118207e-12    2.972578e-09    6.214790e-02
    1.568715e+01    1.366316e+02    1.207405e+00    8.659251e+08    3.481261e-09    2.201929e-12    2.995782e-09    6.714790e-02
    1.541795e+01    1.350307e+02    1.305045e+00    9.153060e+08    3.498693e-09    2.288383e-12    3.018555e-09    7.214790e-02
    1.514595e+01    1.333359e+02    1.408672e+00    9.658354e+08    3.515796e-09    2.377646e-12    3.040900e-09    7.714790e-02
    1.487186e+01    1.315535e+02    1.518455e+00    1.017411e+09    3.532571e-09    2.469793e-12    3.062819e-09    8.214790e-02
    1.459638e+01    1.296901e+02    1.634545e+00    1.069926e+09    3.549020e-09    2.564906e-12    3.084317e-09    8.714790e-02
    1.432019e+01    1.277527e+02    1.757084e+00    1.123270e+09    3.565146e-09    2.663065e-12    3.105396e-09    9.214790e-02
    1.404393e+01    1.257485e+02    1.886203e+00    1.177331e+09    3.580953e-09    2.764356e-12    3.126060e-09    9.714790e-02
    1.376822e+01    1.236849e+02    2.022018e+00    1.231998e+09    3.596441e-09    2.868867e-12    3.146313e-09    1.021479e-01
    1.349365e+01    1.215694e+02    2.164631e+00    1.287159e+09    3.611616e-09    2.976687e-12    3.166162e-09    1.071479e-01
    1.322077e+01    1.194094e+02    2.314134e+00    1.342703e+09    3.626479e-09    3.087910e-12    3.185609e-09    1.121479e-01
    1.295007e+01    1.172123e+02    2.470600e+00    1.398524e+09    3.641035e-09    3.202633e-12    3.204661e-09    1.171479e-01
    1.268202e+01    1.149852e+02    2.634097e+00    1.454517e+09    3.655288e-09    3.320953e-12    3.223322e-09    1.221479e-01
    1.241705e+01    1.127351e+02    2.804672e+00    1.510583e+09    3.669241e-09    3.442976e-12    3.241598e-09    1.271479e-01
    1.215553e+01    1.104686e+02    2.982365e+00    1.566626e+09    3.682899e-09    3.568805e-12    3.259494e-09    1.321479e-01
    1.189781e+01    1.081921e+02    3.167202e+00    1.622556e+09    3.696265e-09    3.698550e-12    3.277016e-09    1.371479e-01
    1.164417e+01    1.059115e+02    3.359196e+00    1.678290e+09    3.709344e-09    3.832326e-12    3.294169e-09    1.421479e-01
    1.139489e+01    1.036325e+02    3.558352e+00    1.733749e+09    3.722142e-09    3.970247e-12    3.310961e-09    1.471479e-01
    1.115018e+01    1.013601e+02    3.764662e+00    1.788862e+09    3.734662e-09    4.112437e-12    3.327396e-09    1.521479e-01
    1.091023e+01    9.909935e+01    3.978111e+00    1.843563e+09    3.746909e-09    4.259018e-12    3.343482e-09    1.571479e-01
    1.067520e+01    9.685450e+01    4.198673e+00    1.897794e+09    3.758887e-09    4.410121e-12    3.359224e-09    1.621479e-01
    1.044521e+01    9.462957e+01    4.426316e+00    1.951503e+09    3.770601e-09    4.565879e-12    3.374627e-09    1.671479e-01
    1.022036e+01    9.242815e+01    4.660997e+00    2.004642e+09    3.782058e-09    4.726431e-12    3.389701e-09    1.721479e-01
    1.000071e+01    9.025355e+01    4.902669e+00    2.057173e+09    3.793260e-09    4.891919e-12    3.404449e-09    1.771479e-01
    9.786296e+00    8.810844e+01    5.151280e+00    2.109059e+09    3.804213e-09    5.062490e-12    3.418878e-09    1.821479e-01
