# sky130 nfet_01v8 gm/ID Processed Lookup Table
# Corner: tt
# Temperature: 75C
# W = 2.0 um
# L = 1.62 um (1620 nm)
# Columns: gm/id [1/V]  gm/gds [V/V]  id/W [A/m]  ft [Hz]  Cgg/W [F/m]  Cgd/W [F/m]  Cgs/W [F/m]  Vov [V]
#         gm/id          gm/gds            id/W              ft           Cgg/W           Cgd/W           Cgs/W             Vov
    2.332473e+01    1.417460e+02    1.006668e-06    1.064767e+03    3.509685e-09    1.416455e-13    3.490769e-10   -5.165829e-01
    2.332283e+01    1.417345e+02    1.131184e-06    1.196155e+03    3.510324e-09    1.463951e-13    3.626269e-10   -5.115829e-01
    2.332082e+01    1.417223e+02    1.271088e-06    1.343537e+03    3.511480e-09    1.513160e-13    3.767251e-10   -5.065829e-01
    2.331868e+01    1.417095e+02    1.428282e-06    1.508827e+03    3.513167e-09    1.564149e-13    3.913908e-10   -5.015829e-01
    2.331642e+01    1.416958e+02    1.604898e-06    1.694161e+03    3.515400e-09    1.616982e-13    4.066437e-10   -4.965829e-01
    2.331403e+01    1.416814e+02    1.803333e-06    1.901926e+03    3.518194e-09    1.671732e-13    4.225040e-10   -4.915829e-01
    2.331150e+01    1.416661e+02    2.026277e-06    2.134783e+03    3.521562e-09    1.728469e-13    4.389922e-10   -4.865829e-01
    2.330882e+01    1.416499e+02    2.276755e-06    2.395704e+03    3.525521e-09    1.787268e-13    4.561290e-10   -4.815829e-01
    2.330597e+01    1.416329e+02    2.558160e-06    2.688003e+03    3.530086e-09    1.848207e-13    4.739357e-10   -4.765829e-01
    2.330295e+01    1.416146e+02    2.874304e-06    3.015371e+03    3.535272e-09    1.911367e-13    4.924331e-10   -4.715829e-01
    2.329975e+01    1.415954e+02    3.229468e-06    3.381931e+03    3.541096e-09    1.976831e-13    5.116435e-10   -4.665829e-01
    2.329637e+01    1.415751e+02    3.628458e-06    3.792268e+03    3.547574e-09    2.044684e-13    5.315885e-10   -4.615829e-01
    2.329279e+01    1.415536e+02    4.076671e-06    4.251494e+03    3.554723e-09    2.115017e-13    5.522905e-10   -4.565829e-01
    2.328900e+01    1.415309e+02    4.580166e-06    4.765299e+03    3.562559e-09    2.187921e-13    5.737715e-10   -4.515829e-01
    2.328499e+01    1.415067e+02    5.145745e-06    5.340014e+03    3.571100e-09    2.263492e-13    5.960545e-10   -4.465829e-01
    2.328074e+01    1.414812e+02    5.781045e-06    5.982690e+03    3.580361e-09    2.341830e-13    6.191610e-10   -4.415829e-01
    2.327624e+01    1.414543e+02    6.494640e-06    6.701161e+03    3.590360e-09    2.423037e-13    6.431145e-10   -4.365829e-01
    2.327147e+01    1.414258e+02    7.296150e-06    7.504138e+03    3.601114e-09    2.507218e-13    6.679365e-10   -4.315829e-01
    2.326645e+01    1.413957e+02    8.196370e-06    8.401308e+03    3.612641e-09    2.594482e-13    6.936495e-10   -4.265829e-01
    2.326111e+01    1.413639e+02    9.207430e-06    9.403426e+03    3.624957e-09    2.684944e-13    7.202760e-10   -4.215829e-01
    2.325546e+01    1.413302e+02    1.034292e-05    1.052244e+04    3.638077e-09    2.778721e-13    7.478380e-10   -4.165829e-01
    2.324950e+01    1.412946e+02    1.161811e-05    1.177161e+04    3.652021e-09    2.875932e-13    7.763570e-10   -4.115829e-01
    2.324318e+01    1.412571e+02    1.305011e-05    1.316565e+04    3.666804e-09    2.976705e-13    8.058540e-10   -4.065829e-01
    2.323651e+01    1.412174e+02    1.465814e-05    1.472089e+04    3.682441e-09    3.081166e-13    8.363505e-10   -4.015829e-01
    2.322944e+01    1.411755e+02    1.646375e-05    1.645543e+04    3.698949e-09    3.189449e-13    8.678670e-10   -3.965829e-01
    2.322197e+01    1.411312e+02    1.849111e-05    1.838934e+04    3.716344e-09    3.301692e-13    9.004225e-10   -3.915829e-01
    2.321408e+01    1.410845e+02    2.076731e-05    2.054486e+04    3.734640e-09    3.418038e-13    9.340375e-10   -3.865829e-01
    2.320572e+01    1.410351e+02    2.332276e-05    2.294658e+04    3.753852e-09    3.538631e-13    9.687300e-10   -3.815829e-01
    2.319692e+01    1.409832e+02    2.619154e-05    2.562184e+04    3.773994e-09    3.663624e-13    1.004518e-09   -3.765829e-01
    2.318758e+01    1.409282e+02    2.941186e-05    2.860074e+04    3.795080e-09    3.793172e-13    1.041418e-09   -3.715829e-01
    2.317774e+01    1.408704e+02    3.302654e-05    3.191673e+04    3.817121e-09    3.927436e-13    1.079447e-09   -3.665829e-01
    2.316733e+01    1.408094e+02    3.708358e-05    3.560670e+04    3.840131e-09    4.066582e-13    1.118619e-09   -3.615829e-01
    2.315634e+01    1.407451e+02    4.163677e-05    3.971153e+04    3.864120e-09    4.210779e-13    1.158947e-09   -3.565829e-01
    2.314474e+01    1.406773e+02    4.674638e-05    4.427631e+04    3.889098e-09    4.360204e-13    1.200446e-09   -3.515829e-01
    2.313249e+01    1.406061e+02    5.247990e-05    4.935093e+04    3.915075e-09    4.515037e-13    1.243125e-09   -3.465829e-01
    2.311955e+01    1.405311e+02    5.891295e-05    5.499044e+04    3.942059e-09    4.675467e-13    1.286996e-09   -3.415829e-01
    2.310592e+01    1.404522e+02    6.613015e-05    6.125565e+04    3.970057e-09    4.841683e-13    1.332066e-09   -3.365829e-01
    2.309154e+01    1.403692e+02    7.422630e-05    6.821365e+04    3.999075e-09    5.013885e-13    1.378343e-09   -3.315829e-01
    2.307637e+01    1.402820e+02    8.330750e-05    7.593845e+04    4.029118e-09    5.192270e-13    1.425832e-09   -3.265829e-01
    2.306039e+01    1.401904e+02    9.349245e-05    8.451170e+04    4.060190e-09    5.377055e-13    1.474537e-09   -3.215829e-01
    2.304354e+01    1.400942e+02    1.049140e-04    9.402340e+04    4.092293e-09    5.568455e-13    1.524460e-09   -3.165829e-01
    2.302578e+01    1.399933e+02    1.177207e-04    1.045727e+05    4.125428e-09    5.766685e-13    1.575600e-09   -3.115829e-01
    2.300710e+01    1.398876e+02    1.320786e-04    1.162689e+05    4.159594e-09    5.971975e-13    1.627958e-09   -3.065829e-01
    2.298743e+01    1.397768e+02    1.481736e-04    1.292323e+05    4.194789e-09    6.184555e-13    1.681529e-09   -3.015829e-01
    2.296674e+01    1.396609e+02    1.662129e-04    1.435954e+05    4.231009e-09    6.404675e-13    1.736307e-09   -2.965829e-01
    2.294498e+01    1.395396e+02    1.864289e-04    1.595038e+05    4.268251e-09    6.632575e-13    1.792285e-09   -2.915829e-01
    2.292210e+01    1.394129e+02    2.090802e-04    1.771179e+05    4.306506e-09    6.868505e-13    1.849454e-09   -2.865829e-01
    2.289807e+01    1.392805e+02    2.344562e-04    1.966140e+05    4.345767e-09    7.112735e-13    1.907802e-09   -2.815829e-01
    2.287285e+01    1.391426e+02    2.628798e-04    2.181859e+05    4.386024e-09    7.365525e-13    1.967316e-09   -2.765829e-01
    2.284638e+01    1.389989e+02    2.947110e-04    2.420463e+05    4.427265e-09    7.627150e-13    2.027979e-09   -2.715829e-01
    2.281861e+01    1.388493e+02    3.303519e-04    2.684289e+05    4.469477e-09    7.897890e-13    2.089774e-09   -2.665829e-01
    2.278952e+01    1.386939e+02    3.702503e-04    2.975908e+05    4.512645e-09    8.178045e-13    2.152681e-09   -2.615829e-01
    2.275904e+01    1.385325e+02    4.149056e-04    3.298131e+05    4.556753e-09    8.467900e-13    2.216677e-09   -2.565829e-01
    2.272715e+01    1.383654e+02    4.648744e-04    3.654051e+05    4.601782e-09    8.767760e-13    2.281738e-09   -2.515829e-01
    2.269381e+01    1.381924e+02    5.207760e-04    4.047055e+05    4.647714e-09    9.077950e-13    2.347839e-09   -2.465829e-01
    2.265896e+01    1.380138e+02    5.833005e-04    4.480855e+05    4.694525e-09    9.398775e-13    2.414950e-09   -2.415829e-01
    2.262258e+01    1.378298e+02    6.532155e-04    4.959519e+05    4.742193e-09    9.730575e-13    2.483042e-09   -2.365829e-01
    2.258463e+01    1.376403e+02    7.313745e-04    5.487501e+05    4.790693e-09    1.007369e-12    2.552083e-09   -2.315829e-01
    2.254510e+01    1.374460e+02    8.187270e-04    6.069683e+05    4.840000e-09    1.042844e-12    2.622037e-09   -2.265829e-01
    2.250394e+01    1.372470e+02    9.163275e-04    6.711397e+05    4.890086e-09    1.079522e-12    2.692870e-09   -2.215829e-01
    2.246114e+01    1.370438e+02    1.025348e-03    7.418488e+05    4.940921e-09    1.117437e-12    2.764544e-09   -2.165829e-01
    2.241670e+01    1.368369e+02    1.147089e-03    8.197340e+05    4.992476e-09    1.156627e-12    2.837019e-09   -2.115829e-01
    2.237059e+01    1.366271e+02    1.282994e-03    9.054931e+05    5.044720e-09    1.197130e-12    2.910255e-09   -2.065829e-01
    2.232282e+01    1.364149e+02    1.434664e-03    9.998904e+05    5.097615e-09    1.238985e-12    2.984208e-09   -2.015829e-01
    2.227340e+01    1.362013e+02    1.603874e-03    1.103758e+06    5.151135e-09    1.282232e-12    3.058837e-09   -1.965829e-01
    2.222234e+01    1.359872e+02    1.792591e-03    1.218009e+06    5.205240e-09    1.326915e-12    3.134095e-09   -1.915829e-01
    2.216968e+01    1.357739e+02    2.002993e-03    1.343638e+06    5.259890e-09    1.373073e-12    3.209937e-09   -1.865829e-01
    2.211542e+01    1.355624e+02    2.237493e-03    1.481729e+06    5.315060e-09    1.420752e-12    3.286314e-09   -1.815829e-01
    2.205963e+01    1.353544e+02    2.498760e-03    1.633473e+06    5.370700e-09    1.469995e-12    3.363181e-09   -1.765829e-01
    2.200237e+01    1.351514e+02    2.789745e-03    1.800163e+06    5.426780e-09    1.520848e-12    3.440487e-09   -1.715829e-01
    2.194371e+01    1.349552e+02    3.113712e-03    1.983217e+06    5.483255e-09    1.573359e-12    3.518182e-09   -1.665829e-01
    2.188371e+01    1.347677e+02    3.474271e-03    2.184178e+06    5.540090e-09    1.627575e-12    3.596219e-09   -1.615829e-01
    2.182247e+01    1.345910e+02    3.875407e-03    2.404734e+06    5.597245e-09    1.683545e-12    3.674545e-09   -1.565829e-01
    2.176009e+01    1.344277e+02    4.321522e-03    2.646729e+06    5.654680e-09    1.741321e-12    3.753111e-09   -1.515829e-01
    2.169669e+01    1.342801e+02    4.817475e-03    2.912180e+06    5.712350e-09    1.800955e-12    3.831864e-09   -1.465829e-01
    2.163239e+01    1.341512e+02    5.368630e-03    3.203289e+06    5.770215e-09    1.862498e-12    3.910756e-09   -1.415829e-01
    2.156731e+01    1.340438e+02    5.980910e-03    3.522459e+06    5.828240e-09    1.926007e-12    3.989735e-09   -1.365829e-01
    2.150162e+01    1.339611e+02    6.660835e-03    3.872324e+06    5.886380e-09    1.991538e-12    4.068750e-09   -1.315829e-01
    2.143543e+01    1.339064e+02    7.415615e-03    4.255758e+06    5.944600e-09    2.059147e-12    4.147754e-09   -1.265829e-01
    2.136892e+01    1.338834e+02    8.253180e-03    4.675910e+06    6.002855e-09    2.128896e-12    4.226694e-09   -1.215829e-01
    2.130221e+01    1.338957e+02    9.182290e-03    5.136220e+06    6.061110e-09    2.200842e-12    4.305523e-09   -1.165829e-01
    2.123545e+01    1.339471e+02    1.021259e-02    5.640450e+06    6.119325e-09    2.275051e-12    4.384192e-09   -1.115829e-01
    2.116878e+01    1.340414e+02    1.135470e-02    6.192725e+06    6.177455e-09    2.351585e-12    4.462654e-09   -1.065829e-01
    2.110230e+01    1.341828e+02    1.262033e-02    6.797531e+06    6.235475e-09    2.430510e-12    4.540865e-09   -1.015829e-01
    2.103614e+01    1.343752e+02    1.402239e-02    7.459793e+06    6.293340e-09    2.511893e-12    4.618777e-09   -9.658290e-02
    2.097034e+01    1.346226e+02    1.557506e-02    8.184885e+06    6.351010e-09    2.595805e-12    4.696346e-09   -9.158290e-02
    2.090497e+01    1.349289e+02    1.729399e-02    8.978654e+06    6.408460e-09    2.682316e-12    4.773530e-09   -8.658290e-02
    2.084002e+01    1.352979e+02    1.919638e-02    9.847483e+06    6.465650e-09    2.771500e-12    4.850288e-09   -8.158290e-02
    2.077546e+01    1.357331e+02    2.130113e-02    1.079831e+07    6.522550e-09    2.863432e-12    4.926579e-09   -7.658290e-02
    2.071120e+01    1.362377e+02    2.362904e-02    1.183868e+07    6.579125e-09    2.958189e-12    5.002365e-09   -7.158290e-02
    2.064710e+01    1.368148e+02    2.620295e-02    1.297675e+07    6.635345e-09    3.055851e-12    5.077605e-09   -6.658290e-02
    2.058294e+01    1.374666e+02    2.904794e-02    1.422132e+07    6.691185e-09    3.156499e-12    5.152270e-09   -6.158290e-02
    2.051849e+01    1.381952e+02    3.219146e-02    1.558191e+07    6.746605e-09    3.260219e-12    5.226320e-09   -5.658290e-02
    2.045339e+01    1.390017e+02    3.566362e-02    1.706870e+07    6.801590e-09    3.367095e-12    5.299725e-09   -5.158290e-02
    2.038725e+01    1.398868e+02    3.949734e-02    1.869256e+07    6.856110e-09    3.477218e-12    5.372450e-09   -4.658290e-02
    2.031959e+01    1.408499e+02    4.372855e-02    2.046508e+07    6.910135e-09    3.590679e-12    5.444475e-09   -4.158290e-02
    2.024990e+01    1.418902e+02    4.839642e-02    2.239852e+07    6.963650e-09    3.707572e-12    5.515765e-09   -3.658290e-02
    2.017759e+01    1.430054e+02    5.354355e-02    2.450577e+07    7.016625e-09    3.827993e-12    5.586295e-09   -3.158290e-02
    2.010202e+01    1.441923e+02    5.921625e-02    2.680032e+07    7.069045e-09    3.952044e-12    5.656040e-09   -2.658290e-02
    2.002250e+01    1.454470e+02    6.546460e-02    2.929618e+07    7.120885e-09    4.079825e-12    5.724985e-09   -2.158290e-02
    1.993835e+01    1.467640e+02    7.234265e-02    3.200776e+07    7.172135e-09    4.211444e-12    5.793100e-09   -1.658290e-02
    1.984883e+01    1.481369e+02    7.990865e-02    3.494981e+07    7.222775e-09    4.347009e-12    5.860370e-09   -1.158290e-02
    1.975322e+01    1.495582e+02    8.822515e-02    3.813728e+07    7.272785e-09    4.486632e-12    5.926780e-09   -6.582900e-03
    1.965081e+01    1.510194e+02    9.735895e-02    4.158509e+07    7.322155e-09    4.630429e-12    5.992305e-09   -1.582900e-03
    1.954090e+01    1.525108e+02    1.073815e-01    4.530804e+07    7.370870e-09    4.778519e-12    6.056945e-09    3.417100e-03
    1.942286e+01    1.540218e+02    1.183683e-01    4.932051e+07    7.418925e-09    4.931024e-12    6.120675e-09    8.417100e-03
    1.929611e+01    1.555411e+02    1.303993e-01    5.363644e+07    7.466300e-09    5.088070e-12    6.183490e-09    1.341710e-02
    1.916015e+01    1.570564e+02    1.435590e-01    5.826888e+07    7.512990e-09    5.249790e-12    6.245380e-09    1.841710e-02
    1.901454e+01    1.585551e+02    1.579356e-01    6.322984e+07    7.558990e-09    5.416310e-12    6.306335e-09    2.341710e-02
    1.885897e+01    1.600239e+02    1.736211e-01    6.853016e+07    7.604290e-09    5.587780e-12    6.366350e-09    2.841710e-02
    1.869320e+01    1.614493e+02    1.907111e-01    7.417911e+07    7.648885e-09    5.764335e-12    6.425420e-09    3.341710e-02
    1.851712e+01    1.628179e+02    2.093044e-01    8.018429e+07    7.692770e-09    5.946125e-12    6.483540e-09    3.841710e-02
    1.833073e+01    1.641161e+02    2.295025e-01    8.655139e+07    7.735940e-09    6.133305e-12    6.540710e-09    4.341710e-02
    1.813412e+01    1.653308e+02    2.514088e-01    9.328395e+07    7.778395e-09    6.326020e-12    6.596925e-09    4.841710e-02
    1.792750e+01    1.664493e+02    2.751285e-01    1.003833e+08    7.820130e-09    6.524445e-12    6.652185e-09    5.341710e-02
    1.771120e+01    1.674595e+02    3.007679e-01    1.078483e+08    7.861150e-09    6.728740e-12    6.706495e-09    5.841710e-02
    1.748560e+01    1.683503e+02    3.284336e-01    1.156755e+08    7.901450e-09    6.939075e-12    6.759850e-09    6.341710e-02
    1.725122e+01    1.691114e+02    3.582318e-01    1.238588e+08    7.941035e-09    7.155630e-12    6.812260e-09    6.841710e-02
    1.700862e+01    1.697337e+02    3.902678e-01    1.323897e+08    7.979905e-09    7.378590e-12    6.863725e-09    7.341710e-02
    1.675843e+01    1.702093e+02    4.246451e-01    1.412571e+08    8.018060e-09    7.608140e-12    6.914250e-09    7.841710e-02
    1.650133e+01    1.705315e+02    4.614649e-01    1.504475e+08    8.055505e-09    7.844480e-12    6.963845e-09    8.341710e-02
    1.623809e+01    1.706953e+02    5.008250e-01    1.599455e+08    8.092245e-09    8.087805e-12    7.012510e-09    8.841710e-02
    1.596943e+01    1.706967e+02    5.428200e-01    1.697330e+08    8.128285e-09    8.338330e-12    7.060260e-09    9.341710e-02
    1.569615e+01    1.705335e+02    5.875395e-01    1.797907e+08    8.163630e-09    8.596270e-12    7.107095e-09    9.841710e-02
    1.541905e+01    1.702046e+02    6.350685e-01    1.900968e+08    8.198290e-09    8.861840e-12    7.153025e-09    1.034171e-01
    1.513890e+01    1.697104e+02    6.854865e-01    2.006292e+08    8.232260e-09    9.135275e-12    7.198065e-09    1.084171e-01
    1.485649e+01    1.690525e+02    7.388670e-01    2.113638e+08    8.265555e-09    9.416810e-12    7.242225e-09    1.134171e-01
    1.457259e+01    1.682340e+02    7.952775e-01    2.222759e+08    8.298185e-09    9.706690e-12    7.285505e-09    1.184171e-01
    1.428792e+01    1.672588e+02    8.547785e-01    2.333403e+08    8.330150e-09    1.000517e-11    7.327925e-09    1.234171e-01
    1.400319e+01    1.661322e+02    9.174245e-01    2.445318e+08    8.361460e-09    1.031251e-11    7.369495e-09    1.284171e-01
    1.371908e+01    1.648599e+02    9.832620e-01    2.558245e+08    8.392130e-09    1.062898e-11    7.410225e-09    1.334171e-01
    1.343621e+01    1.634489e+02    1.052331e+00    2.671935e+08    8.422160e-09    1.095486e-11    7.450125e-09    1.384171e-01
    1.315518e+01    1.619067e+02    1.124666e+00    2.786143e+08    8.451560e-09    1.129044e-11    7.489215e-09    1.434171e-01
    1.287653e+01    1.602412e+02    1.200291e+00    2.900625e+08    8.480350e-09    1.163602e-11    7.527495e-09    1.484171e-01
    1.260076e+01    1.584610e+02    1.279227e+00    3.015157e+08    8.508525e-09    1.199190e-11    7.564990e-09    1.534171e-01
    1.232831e+01    1.565746e+02    1.361486e+00    3.129516e+08    8.536105e-09    1.235840e-11    7.601710e-09    1.584171e-01
    1.205961e+01    1.545910e+02    1.447076e+00    3.243500e+08    8.563095e-09    1.273588e-11    7.637660e-09    1.634171e-01
    1.179501e+01    1.525194e+02    1.535997e+00    3.356918e+08    8.589505e-09    1.312464e-11    7.672865e-09    1.684171e-01
    1.153483e+01    1.503687e+02    1.628245e+00    3.469590e+08    8.615350e-09    1.352505e-11    7.707330e-09    1.734171e-01
    1.127936e+01    1.481477e+02    1.723808e+00    3.581359e+08    8.640635e-09    1.393749e-11    7.741070e-09    1.784171e-01
    1.102882e+01    1.458654e+02    1.822673e+00    3.692075e+08    8.665375e-09    1.436231e-11    7.774105e-09    1.834171e-01
    1.078342e+01    1.435301e+02    1.924821e+00    3.801615e+08    8.689575e-09    1.479994e-11    7.806440e-09    1.884171e-01
    1.054331e+01    1.411500e+02    2.030226e+00    3.909862e+08    8.713250e-09    1.525074e-11    7.838090e-09    1.934171e-01
    1.030863e+01    1.387332e+02    2.138864e+00    4.016721e+08    8.736405e-09    1.571517e-11    7.869075e-09    1.984171e-01
    1.007948e+01    1.362871e+02    2.250704e+00    4.122109e+08    8.759055e-09    1.619364e-11    7.899400e-09    2.034171e-01
    9.855927e+00    1.338186e+02    2.365712e+00    4.225955e+08    8.781215e-09    1.668661e-11    7.929085e-09    2.084171e-01
    9.638008e+00    1.313346e+02    2.483854e+00    4.328211e+08    8.802885e-09    1.719454e-11    7.958140e-09    2.134171e-01
    9.425744e+00    1.288413e+02    2.605093e+00    4.428836e+08    8.824080e-09    1.771792e-11    7.986580e-09    2.184171e-01
    9.219130e+00    1.263444e+02    2.729391e+00    4.527797e+08    8.844815e-09    1.825723e-11    8.014415e-09    2.234171e-01
    9.018144e+00    1.238493e+02    2.856706e+00    4.625082e+08    8.865095e-09    1.881301e-11    8.041660e-09    2.284171e-01
    8.822745e+00    1.213609e+02    2.986999e+00    4.720680e+08    8.884935e-09    1.938578e-11    8.068330e-09    2.334171e-01
    8.632878e+00    1.188836e+02    3.120227e+00    4.814600e+08    8.904340e-09    1.997609e-11    8.094440e-09    2.384171e-01
