# sky130 nfet_01v8 gm/ID Processed Lookup Table
# Corner: tt
# Temperature: 75C
# W = 2.0 um
# L = 2.88 um (2880 nm)
# Columns: gm/id [1/V]  gm/gds [V/V]  id/W [A/m]  ft [Hz]  Cgg/W [F/m]  Cgd/W [F/m]  Cgs/W [F/m]  Vov [V]
#         gm/id          gm/gds            id/W              ft           Cgg/W           Cgd/W           Cgs/W             Vov
    2.309615e+01    1.674328e+02    8.548165e-07    4.964355e+02    6.329505e-09    3.109459e-13    7.423360e-10   -4.960333e-01
    2.309383e+01    1.674161e+02    9.594515e-07    5.566900e+02    6.334695e-09    3.214128e-13    7.710480e-10   -4.910333e-01
    2.309137e+01    1.673985e+02    1.076882e-06    6.241467e+02    6.340905e-09    3.322570e-13    8.008785e-10   -4.860333e-01
    2.308877e+01    1.673798e+02    1.208670e-06    6.996491e+02    6.348165e-09    3.434926e-13    8.318635e-10   -4.810333e-01
    2.308601e+01    1.673600e+02    1.356567e-06    7.841388e+02    6.356490e-09    3.551341e-13    8.640405e-10   -4.760333e-01
    2.308310e+01    1.673392e+02    1.522540e-06    8.786620e+02    6.365920e-09    3.671968e-13    8.974455e-10   -4.710333e-01
    2.308001e+01    1.673170e+02    1.708794e-06    9.843846e+02    6.376480e-09    3.796962e-13    9.321155e-10   -4.660333e-01
    2.307674e+01    1.672936e+02    1.917802e-06    1.102607e+03    6.388190e-09    3.926485e-13    9.680895e-10   -4.610333e-01
    2.307328e+01    1.672688e+02    2.152339e-06    1.234770e+03    6.401090e-09    4.060705e-13    1.005405e-09   -4.560333e-01
    2.306962e+01    1.672426e+02    2.415515e-06    1.382484e+03    6.415200e-09    4.199797e-13    1.044102e-09   -4.510333e-01
    2.306574e+01    1.672149e+02    2.710819e-06    1.547532e+03    6.430555e-09    4.343939e-13    1.084217e-09   -4.460333e-01
    2.306166e+01    1.671857e+02    3.042164e-06    1.731904e+03    6.447175e-09    4.493318e-13    1.125789e-09   -4.410333e-01
    2.305731e+01    1.671547e+02    3.413939e-06    1.937801e+03    6.465100e-09    4.648127e-13    1.168858e-09   -4.360333e-01
    2.305272e+01    1.671221e+02    3.831062e-06    2.167678e+03    6.484355e-09    4.808563e-13    1.213461e-09   -4.310333e-01
    2.304787e+01    1.670875e+02    4.299048e-06    2.424255e+03    6.504965e-09    4.974834e-13    1.259636e-09   -4.260333e-01
    2.304274e+01    1.670510e+02    4.824081e-06    2.710553e+03    6.526960e-09    5.147150e-13    1.307422e-09   -4.210333e-01
    2.303732e+01    1.670124e+02    5.413090e-06    3.029923e+03    6.550370e-09    5.325735e-13    1.356856e-09   -4.160333e-01
    2.303159e+01    1.669718e+02    6.073850e-06    3.386082e+03    6.575225e-09    5.510815e-13    1.407974e-09   -4.110333e-01
    2.302552e+01    1.669288e+02    6.815065e-06    3.783148e+03    6.601555e-09    5.702620e-13    1.460813e-09   -4.060333e-01
    2.301910e+01    1.668834e+02    7.646495e-06    4.225694e+03    6.629380e-09    5.901395e-13    1.515408e-09   -4.010333e-01
    2.301232e+01    1.668356e+02    8.579075e-06    4.718779e+03    6.658730e-09    6.107395e-13    1.571796e-09   -3.960333e-01
    2.300516e+01    1.667850e+02    9.625060e-06    5.268011e+03    6.689630e-09    6.320870e-13    1.630007e-09   -3.910333e-01
    2.299759e+01    1.667317e+02    1.079818e-05    5.879595e+03    6.722105e-09    6.542095e-13    1.690075e-09   -3.860333e-01
    2.298959e+01    1.666755e+02    1.211380e-05    6.560399e+03    6.756185e-09    6.771340e-13    1.752032e-09   -3.810333e-01
    2.298114e+01    1.666162e+02    1.358916e-05    7.318020e+03    6.791890e-09    7.008895e-13    1.815907e-09   -3.760333e-01
    2.297222e+01    1.665538e+02    1.524354e-05    8.160872e+03    6.829240e-09    7.255045e-13    1.881728e-09   -3.710333e-01
    2.296280e+01    1.664879e+02    1.709855e-05    9.098248e+03    6.868255e-09    7.510095e-13    1.949522e-09   -3.660333e-01
    2.295285e+01    1.664186e+02    1.917837e-05    1.014041e+04    6.908960e-09    7.774360e-13    2.019314e-09   -3.610333e-01
    2.294235e+01    1.663456e+02    2.151007e-05    1.129872e+04    6.951370e-09    8.048155e-13    2.091126e-09   -3.560333e-01
    2.293127e+01    1.662688e+02    2.412396e-05    1.258572e+04    6.995500e-09    8.331815e-13    2.164978e-09   -3.510333e-01
    2.291958e+01    1.661879e+02    2.705395e-05    1.401523e+04    7.041370e-09    8.625680e-13    2.240890e-09   -3.460333e-01
    2.290723e+01    1.661028e+02    3.033797e-05    1.560253e+04    7.088990e-09    8.930100e-13    2.318878e-09   -3.410333e-01
    2.289423e+01    1.660134e+02    3.401848e-05    1.736449e+04    7.138370e-09    9.245440e-13    2.398953e-09   -3.360333e-01
    2.288052e+01    1.659195e+02    3.814297e-05    1.931970e+04    7.189525e-09    9.572065e-13    2.481129e-09   -3.310333e-01
    2.286607e+01    1.658209e+02    4.276449e-05    2.148864e+04    7.242460e-09    9.910370e-13    2.565412e-09   -3.260333e-01
    2.285085e+01    1.657175e+02    4.794242e-05    2.389393e+04    7.297175e-09    1.026074e-12    2.651808e-09   -3.210333e-01
    2.283482e+01    1.656090e+02    5.374310e-05    2.656048e+04    7.353675e-09    1.062358e-12    2.740319e-09   -3.160333e-01
    2.281794e+01    1.654952e+02    6.024065e-05    2.951568e+04    7.411965e-09    1.099931e-12    2.830945e-09   -3.110333e-01
    2.280016e+01    1.653760e+02    6.751795e-05    3.278975e+04    7.472040e-09    1.138837e-12    2.923680e-09   -3.060333e-01
    2.278148e+01    1.652513e+02    7.566740e-05    3.641593e+04    7.533895e-09    1.179119e-12    3.018518e-09   -3.010333e-01
    2.276181e+01    1.651208e+02    8.479245e-05    4.043077e+04    7.597525e-09    1.220823e-12    3.115448e-09   -2.960333e-01
    2.274116e+01    1.649846e+02    9.500830e-05    4.487454e+04    7.662920e-09    1.263995e-12    3.214455e-09   -2.910333e-01
    2.271945e+01    1.648422e+02    1.064437e-04    4.979145e+04    7.730065e-09    1.308684e-12    3.315523e-09   -2.860333e-01
    2.269667e+01    1.646938e+02    1.192422e-04    5.523013e+04    7.798950e-09    1.354938e-12    3.418630e-09   -2.810333e-01
    2.267274e+01    1.645391e+02    1.335640e-04    6.124402e+04    7.869550e-09    1.402810e-12    3.523750e-09   -2.760333e-01
    2.264765e+01    1.643782e+02    1.495876e-04    6.789179e+04    7.941850e-09    1.452350e-12    3.630857e-09   -2.710333e-01
    2.262135e+01    1.642109e+02    1.675121e-04    7.523785e+04    8.015825e-09    1.503612e-12    3.739916e-09   -2.660333e-01
    2.259379e+01    1.640373e+02    1.875591e-04    8.335297e+04    8.091445e-09    1.556652e-12    3.850894e-09   -2.610333e-01
    2.256494e+01    1.638573e+02    2.099756e-04    9.231469e+04    8.168685e-09    1.611525e-12    3.963751e-09   -2.560333e-01
    2.253476e+01    1.636710e+02    2.350365e-04    1.022081e+05    8.247515e-09    1.668292e-12    4.078445e-09   -2.510333e-01
    2.250320e+01    1.634785e+02    2.630480e-04    1.131264e+05    8.327895e-09    1.727009e-12    4.194928e-09   -2.460333e-01
    2.247025e+01    1.632801e+02    2.943503e-04    1.251721e+05    8.409790e-09    1.787740e-12    4.313151e-09   -2.410333e-01
    2.243586e+01    1.630758e+02    3.293222e-04    1.384569e+05    8.493155e-09    1.850546e-12    4.433062e-09   -2.360333e-01
    2.239999e+01    1.628659e+02    3.683843e-04    1.531035e+05    8.577960e-09    1.915493e-12    4.554604e-09   -2.310333e-01
    2.236263e+01    1.626509e+02    4.120043e-04    1.692463e+05    8.664145e-09    1.982648e-12    4.677718e-09   -2.260333e-01
    2.232376e+01    1.624312e+02    4.607016e-04    1.870321e+05    8.751670e-09    2.052076e-12    4.802340e-09   -2.210333e-01
    2.228334e+01    1.622073e+02    5.150525e-04    2.066217e+05    8.840485e-09    2.123850e-12    4.928407e-09   -2.160333e-01
    2.224136e+01    1.619797e+02    5.756970e-04    2.281907e+05    8.930535e-09    2.198041e-12    5.055850e-09   -2.110333e-01
    2.219785e+01    1.617495e+02    6.433440e-04    2.519316e+05    9.021770e-09    2.274723e-12    5.184595e-09   -2.060333e-01
    2.215277e+01    1.615175e+02    7.187810e-04    2.780544e+05    9.114125e-09    2.353971e-12    5.314575e-09   -2.010333e-01
    2.210613e+01    1.612845e+02    8.028795e-04    3.067886e+05    9.207545e-09    2.435863e-12    5.445710e-09   -1.960333e-01
    2.205794e+01    1.610519e+02    8.966055e-04    3.383852e+05    9.301975e-09    2.520478e-12    5.577920e-09   -1.910333e-01
    2.200825e+01    1.608210e+02    1.001027e-03    3.731179e+05    9.397350e-09    2.607900e-12    5.711130e-09   -1.860333e-01
    2.195707e+01    1.605933e+02    1.117329e-03    4.112866e+05    9.493600e-09    2.698212e-12    5.845260e-09   -1.810333e-01
    2.190446e+01    1.603705e+02    1.246818e-03    4.532177e+05    9.590670e-09    2.791500e-12    5.980220e-09   -1.760333e-01
    2.185046e+01    1.601545e+02    1.390944e-03    4.992689e+05    9.688485e-09    2.887854e-12    6.115935e-09   -1.710333e-01
    2.179513e+01    1.599476e+02    1.551306e-03    5.498296e+05    9.786985e-09    2.987364e-12    6.252310e-09   -1.660333e-01
    2.173855e+01    1.597519e+02    1.729673e-03    6.053260e+05    9.886105e-09    3.090124e-12    6.389265e-09   -1.610333e-01
    2.168081e+01    1.595702e+02    1.927996e-03    6.662241e+05    9.985765e-09    3.196231e-12    6.526715e-09   -1.560333e-01
    2.162201e+01    1.594053e+02    2.148432e-03    7.330321e+05    1.008590e-08    3.305782e-12    6.664570e-09   -1.510333e-01
    2.156226e+01    1.592602e+02    2.393363e-03    8.063058e+05    1.018646e-08    3.418880e-12    6.802740e-09   -1.460333e-01
    2.150167e+01    1.591384e+02    2.665415e-03    8.866530e+05    1.028735e-08    3.535630e-12    6.941145e-09   -1.410333e-01
    2.144038e+01    1.590434e+02    2.967485e-03    9.747383e+05    1.038851e-08    3.656137e-12    7.079690e-09   -1.360333e-01
    2.137851e+01    1.589791e+02    3.302773e-03    1.071288e+06    1.048987e-08    3.780513e-12    7.218295e-09   -1.310333e-01
    2.131622e+01    1.589497e+02    3.674802e-03    1.177097e+06    1.059136e-08    3.908870e-12    7.356870e-09   -1.260333e-01
    2.125366e+01    1.589595e+02    4.087461e-03    1.293037e+06    1.069293e-08    4.041325e-12    7.495330e-09   -1.210333e-01
    2.119098e+01    1.590133e+02    4.545036e-03    1.420060e+06    1.079448e-08    4.177996e-12    7.633595e-09   -1.160333e-01
    2.112832e+01    1.591157e+02    5.052250e-03    1.559208e+06    1.089597e-08    4.319009e-12    7.771580e-09   -1.110333e-01
    2.106582e+01    1.592719e+02    5.614310e-03    1.711622e+06    1.099733e-08    4.464488e-12    7.909200e-09   -1.060333e-01
    2.100362e+01    1.594869e+02    6.236955e-03    1.878553e+06    1.109848e-08    4.614564e-12    8.046385e-09   -1.010333e-01
    2.094182e+01    1.597662e+02    6.926510e-03    2.061367e+06    1.119938e-08    4.769369e-12    8.183045e-09   -9.603330e-02
    2.088055e+01    1.601152e+02    7.689930e-03    2.261560e+06    1.129995e-08    4.929044e-12    8.319115e-09   -9.103330e-02
    2.081986e+01    1.605390e+02    8.534890e-03    2.480767e+06    1.140013e-08    5.093725e-12    8.454510e-09   -8.603330e-02
    2.075979e+01    1.610433e+02    9.469835e-03    2.720773e+06    1.149988e-08    5.263565e-12    8.589170e-09   -8.103330e-02
    2.070034e+01    1.616331e+02    1.050405e-02    2.983523e+06    1.159913e-08    5.438710e-12    8.723020e-09   -7.603330e-02
    2.064147e+01    1.623136e+02    1.164778e-02    3.271140e+06    1.169782e-08    5.619310e-12    8.855995e-09   -7.103330e-02
    2.058307e+01    1.630893e+02    1.291226e-02    3.585925e+06    1.179590e-08    5.805530e-12    8.988030e-09   -6.603330e-02
    2.052501e+01    1.639648e+02    1.430984e-02    3.930380e+06    1.189334e-08    5.997530e-12    9.119060e-09   -6.103330e-02
    2.046707e+01    1.649440e+02    1.585409e-02    4.307208e+06    1.199006e-08    6.195480e-12    9.249030e-09   -5.603330e-02
    2.040897e+01    1.660300e+02    1.755989e-02    4.719322e+06    1.208602e-08    6.399550e-12    9.377880e-09   -5.103330e-02
    2.035037e+01    1.672256e+02    1.944356e-02    5.169857e+06    1.218119e-08    6.609925e-12    9.505565e-09   -4.603330e-02
    2.029087e+01    1.685326e+02    2.152295e-02    5.662164e+06    1.227553e-08    6.826780e-12    9.632025e-09   -4.103330e-02
    2.022998e+01    1.699520e+02    2.381754e-02    6.199819e+06    1.236897e-08    7.050310e-12    9.757220e-09   -3.603330e-02
    2.016716e+01    1.714835e+02    2.634863e-02    6.786605e+06    1.246150e-08    7.280710e-12    9.881095e-09   -3.103330e-02
    2.010183e+01    1.731262e+02    2.913936e-02    7.426525e+06    1.255308e-08    7.518180e-12    1.000362e-08   -2.603330e-02
    2.003333e+01    1.748776e+02    3.221491e-02    8.123767e+06    1.264366e-08    7.762930e-12    1.012475e-08   -2.103330e-02
    1.996098e+01    1.767341e+02    3.560253e-02    8.882690e+06    1.273322e-08    8.015170e-12    1.024445e-08   -1.603330e-02
    1.988405e+01    1.786908e+02    3.933173e-02    9.707804e+06    1.282174e-08    8.275115e-12    1.036268e-08   -1.103330e-02
    1.980181e+01    1.807415e+02    4.343426e-02    1.060374e+07    1.290918e-08    8.543005e-12    1.047942e-08   -6.033300e-03
    1.971352e+01    1.828784e+02    4.794428e-02    1.157518e+07    1.299552e-08    8.819065e-12    1.059464e-08   -1.033300e-03
    1.961845e+01    1.850926e+02    5.289835e-02    1.262685e+07    1.308073e-08    9.103540e-12    1.070831e-08    3.966700e-03
    1.951589e+01    1.873736e+02    5.833555e-02    1.376345e+07    1.316481e-08    9.396680e-12    1.082042e-08    8.966700e-03
    1.940519e+01    1.897098e+02    6.429730e-02    1.498959e+07    1.324772e-08    9.698735e-12    1.093093e-08    1.396670e-02
    1.928576e+01    1.920882e+02    7.082760e-02    1.630975e+07    1.332945e-08    1.000998e-11    1.103984e-08    1.896670e-02
    1.915705e+01    1.944949e+02    7.797280e-02    1.772815e+07    1.340999e-08    1.033068e-11    1.114714e-08    2.396670e-02
    1.901862e+01    1.969148e+02    8.578150e-02    1.924875e+07    1.348933e-08    1.066113e-11    1.125280e-08    2.896670e-02
    1.887013e+01    1.993321e+02    9.430455e-02    2.087515e+07    1.356745e-08    1.100161e-11    1.135682e-08    3.396670e-02
    1.871133e+01    2.017303e+02    1.035948e-01    2.261049e+07    1.364435e-08    1.135243e-11    1.145918e-08    3.896670e-02
    1.854205e+01    2.040925e+02    1.137070e-01    2.445741e+07    1.372001e-08    1.171389e-11    1.155991e-08    4.396670e-02
    1.836227e+01    2.064013e+02    1.246975e-01    2.641799e+07    1.379445e-08    1.208632e-11    1.165897e-08    4.896670e-02
    1.817208e+01    2.086395e+02    1.366237e-01    2.849364e+07    1.386765e-08    1.247005e-11    1.175637e-08    5.396670e-02
    1.797163e+01    2.107901e+02    1.495445e-01    3.068510e+07    1.393961e-08    1.286542e-11    1.185212e-08    5.896670e-02
    1.776124e+01    2.128362e+02    1.635192e-01    3.299238e+07    1.401033e-08    1.327279e-11    1.194622e-08    6.396670e-02
    1.754126e+01    2.147615e+02    1.786075e-01    3.541472e+07    1.407981e-08    1.369252e-11    1.203867e-08    6.896670e-02
    1.731218e+01    2.165510e+02    1.948690e-01    3.795054e+07    1.414806e-08    1.412500e-11    1.212947e-08    7.396670e-02
    1.707455e+01    2.181902e+02    2.123632e-01    4.059751e+07    1.421508e-08    1.457060e-11    1.221865e-08    7.896670e-02
    1.682897e+01    2.196658e+02    2.311484e-01    4.335248e+07    1.428086e-08    1.502975e-11    1.230620e-08    8.396670e-02
    1.657612e+01    2.209660e+02    2.512819e-01    4.621156e+07    1.434544e-08    1.550284e-11    1.239213e-08    8.896670e-02
    1.631673e+01    2.220804e+02    2.728195e-01    4.917008e+07    1.440880e-08    1.599032e-11    1.247646e-08    9.396670e-02
    1.605154e+01    2.230000e+02    2.958147e-01    5.222272e+07    1.447095e-08    1.649264e-11    1.255921e-08    9.896670e-02
    1.578133e+01    2.237176e+02    3.203189e-01    5.536353e+07    1.453191e-08    1.701025e-11    1.264038e-08    1.039667e-01
    1.550690e+01    2.242277e+02    3.463811e-01    5.858596e+07    1.459169e-08    1.754363e-11    1.271999e-08    1.089667e-01
    1.522901e+01    2.245259e+02    3.740466e-01    6.188295e+07    1.465030e-08    1.809328e-11    1.279807e-08    1.139667e-01
    1.494847e+01    2.246103e+02    4.033583e-01    6.524717e+07    1.470775e-08    1.865970e-11    1.287461e-08    1.189667e-01
    1.466605e+01    2.244800e+02    4.343550e-01    6.867086e+07    1.476405e-08    1.924344e-11    1.294966e-08    1.239667e-01
    1.438249e+01    2.241362e+02    4.670722e-01    7.214609e+07    1.481922e-08    1.984503e-11    1.302321e-08    1.289667e-01
    1.409850e+01    2.235809e+02    5.015415e-01    7.566475e+07    1.487327e-08    2.046504e-11    1.309530e-08    1.339667e-01
    1.381479e+01    2.228181e+02    5.377905e-01    7.921872e+07    1.492622e-08    2.110406e-11    1.316594e-08    1.389667e-01
    1.353198e+01    2.218526e+02    5.758435e-01    8.279992e+07    1.497808e-08    2.176269e-11    1.323516e-08    1.439667e-01
    1.325071e+01    2.206908e+02    6.157195e-01    8.640044e+07    1.502886e-08    2.244158e-11    1.330297e-08    1.489667e-01
    1.297151e+01    2.193396e+02    6.574350e-01    9.001246e+07    1.507860e-08    2.314135e-11    1.336940e-08    1.539667e-01
    1.269493e+01    2.178074e+02    7.010020e-01    9.362859e+07    1.512729e-08    2.386269e-11    1.343447e-08    1.589667e-01
    1.242142e+01    2.161028e+02    7.464290e-01    9.724165e+07    1.517496e-08    2.460630e-11    1.349821e-08    1.639667e-01
    1.215142e+01    2.142354e+02    7.937205e-01    1.008449e+08    1.522162e-08    2.537289e-11    1.356062e-08    1.689667e-01
    1.188533e+01    2.122148e+02    8.428770e-01    1.044320e+08    1.526729e-08    2.616323e-11    1.362175e-08    1.739667e-01
    1.162348e+01    2.100515e+02    8.938980e-01    1.079972e+08    1.531200e-08    2.697808e-11    1.368160e-08    1.789667e-01
    1.136618e+01    2.077559e+02    9.467770e-01    1.115350e+08    1.535575e-08    2.781825e-11    1.374022e-08    1.839667e-01
    1.111367e+01    2.053387e+02    1.001507e+00    1.150406e+08    1.539856e-08    2.868457e-11    1.379761e-08    1.889667e-01
    1.086617e+01    2.028101e+02    1.058078e+00    1.185097e+08    1.544047e-08    2.957790e-11    1.385380e-08    1.939667e-01
    1.062389e+01    2.001810e+02    1.116475e+00    1.219384e+08    1.548147e-08    3.049913e-11    1.390881e-08    1.989667e-01
    1.038695e+01    1.974615e+02    1.176685e+00    1.253234e+08    1.552159e-08    3.144920e-11    1.396268e-08    2.039667e-01
    1.015547e+01    1.946617e+02    1.238691e+00    1.286619e+08    1.556085e-08    3.242906e-11    1.401542e-08    2.089667e-01
    9.929553e+00    1.917915e+02    1.302474e+00    1.319516e+08    1.559927e-08    3.343971e-11    1.406704e-08    2.139667e-01
    9.709239e+00    1.888602e+02    1.368013e+00    1.351905e+08    1.563686e-08    3.448218e-11    1.411759e-08    2.189667e-01
    9.494569e+00    1.858770e+02    1.435290e+00    1.383774e+08    1.567364e-08    3.555754e-11    1.416708e-08    2.239667e-01
    9.285546e+00    1.828502e+02    1.504281e+00    1.415111e+08    1.570963e-08    3.666689e-11    1.421553e-08    2.289667e-01
    9.082169e+00    1.797880e+02    1.574963e+00    1.445910e+08    1.574486e-08    3.781140e-11    1.426295e-08    2.339667e-01
    8.884396e+00    1.766982e+02    1.647314e+00    1.476169e+08    1.577932e-08    3.899225e-11    1.430939e-08    2.389667e-01
    8.692193e+00    1.735879e+02    1.721309e+00    1.505888e+08    1.581305e-08    4.021067e-11    1.435487e-08    2.439667e-01
    8.505489e+00    1.704638e+02    1.796926e+00    1.535070e+08    1.584606e-08    4.146796e-11    1.439939e-08    2.489667e-01
    8.324217e+00    1.673320e+02    1.874139e+00    1.563721e+08    1.587838e-08    4.276544e-11    1.444298e-08    2.539667e-01
    8.148285e+00    1.641983e+02    1.952925e+00    1.591848e+08    1.591001e-08    4.410449e-11    1.448567e-08    2.589667e-01
