# sky130 nfet_01v8 gm/ID Processed Lookup Table
# Corner: tt
# Temperature: 75C
# W = 2.0 um
# L = 3.42 um (3420 nm)
# Columns: gm/id [1/V]  gm/gds [V/V]  id/W [A/m]  ft [Hz]  Cgg/W [F/m]  Cgd/W [F/m]  Cgs/W [F/m]  Vov [V]
#         gm/id          gm/gds            id/W              ft           Cgg/W           Cgd/W           Cgs/W             Vov
    2.311455e+01    1.814562e+02    7.648780e-07    3.754070e+02    7.495410e-09    3.800611e-13    8.832775e-10   -4.938808e-01
    2.311216e+01    1.814375e+02    8.585825e-07    4.209969e+02    7.501770e-09    3.928828e-13    9.175875e-10   -4.888808e-01
    2.310961e+01    1.814178e+02    9.637555e-07    4.720386e+02    7.509345e-09    4.061681e-13    9.532375e-10   -4.838808e-01
    2.310692e+01    1.813969e+02    1.081797e-06    5.291707e+02    7.518170e-09    4.199343e-13    9.902705e-10   -4.788808e-01
    2.310406e+01    1.813747e+02    1.214280e-06    5.931046e+02    7.528285e-09    4.341996e-13    1.028730e-09   -4.738808e-01
    2.310105e+01    1.813513e+02    1.362967e-06    6.646336e+02    7.539715e-09    4.489825e-13    1.068662e-09   -4.688808e-01
    2.309786e+01    1.813265e+02    1.529837e-06    7.446408e+02    7.552490e-09    4.643023e-13    1.110109e-09   -4.638808e-01
    2.309447e+01    1.813002e+02    1.717109e-06    8.341082e+02    7.566650e-09    4.801791e-13    1.153116e-09   -4.588808e-01
    2.309089e+01    1.812725e+02    1.927272e-06    9.341291e+02    7.582230e-09    4.966336e-13    1.197730e-09   -4.538808e-01
    2.308710e+01    1.812432e+02    2.163118e-06    1.045920e+03    7.599260e-09    5.136870e-13    1.243996e-09   -4.488808e-01
    2.308309e+01    1.812121e+02    2.427778e-06    1.170832e+03    7.617775e-09    5.313620e-13    1.291960e-09   -4.438808e-01
    2.307886e+01    1.811795e+02    2.724763e-06    1.310371e+03    7.637810e-09    5.496810e-13    1.341668e-09   -4.388808e-01
    2.307437e+01    1.811448e+02    3.058010e-06    1.466203e+03    7.659400e-09    5.686685e-13    1.393166e-09   -4.338808e-01
    2.306962e+01    1.811082e+02    3.431936e-06    1.640185e+03    7.682575e-09    5.883480e-13    1.446499e-09   -4.288808e-01
    2.306459e+01    1.810695e+02    3.851490e-06    1.834375e+03    7.707375e-09    6.087460e-13    1.501713e-09   -4.238808e-01
    2.305928e+01    1.810285e+02    4.322223e-06    2.051059e+03    7.733835e-09    6.298880e-13    1.558851e-09   -4.188808e-01
    2.305367e+01    1.809855e+02    4.850358e-06    2.292774e+03    7.761985e-09    6.518020e-13    1.617960e-09   -4.138808e-01
    2.304772e+01    1.809399e+02    5.442870e-06    2.562331e+03    7.791855e-09    6.745150e-13    1.679082e-09   -4.088808e-01
    2.304146e+01    1.808918e+02    6.107570e-06    2.862848e+03    7.823485e-09    6.980570e-13    1.742259e-09   -4.038808e-01
    2.303482e+01    1.808410e+02    6.853230e-06    3.197781e+03    7.856905e-09    7.224570e-13    1.807535e-09   -3.988808e-01
    2.302781e+01    1.807874e+02    7.689660e-06    3.570956e+03    7.892150e-09    7.477470e-13    1.874949e-09   -3.938808e-01
    2.302040e+01    1.807309e+02    8.627865e-06    3.986619e+03    7.929240e-09    7.739580e-13    1.944542e-09   -3.888808e-01
    2.301256e+01    1.806713e+02    9.680175e-06    4.449459e+03    7.968215e-09    8.011235e-13    2.016351e-09   -3.838808e-01
    2.300428e+01    1.806083e+02    1.086039e-05    4.964675e+03    8.009095e-09    8.292780e-13    2.090412e-09   -3.788808e-01
    2.299554e+01    1.805421e+02    1.218398e-05    5.538011e+03    8.051915e-09    8.584555e-13    2.166759e-09   -3.738808e-01
    2.298632e+01    1.804722e+02    1.366827e-05    6.175827e+03    8.096695e-09    8.886935e-13    2.245428e-09   -3.688808e-01
    2.297657e+01    1.803986e+02    1.533264e-05    6.885146e+03    8.143465e-09    9.200285e-13    2.326447e-09   -3.638808e-01
    2.296627e+01    1.803211e+02    1.719884e-05    7.673734e+03    8.192245e-09    9.524990e-13    2.409846e-09   -3.588808e-01
    2.295541e+01    1.802395e+02    1.929115e-05    8.550176e+03    8.243055e-09    9.861455e-13    2.495649e-09   -3.538808e-01
    2.294396e+01    1.801536e+02    2.163678e-05    9.523943e+03    8.295915e-09    1.021009e-12    2.583882e-09   -3.488808e-01
    2.293187e+01    1.800634e+02    2.426621e-05    1.060550e+04    8.350845e-09    1.057131e-12    2.674564e-09   -3.438808e-01
    2.291911e+01    1.799683e+02    2.721348e-05    1.180638e+04    8.407850e-09    1.094555e-12    2.767713e-09   -3.388808e-01
    2.290566e+01    1.798685e+02    3.051671e-05    1.313934e+04    8.466955e-09    1.133326e-12    2.863345e-09   -3.338808e-01
    2.289149e+01    1.797637e+02    3.421855e-05    1.461841e+04    8.528165e-09    1.173491e-12    2.961470e-09   -3.288808e-01
    2.287656e+01    1.796537e+02    3.836664e-05    1.625909e+04    8.591485e-09    1.215096e-12    3.062099e-09   -3.238808e-01
    2.286083e+01    1.795383e+02    4.301428e-05    1.807844e+04    8.656925e-09    1.258192e-12    3.165234e-09   -3.188808e-01
    2.284427e+01    1.794173e+02    4.822102e-05    2.009529e+04    8.724480e-09    1.302828e-12    3.270876e-09   -3.138808e-01
    2.282682e+01    1.792905e+02    5.405345e-05    2.233030e+04    8.794160e-09    1.349056e-12    3.379026e-09   -3.088808e-01
    2.280847e+01    1.791578e+02    6.058590e-05    2.480632e+04    8.865955e-09    1.396929e-12    3.489674e-09   -3.038808e-01
    2.278917e+01    1.790188e+02    6.790140e-05    2.754843e+04    8.939855e-09    1.446503e-12    3.602811e-09   -2.988808e-01
    2.276889e+01    1.788738e+02    7.609265e-05    3.058423e+04    9.015860e-09    1.497834e-12    3.718423e-09   -2.938808e-01
    2.274756e+01    1.787221e+02    8.526325e-05    3.394410e+04    9.093950e-09    1.550980e-12    3.836491e-09   -2.888808e-01
    2.272517e+01    1.785640e+02    9.552860e-05    3.766142e+04    9.174110e-09    1.606000e-12    3.956992e-09   -2.838808e-01
    2.270165e+01    1.783992e+02    1.070176e-04    4.177286e+04    9.256325e-09    1.662957e-12    4.079900e-09   -2.788808e-01
    2.267699e+01    1.782276e+02    1.198739e-04    4.631877e+04    9.340565e-09    1.721912e-12    4.205184e-09   -2.738808e-01
    2.265113e+01    1.780492e+02    1.342577e-04    5.134337e+04    9.426810e-09    1.782932e-12    4.332808e-09   -2.688808e-01
    2.262401e+01    1.778638e+02    1.503476e-04    5.689525e+04    9.515030e-09    1.846084e-12    4.462732e-09   -2.638808e-01
    2.259563e+01    1.776717e+02    1.683423e-04    6.302775e+04    9.605190e-09    1.911435e-12    4.594912e-09   -2.588808e-01
    2.256593e+01    1.774727e+02    1.884633e-04    6.979935e+04    9.697255e-09    1.979056e-12    4.729300e-09   -2.538808e-01
    2.253486e+01    1.772670e+02    2.109574e-04    7.727420e+04    9.791185e-09    2.049020e-12    4.865845e-09   -2.488808e-01
    2.250241e+01    1.770548e+02    2.360987e-04    8.552260e+04    9.886940e-09    2.121401e-12    5.004490e-09   -2.438808e-01
    2.246851e+01    1.768360e+02    2.641924e-04    9.462143e+04    9.984475e-09    2.196276e-12    5.145170e-09   -2.388808e-01
    2.243317e+01    1.766114e+02    2.955779e-04    1.046553e+05    1.008373e-08    2.273722e-12    5.287830e-09   -2.338808e-01
    2.239633e+01    1.763810e+02    3.306324e-04    1.157164e+05    1.018468e-08    2.353822e-12    5.432395e-09   -2.288808e-01
    2.235798e+01    1.761454e+02    3.697745e-04    1.279060e+05    1.028724e-08    2.436659e-12    5.578790e-09   -2.238808e-01
    2.231809e+01    1.759050e+02    4.134697e-04    1.413346e+05    1.039136e-08    2.522317e-12    5.726945e-09   -2.188808e-01
    2.227666e+01    1.756608e+02    4.622342e-04    1.561233e+05    1.049698e-08    2.610883e-12    5.876780e-09   -2.138808e-01
    2.223366e+01    1.754132e+02    5.166410e-04    1.724043e+05    1.060405e-08    2.702448e-12    6.028210e-09   -2.088808e-01
    2.218911e+01    1.751633e+02    5.773250e-04    1.903224e+05    1.071249e-08    2.797105e-12    6.181155e-09   -2.038808e-01
    2.214300e+01    1.749123e+02    6.449910e-04    2.100357e+05    1.082224e-08    2.894949e-12    6.335525e-09   -1.988808e-01
    2.209533e+01    1.746613e+02    7.204190e-04    2.317169e+05    1.093322e-08    2.996076e-12    6.491225e-09   -1.938808e-01
    2.204613e+01    1.744117e+02    8.044730e-04    2.555548e+05    1.104537e-08    3.100587e-12    6.648165e-09   -1.888808e-01
    2.199544e+01    1.741651e+02    8.981095e-04    2.817556e+05    1.115860e-08    3.208587e-12    6.806250e-09   -1.838808e-01
    2.194330e+01    1.739233e+02    1.002387e-03    3.105445e+05    1.127284e-08    3.320179e-12    6.965380e-09   -1.788808e-01
    2.188973e+01    1.736884e+02    1.118476e-03    3.421677e+05    1.138803e-08    3.435473e-12    7.125460e-09   -1.738808e-01
    2.183483e+01    1.734626e+02    1.247672e-03    3.768936e+05    1.150407e-08    3.554581e-12    7.286390e-09   -1.688808e-01
    2.177864e+01    1.732484e+02    1.391404e-03    4.150162e+05    1.162088e-08    3.677618e-12    7.448065e-09   -1.638808e-01
    2.172124e+01    1.730485e+02    1.551254e-03    4.568558e+05    1.173839e-08    3.804702e-12    7.610385e-09   -1.588808e-01
    2.166275e+01    1.728660e+02    1.728967e-03    5.027631e+05    1.185652e-08    3.935953e-12    7.773245e-09   -1.538808e-01
    2.160327e+01    1.727042e+02    1.926470e-03    5.531209e+05    1.197518e-08    4.071498e-12    7.936540e-09   -1.488808e-01
    2.154290e+01    1.725666e+02    2.145892e-03    6.083477e+05    1.209429e-08    4.211463e-12    8.100175e-09   -1.438808e-01
    2.148180e+01    1.724572e+02    2.389579e-03    6.689018e+05    1.221377e-08    4.355982e-12    8.264035e-09   -1.388808e-01
    2.142005e+01    1.723799e+02    2.660122e-03    7.352832e+05    1.233354e-08    4.505190e-12    8.428025e-09   -1.338808e-01
    2.135783e+01    1.723393e+02    2.960378e-03    8.080396e+05    1.245351e-08    4.659225e-12    8.592040e-09   -1.288808e-01
    2.129530e+01    1.723402e+02    3.293497e-03    8.877714e+05    1.257361e-08    4.818232e-12    8.755980e-09   -1.238808e-01
    2.123257e+01    1.723874e+02    3.662953e-03    9.751335e+05    1.269375e-08    4.982357e-12    8.919745e-09   -1.188808e-01
    2.116981e+01    1.724862e+02    4.072575e-03    1.070844e+06    1.281386e-08    5.151755e-12    9.083235e-09   -1.138808e-01
    2.110718e+01    1.726422e+02    4.526586e-03    1.175691e+06    1.293386e-08    5.326575e-12    9.246350e-09   -1.088808e-01
    2.104480e+01    1.728607e+02    5.029635e-03    1.290533e+06    1.305366e-08    5.506990e-12    9.408995e-09   -1.038808e-01
    2.098278e+01    1.731478e+02    5.586855e-03    1.416314e+06    1.317320e-08    5.693150e-12    9.571080e-09   -9.888080e-02
    2.092124e+01    1.735093e+02    6.203890e-03    1.554063e+06    1.329239e-08    5.885235e-12    9.732515e-09   -9.388080e-02
    2.086027e+01    1.739511e+02    6.886960e-03    1.704907e+06    1.341117e-08    6.083420e-12    9.893205e-09   -8.888080e-02
    2.079990e+01    1.744791e+02    7.642920e-03    1.870078e+06    1.352948e-08    6.287885e-12    1.005307e-08   -8.388080e-02
    2.074015e+01    1.750991e+02    8.479315e-03    2.050919e+06    1.364723e-08    6.498810e-12    1.021202e-08   -7.888080e-02
    2.068099e+01    1.758169e+02    9.404445e-03    2.248892e+06    1.376436e-08    6.716395e-12    1.036998e-08   -7.388080e-02
    2.062234e+01    1.766377e+02    1.042744e-02    2.465591e+06    1.388081e-08    6.940825e-12    1.052687e-08   -6.888080e-02
    2.056407e+01    1.775666e+02    1.155833e-02    2.702742e+06    1.399652e-08    7.172315e-12    1.068261e-08   -6.388080e-02
    2.050600e+01    1.786081e+02    1.280815e-02    2.962216e+06    1.411142e-08    7.411070e-12    1.083713e-08   -5.888080e-02
    2.044785e+01    1.797662e+02    1.418899e-02    3.246032e+06    1.422546e-08    7.657300e-12    1.099037e-08   -5.388080e-02
    2.038930e+01    1.810441e+02    1.571412e-02    3.556363e+06    1.433859e-08    7.911235e-12    1.114226e-08   -4.888080e-02
    2.032999e+01    1.824442e+02    1.739805e-02    3.895536e+06    1.445076e-08    8.173095e-12    1.129274e-08   -4.388080e-02
    2.026943e+01    1.839681e+02    1.925667e-02    4.266038e+06    1.456190e-08    8.443125e-12    1.144175e-08   -3.888080e-02
    2.020711e+01    1.856161e+02    2.130730e-02    4.670504e+06    1.467199e-08    8.721560e-12    1.158923e-08   -3.388080e-02
    2.014246e+01    1.873876e+02    2.356882e-02    5.111728e+06    1.478096e-08    9.008660e-12    1.173513e-08   -2.888080e-02
    2.007483e+01    1.892807e+02    2.606176e-02    5.592634e+06    1.488879e-08    9.304675e-12    1.187940e-08   -2.388080e-02
    2.000354e+01    1.912919e+02    2.880840e-02    6.116278e+06    1.499543e-08    9.609875e-12    1.202201e-08   -1.888080e-02
    1.992792e+01    1.934168e+02    3.183280e-02    6.685833e+06    1.510085e-08    9.924535e-12    1.216290e-08   -1.388080e-02
    1.984718e+01    1.956490e+02    3.516100e-02    7.304545e+06    1.520502e-08    1.024893e-11    1.230204e-08   -8.880800e-03
    1.976059e+01    1.979809e+02    3.882092e-02    7.975731e+06    1.530790e-08    1.058338e-11    1.243940e-08   -3.880800e-03
    1.966743e+01    2.004034e+02    4.284258e-02    8.702739e+06    1.540946e-08    1.092816e-11    1.257495e-08    1.119200e-03
    1.956698e+01    2.029057e+02    4.725798e-02    9.488906e+06    1.550969e-08    1.128359e-11    1.270865e-08    6.119200e-03
    1.945857e+01    2.054760e+02    5.210125e-02    1.033753e+07    1.560855e-08    1.164999e-11    1.284048e-08    1.111920e-02
    1.934157e+01    2.081006e+02    5.740855e-02    1.125180e+07    1.570602e-08    1.202770e-11    1.297042e-08    1.611920e-02
    1.921545e+01    2.107647e+02    6.321800e-02    1.223479e+07    1.580210e-08    1.241706e-11    1.309846e-08    2.111920e-02
    1.907972e+01    2.134529e+02    6.956985e-02    1.328937e+07    1.589677e-08    1.281842e-11    1.322456e-08    2.611920e-02
    1.893399e+01    2.161480e+02    7.650605e-02    1.441815e+07    1.599000e-08    1.323216e-11    1.334874e-08    3.111920e-02
    1.877799e+01    2.188322e+02    8.407035e-02    1.562348e+07    1.608178e-08    1.365864e-11    1.347097e-08    3.611920e-02
    1.861154e+01    2.214878e+02    9.230815e-02    1.690734e+07    1.617213e-08    1.409826e-11    1.359124e-08    4.111920e-02
    1.843458e+01    2.240955e+02    1.012662e-01    1.827133e+07    1.626101e-08    1.455143e-11    1.370955e-08    4.611920e-02
    1.824715e+01    2.266371e+02    1.109923e-01    1.971661e+07    1.634843e-08    1.501856e-11    1.382591e-08    5.111920e-02
    1.804941e+01    2.290933e+02    1.215355e-01    2.124384e+07    1.643438e-08    1.550008e-11    1.394029e-08    5.611920e-02
    1.784161e+01    2.314459e+02    1.329454e-01    2.285319e+07    1.651887e-08    1.599645e-11    1.405273e-08    6.111920e-02
    1.762410e+01    2.336770e+02    1.452718e-01    2.454430e+07    1.660190e-08    1.650813e-11    1.416320e-08    6.611920e-02
    1.739734e+01    2.357693e+02    1.585649e-01    2.631624e+07    1.668346e-08    1.703558e-11    1.427173e-08    7.111920e-02
    1.716185e+01    2.377067e+02    1.728744e-01    2.816752e+07    1.676356e-08    1.757930e-11    1.437831e-08    7.611920e-02
    1.691824e+01    2.394742e+02    1.882495e-01    3.009610e+07    1.684221e-08    1.813981e-11    1.448297e-08    8.111920e-02
    1.666715e+01    2.410580e+02    2.047388e-01    3.209938e+07    1.691941e-08    1.871763e-11    1.458571e-08    8.611920e-02
    1.640932e+01    2.424460e+02    2.223892e-01    3.417424e+07    1.699517e-08    1.931332e-11    1.468654e-08    9.111920e-02
    1.614547e+01    2.436274e+02    2.412463e-01    3.631706e+07    1.706950e-08    1.992742e-11    1.478549e-08    9.611920e-02
    1.587639e+01    2.445935e+02    2.613537e-01    3.852374e+07    1.714242e-08    2.056054e-11    1.488256e-08    1.011192e-01
    1.560286e+01    2.453371e+02    2.827533e-01    4.078983e+07    1.721393e-08    2.121329e-11    1.497778e-08    1.061192e-01
    1.532567e+01    2.458528e+02    3.054840e-01    4.311045e+07    1.728405e-08    2.188627e-11    1.507116e-08    1.111192e-01
    1.504562e+01    2.461370e+02    3.295825e-01    4.548047e+07    1.735279e-08    2.258014e-11    1.516272e-08    1.161192e-01
    1.476347e+01    2.461880e+02    3.550825e-01    4.789449e+07    1.742016e-08    2.329558e-11    1.525250e-08    1.211192e-01
    1.447999e+01    2.460057e+02    3.820147e-01    5.034697e+07    1.748619e-08    2.403328e-11    1.534050e-08    1.261192e-01
    1.419590e+01    2.455916e+02    4.104068e-01    5.283218e+07    1.755089e-08    2.479397e-11    1.542675e-08    1.311192e-01
    1.391190e+01    2.449487e+02    4.402832e-01    5.534444e+07    1.761427e-08    2.557838e-11    1.551127e-08    1.361192e-01
    1.362863e+01    2.440816e+02    4.716650e-01    5.787797e+07    1.767636e-08    2.638731e-11    1.559410e-08    1.411192e-01
    1.334675e+01    2.429963e+02    5.045700e-01    6.042726e+07    1.773717e-08    2.722153e-11    1.567524e-08    1.461192e-01
    1.306680e+01    2.416995e+02    5.390130e-01    6.298669e+07    1.779671e-08    2.808188e-11    1.575474e-08    1.511192e-01
    1.278933e+01    2.401995e+02    5.750050e-01    6.555098e+07    1.785502e-08    2.896923e-11    1.583261e-08    1.561192e-01
    1.251483e+01    2.385052e+02    6.125545e-01    6.811503e+07    1.791212e-08    2.988447e-11    1.590889e-08    1.611192e-01
    1.224374e+01    2.366263e+02    6.516665e-01    7.067399e+07    1.796801e-08    3.082851e-11    1.598359e-08    1.661192e-01
    1.197645e+01    2.345726e+02    6.923430e-01    7.322327e+07    1.802272e-08    3.180233e-11    1.605675e-08    1.711192e-01
    1.171332e+01    2.323554e+02    7.345840e-01    7.575868e+07    1.807628e-08    3.280690e-11    1.612839e-08    1.761192e-01
    1.145466e+01    2.299854e+02    7.783860e-01    7.827638e+07    1.812869e-08    3.384326e-11    1.619855e-08    1.811192e-01
    1.120074e+01    2.274738e+02    8.237430e-01    8.077271e+07    1.818000e-08    3.491248e-11    1.626724e-08    1.861192e-01
    1.095179e+01    2.248321e+02    8.706480e-01    8.324458e+07    1.823021e-08    3.601565e-11    1.633450e-08    1.911192e-01
    1.070799e+01    2.220714e+02    9.190910e-01    8.568913e+07    1.827935e-08    3.715394e-11    1.640035e-08    1.961192e-01
    1.046951e+01    2.192029e+02    9.690600e-01    8.810398e+07    1.832744e-08    3.832852e-11    1.646482e-08    2.011192e-01
    1.023647e+01    2.162376e+02    1.020543e+00    9.048699e+07    1.837450e-08    3.954064e-11    1.652795e-08    2.061192e-01
    1.000897e+01    2.131861e+02    1.073523e+00    9.283638e+07    1.842055e-08    4.079158e-11    1.658974e-08    2.111192e-01
    9.787063e+00    2.100587e+02    1.127986e+00    9.515078e+07    1.846561e-08    4.208265e-11    1.665025e-08    2.161192e-01
    9.570796e+00    2.068655e+02    1.183914e+00    9.742907e+07    1.850971e-08    4.341525e-11    1.670948e-08    2.211192e-01
    9.360177e+00    2.036156e+02    1.241289e+00    9.967038e+07    1.855287e-08    4.479080e-11    1.676747e-08    2.261192e-01
    9.155207e+00    2.003186e+02    1.300094e+00    1.018743e+08    1.859510e-08    4.621078e-11    1.682425e-08    2.311192e-01
    8.955855e+00    1.969829e+02    1.360309e+00    1.040403e+08    1.863644e-08    4.767673e-11    1.687983e-08    2.361192e-01
    8.762078e+00    1.936162e+02    1.421915e+00    1.061686e+08    1.867690e-08    4.919025e-11    1.693426e-08    2.411192e-01
    8.573822e+00    1.902263e+02    1.484892e+00    1.082592e+08    1.871650e-08    5.075300e-11    1.698754e-08    2.461192e-01
    8.391017e+00    1.868203e+02    1.549221e+00    1.103125e+08    1.875526e-08    5.236670e-11    1.703972e-08    2.511192e-01
    8.213580e+00    1.834046e+02    1.614881e+00    1.123291e+08    1.879321e-08    5.403315e-11    1.709081e-08    2.561192e-01
    8.041411e+00    1.799853e+02    1.681854e+00    1.143094e+08    1.883036e-08    5.575415e-11    1.714083e-08    2.611192e-01
