# sky130 nfet_01v8 gm/ID Processed Lookup Table
# Corner: tt
# Temperature: 75C
# W = 2.0 um
# L = 5.76 um (5760 nm)
# Columns: gm/id [1/V]  gm/gds [V/V]  id/W [A/m]  ft [Hz]  Cgg/W [F/m]  Cgd/W [F/m]  Cgs/W [F/m]  Vov [V]
#         gm/id          gm/gds            id/W              ft           Cgg/W           Cgd/W           Cgs/W             Vov
    2.323025e+01    2.452397e+02    5.331145e-07    1.564700e+02    1.259690e-08    6.726515e-13    1.554099e-09   -4.855805e-01
    2.322756e+01    2.452116e+02    5.987720e-07    1.755343e+02    1.261024e-08    6.955305e-13    1.614960e-09   -4.805805e-01
    2.322471e+01    2.451817e+02    6.725060e-07    1.968840e+02    1.262572e-08    7.192435e-13    1.678200e-09   -4.755805e-01
    2.322168e+01    2.451502e+02    7.553095e-07    2.207877e+02    1.264340e-08    7.438220e-13    1.743894e-09   -4.705805e-01
    2.321848e+01    2.451167e+02    8.482945e-07    2.475440e+02    1.266334e-08    7.692985e-13    1.812119e-09   -4.655805e-01
    2.321509e+01    2.450814e+02    9.527110e-07    2.774859e+02    1.268560e-08    7.957070e-13    1.882952e-09   -4.605805e-01
    2.321150e+01    2.450440e+02    1.069962e-06    3.109845e+02    1.271022e-08    8.230825e-13    1.956467e-09   -4.555805e-01
    2.320770e+01    2.450045e+02    1.201621e-06    3.484523e+02    1.273727e-08    8.514605e-13    2.032748e-09   -4.505805e-01
    2.320367e+01    2.449626e+02    1.349454e-06    3.903487e+02    1.276680e-08    8.808795e-13    2.111871e-09   -4.455805e-01
    2.319941e+01    2.449185e+02    1.515443e-06    4.371842e+02    1.279889e-08    9.113775e-13    2.193915e-09   -4.405805e-01
    2.319490e+01    2.448717e+02    1.701812e-06    4.895269e+02    1.283358e-08    9.429955e-13    2.278959e-09   -4.355805e-01
    2.319013e+01    2.448223e+02    1.911056e-06    5.480080e+02    1.287093e-08    9.757745e-13    2.367082e-09   -4.305805e-01
    2.318509e+01    2.447700e+02    2.145975e-06    6.133288e+02    1.291101e-08    1.009758e-12    2.458362e-09   -4.255805e-01
    2.317974e+01    2.447148e+02    2.409710e-06    6.862683e+02    1.295387e-08    1.044989e-12    2.552876e-09   -4.205805e-01
    2.317411e+01    2.446567e+02    2.705783e-06    7.676921e+02    1.299957e-08    1.081515e-12    2.650702e-09   -4.155805e-01
    2.316812e+01    2.445950e+02    3.038145e-06    8.585583e+02    1.304817e-08    1.119384e-12    2.751915e-09   -4.105805e-01
    2.316180e+01    2.445299e+02    3.411227e-06    9.599328e+02    1.309972e-08    1.158644e-12    2.856591e-09   -4.055805e-01
    2.315513e+01    2.444613e+02    3.829999e-06    1.072997e+03    1.315429e-08    1.199345e-12    2.964800e-09   -4.005805e-01
    2.314807e+01    2.443889e+02    4.300033e-06    1.199059e+03    1.321193e-08    1.241542e-12    3.076616e-09   -3.955805e-01
    2.314060e+01    2.443124e+02    4.827575e-06    1.339570e+03    1.327267e-08    1.285288e-12    3.192107e-09   -3.905805e-01
    2.313271e+01    2.442317e+02    5.419630e-06    1.496137e+03    1.333660e-08    1.330639e-12    3.311340e-09   -3.855805e-01
    2.312437e+01    2.441466e+02    6.084050e-06    1.670539e+03    1.340375e-08    1.377652e-12    3.434380e-09   -3.805805e-01
    2.311556e+01    2.440571e+02    6.829630e-06    1.864748e+03    1.347416e-08    1.426388e-12    3.561289e-09   -3.755805e-01
    2.310624e+01    2.439624e+02    7.666235e-06    2.080942e+03    1.354789e-08    1.476908e-12    3.692123e-09   -3.705805e-01
    2.309641e+01    2.438628e+02    8.604905e-06    2.321533e+03    1.362498e-08    1.529276e-12    3.826939e-09   -3.655805e-01
    2.308603e+01    2.437579e+02    9.658020e-06    2.589188e+03    1.370547e-08    1.583557e-12    3.965789e-09   -3.605805e-01
    2.307507e+01    2.436475e+02    1.083944e-05    2.886855e+03    1.378940e-08    1.639820e-12    4.108718e-09   -3.555805e-01
    2.306350e+01    2.435312e+02    1.216470e-05    3.217790e+03    1.387679e-08    1.698133e-12    4.255771e-09   -3.505805e-01
    2.305129e+01    2.434089e+02    1.365118e-05    3.585590e+03    1.396770e-08    1.758569e-12    4.406986e-09   -3.455805e-01
    2.303841e+01    2.432803e+02    1.531833e-05    3.994230e+03    1.406213e-08    1.821202e-12    4.562396e-09   -3.405805e-01
    2.302483e+01    2.431452e+02    1.718795e-05    4.448094e+03    1.416011e-08    1.886108e-12    4.722030e-09   -3.355805e-01
    2.301050e+01    2.430032e+02    1.928441e-05    4.952018e+03    1.426167e-08    1.953366e-12    4.885911e-09   -3.305805e-01
    2.299540e+01    2.428542e+02    2.163500e-05    5.511342e+03    1.436682e-08    2.023057e-12    5.054055e-09   -3.255805e-01
    2.297950e+01    2.426981e+02    2.427022e-05    6.131952e+03    1.447557e-08    2.095264e-12    5.226480e-09   -3.205805e-01
    2.296274e+01    2.425342e+02    2.722419e-05    6.820326e+03    1.458793e-08    2.170075e-12    5.403180e-09   -3.155805e-01
    2.294510e+01    2.423624e+02    3.053507e-05    7.583616e+03    1.470390e-08    2.247577e-12    5.584165e-09   -3.105805e-01
    2.292653e+01    2.421828e+02    3.424550e-05    8.429700e+03    1.482347e-08    2.327861e-12    5.769425e-09   -3.055805e-01
    2.290699e+01    2.419948e+02    3.840315e-05    9.367231e+03    1.494665e-08    2.411021e-12    5.958945e-09   -3.005805e-01
    2.288645e+01    2.417984e+02    4.306125e-05    1.040576e+04    1.507340e-08    2.497154e-12    6.152700e-09   -2.955805e-01
    2.286485e+01    2.415932e+02    4.827926e-05    1.155578e+04    1.520372e-08    2.586360e-12    6.350670e-09   -2.905805e-01
    2.284216e+01    2.413793e+02    5.412360e-05    1.282883e+04    1.533758e-08    2.678739e-12    6.552810e-09   -2.855805e-01
    2.281834e+01    2.411566e+02    6.066835e-05    1.423761e+04    1.547495e-08    2.774398e-12    6.759090e-09   -2.805805e-01
    2.279334e+01    2.409246e+02    6.799620e-05    1.579606e+04    1.561579e-08    2.873445e-12    6.969450e-09   -2.755805e-01
    2.276714e+01    2.406835e+02    7.619935e-05    1.751950e+04    1.576007e-08    2.975991e-12    7.183835e-09   -2.705805e-01
    2.273965e+01    2.404332e+02    8.538075e-05    1.942477e+04    1.590773e-08    3.082150e-12    7.402180e-09   -2.655805e-01
    2.271087e+01    2.401739e+02    9.565495e-05    2.153032e+04    1.605872e-08    3.192040e-12    7.624420e-09   -2.605805e-01
    2.268074e+01    2.399056e+02    1.071497e-04    2.385644e+04    1.621298e-08    3.305782e-12    7.850470e-09   -2.555805e-01
    2.264923e+01    2.396285e+02    1.200073e-04    2.642534e+04    1.637045e-08    3.423500e-12    8.080245e-09   -2.505805e-01
    2.261631e+01    2.393427e+02    1.343861e-04    2.926142e+04    1.653107e-08    3.545321e-12    8.313650e-09   -2.455805e-01
    2.258193e+01    2.390488e+02    1.504624e-04    3.239140e+04    1.669473e-08    3.671378e-12    8.550590e-09   -2.405805e-01
    2.254606e+01    2.387471e+02    1.684323e-04    3.584454e+04    1.686139e-08    3.801805e-12    8.790945e-09   -2.355805e-01
    2.250868e+01    2.384381e+02    1.885139e-04    3.965291e+04    1.703093e-08    3.936741e-12    9.034615e-09   -2.305805e-01
    2.246976e+01    2.381227e+02    2.109494e-04    4.385162e+04    1.720328e-08    4.076328e-12    9.281470e-09   -2.255805e-01
    2.242929e+01    2.378016e+02    2.360082e-04    4.847912e+04    1.737832e-08    4.220713e-12    9.531390e-09   -2.205805e-01
    2.238722e+01    2.374756e+02    2.639893e-04    5.357738e+04    1.755598e-08    4.370047e-12    9.784235e-09   -2.155805e-01
    2.234359e+01    2.371464e+02    2.952245e-04    5.919251e+04    1.773613e-08    4.524484e-12    1.003987e-08   -2.105805e-01
    2.229837e+01    2.368151e+02    3.300822e-04    6.537472e+04    1.791866e-08    4.684183e-12    1.029816e-08   -2.055805e-01
    2.225157e+01    2.364832e+02    3.689707e-04    7.217900e+04    1.810347e-08    4.849308e-12    1.055894e-08   -2.005805e-01
    2.220320e+01    2.361526e+02    4.123427e-04    7.966551e+04    1.829042e-08    5.020025e-12    1.082206e-08   -1.955805e-01
    2.215328e+01    2.358255e+02    4.606997e-04    8.789987e+04    1.847940e-08    5.196515e-12    1.108736e-08   -1.905805e-01
    2.210185e+01    2.355041e+02    5.145975e-04    9.695393e+04    1.867028e-08    5.378945e-12    1.135469e-08   -1.855805e-01
    2.204893e+01    2.351911e+02    5.746510e-04    1.069061e+05    1.886295e-08    5.567500e-12    1.162388e-08   -1.805805e-01
    2.199461e+01    2.348897e+02    6.415405e-04    1.178421e+05    1.905725e-08    5.762370e-12    1.189475e-08   -1.755805e-01
    2.193893e+01    2.346028e+02    7.160190e-04    1.298555e+05    1.925306e-08    5.963745e-12    1.216715e-08   -1.705805e-01
    2.188198e+01    2.343345e+02    7.989185e-04    1.430488e+05    1.945024e-08    6.171830e-12    1.244089e-08   -1.655805e-01
    2.182381e+01    2.340885e+02    8.911600e-04    1.575337e+05    1.964865e-08    6.386820e-12    1.271580e-08   -1.605805e-01
    2.176455e+01    2.338692e+02    9.937595e-04    1.734326e+05    1.984817e-08    6.608930e-12    1.299171e-08   -1.555805e-01
    2.170431e+01    2.336818e+02    1.107841e-03    1.908791e+05    2.004864e-08    6.838370e-12    1.326842e-08   -1.505805e-01
    2.164319e+01    2.335313e+02    1.234643e-03    2.100194e+05    2.024993e-08    7.075370e-12    1.354579e-08   -1.455805e-01
    2.158134e+01    2.334232e+02    1.375536e-03    2.310134e+05    2.045188e-08    7.320150e-12    1.382361e-08   -1.405805e-01
    2.151890e+01    2.333638e+02    1.532031e-03    2.540362e+05    2.065438e-08    7.572950e-12    1.410171e-08   -1.355805e-01
    2.145601e+01    2.333597e+02    1.705796e-03    2.792791e+05    2.085728e-08    7.834005e-12    1.437993e-08   -1.305805e-01
    2.139282e+01    2.334176e+02    1.898671e-03    3.069519e+05    2.106044e-08    8.103570e-12    1.465808e-08   -1.255805e-01
    2.132948e+01    2.335450e+02    2.112685e-03    3.372844e+05    2.126371e-08    8.381895e-12    1.493600e-08   -1.205805e-01
    2.126615e+01    2.337494e+02    2.350079e-03    3.705278e+05    2.146696e-08    8.669245e-12    1.521351e-08   -1.155805e-01
    2.120298e+01    2.340391e+02    2.613320e-03    4.069577e+05    2.167006e-08    8.965890e-12    1.549044e-08   -1.105805e-01
    2.114007e+01    2.344220e+02    2.905132e-03    4.468753e+05    2.187288e-08    9.272105e-12    1.576663e-08   -1.055805e-01
    2.107758e+01    2.349070e+02    3.228517e-03    4.906111e+05    2.207529e-08    9.588185e-12    1.604192e-08   -1.005805e-01
    2.101559e+01    2.355028e+02    3.586782e-03    5.385266e+05    2.227715e-08    9.914415e-12    1.631615e-08   -9.558050e-02
    2.095418e+01    2.362181e+02    3.983575e-03    5.910162e+05    2.247835e-08    1.025110e-11    1.658917e-08   -9.058050e-02
    2.089339e+01    2.370617e+02    4.422912e-03    6.485119e+05    2.267876e-08    1.059857e-11    1.686083e-08   -8.558050e-02
    2.083320e+01    2.380424e+02    4.909216e-03    7.114842e+05    2.287826e-08    1.095712e-11    1.713098e-08   -8.058050e-02
    2.077360e+01    2.391689e+02    5.447360e-03    7.804470e+05    2.307675e-08    1.132709e-11    1.739949e-08   -7.558050e-02
    2.071447e+01    2.404492e+02    6.042700e-03    8.559573e+05    2.327411e-08    1.170884e-11    1.766621e-08   -7.058050e-02
    2.065566e+01    2.418911e+02    6.701130e-03    9.386205e+05    2.347022e-08    1.210271e-11    1.793102e-08   -6.558050e-02
    2.059694e+01    2.435016e+02    7.429125e-03    1.029092e+06    2.366500e-08    1.250905e-11    1.819380e-08   -6.058050e-02
    2.053805e+01    2.452872e+02    8.233785e-03    1.128077e+06    2.385833e-08    1.292826e-11    1.845443e-08   -5.558050e-02
    2.047863e+01    2.472531e+02    9.122900e-03    1.236335e+06    2.405014e-08    1.336070e-11    1.871278e-08   -5.058050e-02
    2.041825e+01    2.494039e+02    1.010500e-02    1.354680e+06    2.424033e-08    1.380679e-11    1.896876e-08   -4.558050e-02
    2.035644e+01    2.517423e+02    1.118941e-02    1.483976e+06    2.442880e-08    1.426693e-11    1.922227e-08   -4.058050e-02
    2.029263e+01    2.542704e+02    1.238631e-02    1.625144e+06    2.461549e-08    1.474154e-11    1.947320e-08   -3.558050e-02
    2.022622e+01    2.569879e+02    1.370677e-02    1.779152e+06    2.480031e-08    1.523106e-11    1.972147e-08   -3.058050e-02
    2.015655e+01    2.598934e+02    1.516284e-02    1.947014e+06    2.498320e-08    1.573595e-11    1.996700e-08   -2.558050e-02
    2.008290e+01    2.629836e+02    1.676760e-02    2.129789e+06    2.516408e-08    1.625666e-11    2.020970e-08   -2.058050e-02
    2.000455e+01    2.662531e+02    1.853516e-02    2.328569e+06    2.534290e-08    1.679367e-11    2.044951e-08   -1.558050e-02
    1.992075e+01    2.696945e+02    2.048074e-02    2.544473e+06    2.551959e-08    1.734749e-11    2.068635e-08   -1.058050e-02
    1.983074e+01    2.732986e+02    2.262073e-02    2.778639e+06    2.569411e-08    1.791862e-11    2.092017e-08   -5.580500e-03
    1.973379e+01    2.770539e+02    2.497264e-02    3.032209e+06    2.586640e-08    1.850759e-11    2.115092e-08   -5.805000e-04
    1.962919e+01    2.809471e+02    2.755521e-02    3.306322e+06    2.603642e-08    1.911495e-11    2.137854e-08    4.419500e-03
    1.951627e+01    2.849623e+02    3.038833e-02    3.602087e+06    2.620413e-08    1.974125e-11    2.160299e-08    9.419500e-03
    1.939444e+01    2.890823e+02    3.349310e-02    3.920586e+06    2.636950e-08    2.038709e-11    2.182423e-08    1.441950e-02
    1.926318e+01    2.932880e+02    3.689174e-02    4.262842e+06    2.653249e-08    2.105305e-11    2.204224e-08    1.941950e-02
    1.912204e+01    2.975587e+02    4.060759e-02    4.629808e+06    2.669308e-08    2.173977e-11    2.225697e-08    2.441950e-02
    1.897069e+01    3.018716e+02    4.466503e-02    5.022347e+06    2.685123e-08    2.244788e-11    2.246841e-08    2.941950e-02
    1.880890e+01    3.062036e+02    4.908946e-02    5.441219e+06    2.700695e-08    2.317804e-11    2.267655e-08    3.441950e-02
    1.863652e+01    3.105298e+02    5.390710e-02    5.887057e+06    2.716019e-08    2.393094e-11    2.288136e-08    3.941950e-02
    1.845355e+01    3.148251e+02    5.914500e-02    6.360352e+06    2.731097e-08    2.470730e-11    2.308284e-08    4.441950e-02
    1.826012e+01    3.190636e+02    6.483075e-02    6.861452e+06    2.745925e-08    2.550783e-11    2.328098e-08    4.941950e-02
    1.805638e+01    3.232196e+02    7.099260e-02    7.390527e+06    2.760505e-08    2.633330e-11    2.347579e-08    5.441950e-02
    1.784269e+01    3.272675e+02    7.765900e-02    7.947582e+06    2.774836e-08    2.718450e-11    2.366726e-08    5.941950e-02
    1.761943e+01    3.311816e+02    8.485865e-02    8.532424e+06    2.788917e-08    2.806223e-11    2.385540e-08    6.441950e-02
    1.738712e+01    3.349378e+02    9.262015e-02    9.144690e+06    2.802750e-08    2.896732e-11    2.404023e-08    6.941950e-02
    1.714633e+01    3.385126e+02    1.009720e-01    9.783816e+06    2.816335e-08    2.990066e-11    2.422175e-08    7.441950e-02
    1.689770e+01    3.418834e+02    1.099424e-01    1.044905e+07    2.829673e-08    3.086313e-11    2.439999e-08    7.941950e-02
    1.664192e+01    3.450298e+02    1.195589e-01    1.113947e+07    2.842764e-08    3.185567e-11    2.457496e-08    8.441950e-02
    1.637973e+01    3.479329e+02    1.298481e-01    1.185396e+07    2.855611e-08    3.287923e-11    2.474669e-08    8.941950e-02
    1.611191e+01    3.505759e+02    1.408361e-01    1.259127e+07    2.868216e-08    3.393482e-11    2.491520e-08    9.441950e-02
    1.583926e+01    3.529430e+02    1.525476e-01    1.334998e+07    2.880579e-08    3.502346e-11    2.508052e-08    9.941950e-02
    1.556256e+01    3.550219e+02    1.650062e-01    1.412855e+07    2.892702e-08    3.614621e-11    2.524269e-08    1.044195e-01
    1.528263e+01    3.568017e+02    1.782339e-01    1.492533e+07    2.904590e-08    3.730419e-11    2.540172e-08    1.094195e-01
    1.500025e+01    3.582741e+02    1.922516e-01    1.573856e+07    2.916242e-08    3.849854e-11    2.555767e-08    1.144195e-01
    1.471620e+01    3.594330e+02    2.070782e-01    1.656644e+07    2.927662e-08    3.973044e-11    2.571056e-08    1.194195e-01
    1.443123e+01    3.602741e+02    2.227311e-01    1.740709e+07    2.938854e-08    4.100113e-11    2.586042e-08    1.244195e-01
    1.414604e+01    3.607958e+02    2.392259e-01    1.825862e+07    2.949819e-08    4.231187e-11    2.600731e-08    1.294195e-01
    1.386134e+01    3.609983e+02    2.565764e-01    1.911913e+07    2.960561e-08    4.366398e-11    2.615126e-08    1.344195e-01
    1.357775e+01    3.608835e+02    2.747945e-01    1.998671e+07    2.971082e-08    4.505883e-11    2.629231e-08    1.394195e-01
    1.329588e+01    3.604556e+02    2.938904e-01    2.085953e+07    2.981386e-08    4.649783e-11    2.643051e-08    1.444195e-01
    1.301629e+01    3.597201e+02    3.138723e-01    2.173576e+07    2.991475e-08    4.798246e-11    2.656590e-08    1.494195e-01
    1.273948e+01    3.586841e+02    3.347468e-01    2.261367e+07    3.001355e-08    4.951423e-11    2.669852e-08    1.544195e-01
    1.246593e+01    3.573561e+02    3.565186e-01    2.349159e+07    3.011027e-08    5.109470e-11    2.682842e-08    1.594195e-01
    1.219604e+01    3.557458e+02    3.791909e-01    2.436795e+07    3.020495e-08    5.272555e-11    2.695563e-08    1.644195e-01
    1.193020e+01    3.538635e+02    4.027652e-01    2.524127e+07    3.029763e-08    5.440850e-11    2.708023e-08    1.694195e-01
    1.166873e+01    3.517210e+02    4.272414e-01    2.611020e+07    3.038834e-08    5.614520e-11    2.720224e-08    1.744195e-01
    1.141192e+01    3.493302e+02    4.526181e-01    2.697347e+07    3.047712e-08    5.793755e-11    2.732172e-08    1.794195e-01
    1.116002e+01    3.467041e+02    4.788927e-01    2.782998e+07    3.056401e-08    5.978745e-11    2.743871e-08    1.844195e-01
    1.091322e+01    3.438551e+02    5.060610e-01    2.867868e+07    3.064903e-08    6.169680e-11    2.755326e-08    1.894195e-01
    1.067170e+01    3.407969e+02    5.341185e-01    2.951871e+07    3.073224e-08    6.366775e-11    2.766541e-08    1.944195e-01
    1.043562e+01    3.375430e+02    5.630585e-01    3.034929e+07    3.081367e-08    6.570230e-11    2.777522e-08    1.994195e-01
    1.020505e+01    3.341062e+02    5.928745e-01    3.116975e+07    3.089334e-08    6.780270e-11    2.788273e-08    2.044195e-01
    9.980074e+00    3.304998e+02    6.235590e-01    3.197952e+07    3.097131e-08    6.997120e-11    2.798798e-08    2.094195e-01
    9.760748e+00    3.267370e+02    6.551035e-01    3.277820e+07    3.104760e-08    7.221015e-11    2.809103e-08    2.144195e-01
    9.547098e+00    3.228307e+02    6.874990e-01    3.356545e+07    3.112226e-08    7.452210e-11    2.819193e-08    2.194195e-01
    9.339107e+00    3.187928e+02    7.207365e-01    3.434097e+07    3.119532e-08    7.690950e-11    2.829070e-08    2.244195e-01
    9.136778e+00    3.146358e+02    7.548060e-01    3.510467e+07    3.126682e-08    7.937500e-11    2.838742e-08    2.294195e-01
    8.940057e+00    3.103709e+02    7.896980e-01    3.585643e+07    3.133678e-08    8.192135e-11    2.848210e-08    2.344195e-01
    8.748901e+00    3.060093e+02    8.254020e-01    3.659626e+07    3.140527e-08    8.455145e-11    2.857481e-08    2.394195e-01
    8.563240e+00    3.015616e+02    8.619080e-01    3.732422e+07    3.147230e-08    8.726820e-11    2.866559e-08    2.444195e-01
    8.382990e+00    2.970377e+02    8.992060e-01    3.804043e+07    3.153791e-08    9.007470e-11    2.875447e-08    2.494195e-01
    8.208069e+00    2.924471e+02    9.372850e-01    3.874506e+07    3.160214e-08    9.297415e-11    2.884152e-08    2.544195e-01
    8.038377e+00    2.877991e+02    9.761355e-01    3.943837e+07    3.166502e-08    9.596980e-11    2.892676e-08    2.594195e-01
    7.873797e+00    2.831015e+02    1.015748e+00    4.012054e+07    3.172659e-08    9.906520e-11    2.901023e-08    2.644195e-01
    7.714231e+00    2.783629e+02    1.056110e+00    4.079193e+07    3.178688e-08    1.022638e-10    2.909198e-08    2.694195e-01
