# sky130 nfet_01v8 gm/ID Processed Lookup Table
# Corner: tt
# Temperature: 75C
# W = 2.0 um
# L = 5.04 um (5040 nm)
# Columns: gm/id [1/V]  gm/gds [V/V]  id/W [A/m]  ft [Hz]  Cgg/W [F/m]  Cgd/W [F/m]  Cgs/W [F/m]  Vov [V]
#         gm/id          gm/gds            id/W              ft           Cgg/W           Cgd/W           Cgs/W             Vov
    2.319727e+01    2.264678e+02    5.870720e-07    1.966489e+02    1.102191e-08    5.833335e-13    1.341240e-09   -4.877356e-01
    2.319466e+01    2.264424e+02    6.592660e-07    2.205867e+02    1.103290e-08    6.031330e-13    1.393685e-09   -4.827356e-01
    2.319189e+01    2.264156e+02    7.403280e-07    2.473921e+02    1.104574e-08    6.236525e-13    1.448180e-09   -4.777356e-01
    2.318894e+01    2.263873e+02    8.313460e-07    2.774017e+02    1.106048e-08    6.449200e-13    1.504791e-09   -4.727356e-01
    2.318584e+01    2.263573e+02    9.335390e-07    3.109903e+02    1.107717e-08    6.669630e-13    1.563585e-09   -4.677356e-01
    2.318254e+01    2.263255e+02    1.048278e-06    3.485754e+02    1.109586e-08    6.898110e-13    1.624628e-09   -4.627356e-01
    2.317906e+01    2.262919e+02    1.177099e-06    3.906221e+02    1.111660e-08    7.134940e-13    1.687985e-09   -4.577356e-01
    2.317537e+01    2.262564e+02    1.321727e-06    4.376480e+02    1.113944e-08    7.380435e-13    1.753727e-09   -4.527356e-01
    2.317146e+01    2.262188e+02    1.484096e-06    4.902290e+02    1.116443e-08    7.634910e-13    1.821921e-09   -4.477356e-01
    2.316732e+01    2.261791e+02    1.666379e-06    5.490054e+02    1.119162e-08    7.898710e-13    1.892637e-09   -4.427356e-01
    2.316294e+01    2.261371e+02    1.871011e-06    6.146894e+02    1.122108e-08    8.172180e-13    1.965943e-09   -4.377356e-01
    2.315831e+01    2.260927e+02    2.100724e-06    6.880727e+02    1.125283e-08    8.455675e-13    2.041907e-09   -4.327356e-01
    2.315343e+01    2.260459e+02    2.358584e-06    7.700351e+02    1.128694e-08    8.749570e-13    2.120597e-09   -4.277356e-01
    2.314823e+01    2.259962e+02    2.648030e-06    8.615522e+02    1.132346e-08    9.054245e-13    2.202081e-09   -4.227356e-01
    2.314275e+01    2.259438e+02    2.972916e-06    9.637095e+02    1.136244e-08    9.370100e-13    2.286426e-09   -4.177356e-01
    2.313694e+01    2.258884e+02    3.337569e-06    1.077710e+03    1.140392e-08    9.697550e-13    2.373699e-09   -4.127356e-01
    2.313082e+01    2.258301e+02    3.746838e-06    1.204890e+03    1.144797e-08    1.003701e-12    2.463963e-09   -4.077356e-01
    2.312433e+01    2.257683e+02    4.206161e-06    1.346729e+03    1.149463e-08    1.038893e-12    2.557285e-09   -4.027356e-01
    2.311748e+01    2.257032e+02    4.721635e-06    1.504870e+03    1.154394e-08    1.075375e-12    2.653725e-09   -3.977356e-01
    2.311023e+01    2.256346e+02    5.300095e-06    1.681131e+03    1.159596e-08    1.113194e-12    2.753345e-09   -3.927356e-01
    2.310257e+01    2.255620e+02    5.949200e-06    1.877528e+03    1.165072e-08    1.152400e-12    2.856204e-09   -3.877356e-01
    2.309447e+01    2.254855e+02    6.677540e-06    2.096292e+03    1.170827e-08    1.193041e-12    2.962358e-09   -3.827356e-01
    2.308592e+01    2.254048e+02    7.494735e-06    2.339895e+03    1.176867e-08    1.235170e-12    3.071862e-09   -3.777356e-01
    2.307688e+01    2.253198e+02    8.411570e-06    2.611071e+03    1.183193e-08    1.278840e-12    3.184767e-09   -3.727356e-01
    2.306734e+01    2.252303e+02    9.440120e-06    2.912844e+03    1.189811e-08    1.324105e-12    3.301124e-09   -3.677356e-01
    2.305727e+01    2.251359e+02    1.059392e-05    3.248557e+03    1.196725e-08    1.371022e-12    3.420977e-09   -3.627356e-01
    2.304662e+01    2.250365e+02    1.188813e-05    3.621909e+03    1.203936e-08    1.419650e-12    3.544369e-09   -3.577356e-01
    2.303539e+01    2.249319e+02    1.333971e-05    4.036986e+03    1.211449e-08    1.470049e-12    3.671338e-09   -3.527356e-01
    2.302354e+01    2.248219e+02    1.496768e-05    4.498297e+03    1.219266e-08    1.522281e-12    3.801920e-09   -3.477356e-01
    2.301103e+01    2.247061e+02    1.679330e-05    5.010827e+03    1.227391e-08    1.576411e-12    3.936145e-09   -3.427356e-01
    2.299785e+01    2.245845e+02    1.884038e-05    5.580074e+03    1.235825e-08    1.632503e-12    4.074040e-09   -3.377356e-01
    2.298394e+01    2.244567e+02    2.113557e-05    6.212112e+03    1.244570e-08    1.690627e-12    4.215627e-09   -3.327356e-01
    2.296928e+01    2.243225e+02    2.370866e-05    6.913635e+03    1.253627e-08    1.750852e-12    4.360922e-09   -3.277356e-01
    2.295383e+01    2.241817e+02    2.659302e-05    7.692022e+03    1.262997e-08    1.813251e-12    4.509938e-09   -3.227356e-01
    2.293756e+01    2.240340e+02    2.982591e-05    8.555415e+03    1.272682e-08    1.877898e-12    4.662682e-09   -3.177356e-01
    2.292041e+01    2.238792e+02    3.344903e-05    9.512775e+03    1.282682e-08    1.944868e-12    4.819155e-09   -3.127356e-01
    2.290238e+01    2.237171e+02    3.750897e-05    1.057399e+04    1.292996e-08    2.014243e-12    4.979352e-09   -3.077356e-01
    2.288339e+01    2.235474e+02    4.205780e-05    1.174992e+04    1.303623e-08    2.086102e-12    5.143265e-09   -3.027356e-01
    2.286343e+01    2.233701e+02    4.715370e-05    1.305255e+04    1.314564e-08    2.160528e-12    5.310875e-09   -2.977356e-01
    2.284244e+01    2.231848e+02    5.286160e-05    1.449505e+04    1.325816e-08    2.237609e-12    5.482165e-09   -2.927356e-01
    2.282038e+01    2.229914e+02    5.925410e-05    1.609190e+04    1.337378e-08    2.317432e-12    5.657100e-09   -2.877356e-01
    2.279722e+01    2.227898e+02    6.641210e-05    1.785904e+04    1.349247e-08    2.400087e-12    5.835650e-09   -2.827356e-01
    2.277291e+01    2.225800e+02    7.442600e-05    1.981396e+04    1.361420e-08    2.485670e-12    6.017775e-09   -2.777356e-01
    2.274741e+01    2.223616e+02    8.339650e-05    2.197593e+04    1.373893e-08    2.574275e-12    6.203425e-09   -2.727356e-01
    2.272067e+01    2.221349e+02    9.343605e-05    2.436603e+04    1.386663e-08    2.666002e-12    6.392545e-09   -2.677356e-01
    2.269265e+01    2.218995e+02    1.046699e-04    2.700748e+04    1.399726e-08    2.760953e-12    6.585080e-09   -2.627356e-01
    2.266333e+01    2.216558e+02    1.172374e-04    2.992574e+04    1.413075e-08    2.859232e-12    6.780965e-09   -2.577356e-01
    2.263263e+01    2.214038e+02    1.312944e-04    3.314871e+04    1.426707e-08    2.960946e-12    6.980120e-09   -2.527356e-01
    2.260056e+01    2.211437e+02    1.470136e-04    3.670702e+04    1.440614e-08    3.066207e-12    7.182470e-09   -2.477356e-01
    2.256704e+01    2.208757e+02    1.645880e-04    4.063422e+04    1.454792e-08    3.175127e-12    7.387930e-09   -2.427356e-01
    2.253207e+01    2.206003e+02    1.842316e-04    4.496711e+04    1.469232e-08    3.287824e-12    7.596410e-09   -2.377356e-01
    2.249560e+01    2.203178e+02    2.061829e-04    4.974594e+04    1.483928e-08    3.404417e-12    7.807810e-09   -2.327356e-01
    2.245761e+01    2.200287e+02    2.307066e-04    5.501482e+04    1.498871e-08    3.525030e-12    8.022030e-09   -2.277356e-01
    2.241809e+01    2.197340e+02    2.580974e-04    6.082210e+04    1.514053e-08    3.649790e-12    8.238960e-09   -2.227356e-01
    2.237700e+01    2.194343e+02    2.886819e-04    6.722052e+04    1.529465e-08    3.778827e-12    8.458490e-09   -2.177356e-01
    2.233434e+01    2.191305e+02    3.228231e-04    7.426794e+04    1.545100e-08    3.912276e-12    8.680495e-09   -2.127356e-01
    2.229009e+01    2.188240e+02    3.609235e-04    8.202751e+04    1.560946e-08    4.050273e-12    8.904855e-09   -2.077356e-01
    2.224429e+01    2.185160e+02    4.034299e-04    9.056842e+04    1.576994e-08    4.192959e-12    9.131445e-09   -2.027356e-01
    2.219689e+01    2.182079e+02    4.508372e-04    9.996607e+04    1.593234e-08    4.340483e-12    9.360130e-09   -1.977356e-01
    2.214796e+01    2.179017e+02    5.036940e-04    1.103031e+05    1.609655e-08    4.492990e-12    9.590770e-09   -1.927356e-01
    2.209750e+01    2.175995e+02    5.626080e-04    1.216698e+05    1.626247e-08    4.650636e-12    9.823230e-09   -1.877356e-01
    2.204555e+01    2.173033e+02    6.282520e-04    1.341646e+05    1.642998e-08    4.813580e-12    1.005737e-08   -1.827356e-01
    2.199214e+01    2.170155e+02    7.013705e-04    1.478951e+05    1.659898e-08    4.981982e-12    1.029305e-08   -1.777356e-01
    2.193735e+01    2.167394e+02    7.827870e-04    1.629792e+05    1.676933e-08    5.156010e-12    1.053010e-08   -1.727356e-01
    2.188124e+01    2.164778e+02    8.734125e-04    1.795453e+05    1.694094e-08    5.335835e-12    1.076839e-08   -1.677356e-01
    2.182390e+01    2.162342e+02    9.742530e-04    1.977339e+05    1.711366e-08    5.521630e-12    1.100776e-08   -1.627356e-01
    2.176540e+01    2.160127e+02    1.086422e-03    2.176986e+05    1.728741e-08    5.713585e-12    1.124806e-08   -1.577356e-01
    2.170586e+01    2.158172e+02    1.211148e-03    2.396069e+05    1.746203e-08    5.911880e-12    1.148913e-08   -1.527356e-01
    2.164539e+01    2.156522e+02    1.349787e-03    2.636426e+05    1.763743e-08    6.116710e-12    1.173083e-08   -1.477356e-01
    2.158412e+01    2.155229e+02    1.503839e-03    2.900063e+05    1.781346e-08    6.328265e-12    1.197300e-08   -1.427356e-01
    2.152217e+01    2.154344e+02    1.674956e-03    3.189173e+05    1.799002e-08    6.546760e-12    1.221547e-08   -1.377356e-01
    2.145970e+01    2.153924e+02    1.864964e-03    3.506158e+05    1.816697e-08    6.772395e-12    1.245811e-08   -1.327356e-01
    2.139683e+01    2.154032e+02    2.075875e-03    3.853649e+05    1.834420e-08    7.005385e-12    1.270076e-08   -1.277356e-01
    2.133374e+01    2.154728e+02    2.309912e-03    4.234523e+05    1.852159e-08    7.245950e-12    1.294326e-08   -1.227356e-01
    2.127056e+01    2.156084e+02    2.569523e-03    4.651927e+05    1.869901e-08    7.494325e-12    1.318546e-08   -1.177356e-01
    2.120746e+01    2.158169e+02    2.857409e-03    5.109319e+05    1.887636e-08    7.750735e-12    1.342724e-08   -1.127356e-01
    2.114458e+01    2.161058e+02    3.176549e-03    5.610479e+05    1.905351e-08    8.015430e-12    1.366842e-08   -1.077356e-01
    2.108203e+01    2.164825e+02    3.530225e-03    6.159533e+05    1.923035e-08    8.288645e-12    1.390888e-08   -1.027356e-01
    2.101991e+01    2.169548e+02    3.922057e-03    6.761015e+05    1.940676e-08    8.570650e-12    1.414848e-08   -9.773560e-02
    2.095835e+01    2.175309e+02    4.356033e-03    7.419881e+05    1.958265e-08    8.861695e-12    1.438708e-08   -9.273560e-02
    2.089737e+01    2.182185e+02    4.836546e-03    8.141540e+05    1.975789e-08    9.162060e-12    1.462455e-08   -8.773560e-02
    2.083703e+01    2.190257e+02    5.368435e-03    8.931907e+05    1.993240e-08    9.472020e-12    1.486075e-08   -8.273560e-02
    2.077727e+01    2.199598e+02    5.957030e-03    9.797420e+05    2.010605e-08    9.791860e-12    1.509559e-08   -7.773560e-02
    2.071806e+01    2.210289e+02    6.608195e-03    1.074510e+06    2.027877e-08    1.012188e-11    1.532892e-08   -7.273560e-02
    2.065927e+01    2.222399e+02    7.328370e-03    1.178256e+06    2.045045e-08    1.046239e-11    1.556062e-08   -6.773560e-02
    2.060071e+01    2.235993e+02    8.124655e-03    1.291807e+06    2.062100e-08    1.081369e-11    1.579061e-08   -6.273560e-02
    2.054215e+01    2.251131e+02    9.004825e-03    1.416054e+06    2.079034e-08    1.117611e-11    1.601877e-08   -5.773560e-02
    2.048327e+01    2.267865e+02    9.977415e-03    1.551957e+06    2.095838e-08    1.154999e-11    1.624499e-08   -5.273560e-02
    2.042370e+01    2.286235e+02    1.105178e-02    1.700550e+06    2.112504e-08    1.193567e-11    1.646918e-08   -4.773560e-02
    2.036299e+01    2.306277e+02    1.223817e-02    1.862933e+06    2.129025e-08    1.233349e-11    1.669125e-08   -4.273560e-02
    2.030063e+01    2.328008e+02    1.354773e-02    2.040278e+06    2.145393e-08    1.274385e-11    1.691112e-08   -3.773560e-02
    2.023605e+01    2.351433e+02    1.499268e-02    2.233826e+06    2.161602e-08    1.316710e-11    1.712871e-08   -3.273560e-02
    2.016860e+01    2.376542e+02    1.658626e-02    2.444880e+06    2.177644e-08    1.360365e-11    1.734393e-08   -2.773560e-02
    2.009763e+01    2.403310e+02    1.834289e-02    2.674805e+06    2.193515e-08    1.405388e-11    1.755673e-08   -2.273560e-02
    2.002241e+01    2.431695e+02    2.027815e-02    2.925016e+06    2.209209e-08    1.451821e-11    1.776703e-08   -1.773560e-02
    1.994221e+01    2.461633e+02    2.240889e-02    3.196970e+06    2.224719e-08    1.499709e-11    1.797477e-08   -1.273560e-02
    1.985627e+01    2.493047e+02    2.475325e-02    3.492157e+06    2.240042e-08    1.549093e-11    1.817991e-08   -7.735600e-03
    1.976386e+01    2.525837e+02    2.733068e-02    3.812082e+06    2.255173e-08    1.600021e-11    1.838238e-08   -2.735600e-03
    1.966423e+01    2.559884e+02    3.016201e-02    4.158251e+06    2.270108e-08    1.652540e-11    1.858215e-08    2.264400e-03
    1.955671e+01    2.595054e+02    3.326942e-02    4.532155e+06    2.284844e-08    1.706697e-11    1.877917e-08    7.264400e-03
    1.944066e+01    2.631190e+02    3.667649e-02    4.935246e+06    2.299376e-08    1.762544e-11    1.897342e-08    1.226440e-02
    1.931550e+01    2.668121e+02    4.040810e-02    5.368920e+06    2.313702e-08    1.820133e-11    1.916485e-08    1.726440e-02
    1.918076e+01    2.705662e+02    4.449047e-02    5.834496e+06    2.327821e-08    1.879516e-11    1.935345e-08    2.226440e-02
    1.903602e+01    2.743608e+02    4.895107e-02    6.333181e+06    2.341728e-08    1.940750e-11    1.953918e-08    2.726440e-02
    1.888099e+01    2.781748e+02    5.381855e-02    6.866065e+06    2.355423e-08    2.003891e-11    1.972204e-08    3.226440e-02
    1.871548e+01    2.819856e+02    5.912260e-02    7.434078e+06    2.368904e-08    2.069001e-11    1.990201e-08    3.726440e-02
    1.853940e+01    2.857702e+02    6.489400e-02    8.037990e+06    2.382170e-08    2.136137e-11    2.007908e-08    4.226440e-02
    1.835277e+01    2.895050e+02    7.116420e-02    8.678364e+06    2.395220e-08    2.205367e-11    2.025324e-08    4.726440e-02
    1.815573e+01    2.931660e+02    7.796545e-02    9.355569e+06    2.408052e-08    2.276753e-11    2.042449e-08    5.226440e-02
    1.794857e+01    2.967298e+02    8.533035e-02    1.006974e+07    2.420668e-08    2.350363e-11    2.059283e-08    5.726440e-02
    1.773158e+01    3.001726e+02    9.329205e-02    1.082077e+07    2.433067e-08    2.426269e-11    2.075827e-08    6.226440e-02
    1.750523e+01    3.034718e+02    1.018836e-01    1.160831e+07    2.445249e-08    2.504542e-11    2.092082e-08    6.726440e-02
    1.727004e+01    3.066055e+02    1.111380e-01    1.243177e+07    2.457213e-08    2.585259e-11    2.108048e-08    7.226440e-02
    1.702660e+01    3.095529e+02    1.210880e-01    1.329029e+07    2.468963e-08    2.668494e-11    2.123727e-08    7.726440e-02
    1.677559e+01    3.122947e+02    1.317658e-01    1.418280e+07    2.480497e-08    2.754331e-11    2.139120e-08    8.226440e-02
    1.651772e+01    3.148131e+02    1.432028e-01    1.510794e+07    2.491818e-08    2.842850e-11    2.154230e-08    8.726440e-02
    1.625371e+01    3.170919e+02    1.554295e-01    1.606417e+07    2.502926e-08    2.934139e-11    2.169059e-08    9.226440e-02
    1.598438e+01    3.191173e+02    1.684754e-01    1.704974e+07    2.513823e-08    3.028287e-11    2.183608e-08    9.726440e-02
    1.571049e+01    3.208770e+02    1.823684e-01    1.806269e+07    2.524511e-08    3.125385e-11    2.197881e-08    1.022644e-01
    1.543286e+01    3.223608e+02    1.971350e-01    1.910091e+07    2.534991e-08    3.225531e-11    2.211880e-08    1.072644e-01
    1.515228e+01    3.235608e+02    2.128000e-01    2.016214e+07    2.545266e-08    3.328821e-11    2.225607e-08    1.122644e-01
    1.486953e+01    3.244714e+02    2.293864e-01    2.124402e+07    2.555338e-08    3.435359e-11    2.239067e-08    1.172644e-01
    1.458538e+01    3.250888e+02    2.469154e-01    2.234412e+07    2.565208e-08    3.545251e-11    2.252262e-08    1.222644e-01
    1.430056e+01    3.254113e+02    2.654060e-01    2.345993e+07    2.574880e-08    3.658606e-11    2.265195e-08    1.272644e-01
    1.401577e+01    3.254392e+02    2.848752e-01    2.458892e+07    2.584356e-08    3.775539e-11    2.277871e-08    1.322644e-01
    1.373169e+01    3.251749e+02    3.053380e-01    2.572856e+07    2.593638e-08    3.896169e-11    2.290292e-08    1.372644e-01
    1.344894e+01    3.246219e+02    3.268071e-01    2.687636e+07    2.602731e-08    4.020616e-11    2.302463e-08    1.422644e-01
    1.316810e+01    3.237860e+02    3.492933e-01    2.802986e+07    2.611635e-08    4.149010e-11    2.314386e-08    1.472644e-01
    1.288971e+01    3.226742e+02    3.728050e-01    2.918672e+07    2.620353e-08    4.281479e-11    2.326067e-08    1.522644e-01
    1.261428e+01    3.212947e+02    3.973486e-01    3.034463e+07    2.628890e-08    4.418161e-11    2.337508e-08    1.572644e-01
    1.234223e+01    3.196567e+02    4.229288e-01    3.150143e+07    2.637247e-08    4.559198e-11    2.348714e-08    1.622644e-01
    1.207398e+01    3.177706e+02    4.495480e-01    3.265509e+07    2.645428e-08    4.704735e-11    2.359689e-08    1.672644e-01
    1.180989e+01    3.156479e+02    4.772071e-01    3.380371e+07    2.653437e-08    4.854925e-11    2.370437e-08    1.722644e-01
    1.155027e+01    3.132999e+02    5.059050e-01    3.494553e+07    2.661275e-08    5.009925e-11    2.380962e-08    1.772644e-01
    1.129538e+01    3.107390e+02    5.356395e-01    3.607893e+07    2.668946e-08    5.169900e-11    2.391268e-08    1.822644e-01
    1.104547e+01    3.079781e+02    5.664060e-01    3.720252e+07    2.676454e-08    5.335020e-11    2.401359e-08    1.872644e-01
    1.080073e+01    3.050298e+02    5.981995e-01    3.831500e+07    2.683801e-08    5.505460e-11    2.411239e-08    1.922644e-01
    1.056131e+01    3.019072e+02    6.310135e-01    3.941524e+07    2.690992e-08    5.681400e-11    2.420912e-08    1.972644e-01
    1.032734e+01    2.986229e+02    6.648400e-01    4.050227e+07    2.698028e-08    5.863035e-11    2.430383e-08    2.022644e-01
    1.009892e+01    2.951901e+02    6.996710e-01    4.157530e+07    2.704914e-08    6.050555e-11    2.439656e-08    2.072644e-01
    9.876111e+00    2.916210e+02    7.354960e-01    4.263364e+07    2.711652e-08    6.244170e-11    2.448734e-08    2.122644e-01
    9.658943e+00    2.879278e+02    7.723055e-01    4.367673e+07    2.718246e-08    6.444090e-11    2.457622e-08    2.172644e-01
    9.447443e+00    2.841227e+02    8.100890e-01    4.470423e+07    2.724699e-08    6.650535e-11    2.466324e-08    2.222644e-01
    9.241613e+00    2.802173e+02    8.488345e-01    4.571587e+07    2.731014e-08    6.863735e-11    2.474843e-08    2.272644e-01
    9.041407e+00    2.762222e+02    8.885310e-01    4.671142e+07    2.737195e-08    7.083920e-11    2.483185e-08    2.322644e-01
    8.846794e+00    2.721482e+02    9.291665e-01    4.769088e+07    2.743243e-08    7.311345e-11    2.491351e-08    2.372644e-01
    8.657725e+00    2.680056e+02    9.707285e-01    4.865428e+07    2.749164e-08    7.546260e-11    2.499347e-08    2.422644e-01
    8.474114e+00    2.638034e+02    1.013205e+00    4.960171e+07    2.754959e-08    7.788935e-11    2.507176e-08    2.472644e-01
    8.295882e+00    2.595509e+02    1.056585e+00    5.053338e+07    2.760633e-08    8.039640e-11    2.514843e-08    2.522644e-01
    8.122939e+00    2.552565e+02    1.100854e+00    5.144954e+07    2.766187e-08    8.298670e-11    2.522350e-08    2.572644e-01
    7.955183e+00    2.509283e+02    1.146003e+00    5.235057e+07    2.771625e-08    8.566310e-11    2.529702e-08    2.622644e-01
    7.792506e+00    2.465732e+02    1.192017e+00    5.323676e+07    2.776951e-08    8.842880e-11    2.536902e-08    2.672644e-01
