# sky130 nfet_01v8 gm/ID Processed Lookup Table
# Corner: tt
# Temperature: 75C
# W = 2.0 um
# L = 3.6 um (3600 nm)
# Columns: gm/id [1/V]  gm/gds [V/V]  id/W [A/m]  ft [Hz]  Cgg/W [F/m]  Cgd/W [F/m]  Cgs/W [F/m]  Vov [V]
#         gm/id          gm/gds            id/W              ft           Cgg/W           Cgd/W           Cgs/W             Vov
    2.311946e+01    1.856135e+02    7.384685e-07    3.446571e+02    7.883925e-09    4.032337e-13    9.300900e-10   -4.933098e-01
    2.311702e+01    1.855942e+02    8.289585e-07    3.865193e+02    7.890665e-09    4.168453e-13    9.662605e-10   -4.883098e-01
    2.311446e+01    1.855738e+02    9.305245e-07    4.333878e+02    7.898690e-09    4.309494e-13    1.003845e-09   -4.833098e-01
    2.311175e+01    1.855522e+02    1.044521e-06    4.858491e+02    7.908040e-09    4.455647e-13    1.042889e-09   -4.783098e-01
    2.310887e+01    1.855294e+02    1.172468e-06    5.445572e+02    7.918740e-09    4.607101e-13    1.083437e-09   -4.733098e-01
    2.310582e+01    1.855052e+02    1.316067e-06    6.102397e+02    7.930835e-09    4.764056e-13    1.125539e-09   -4.683098e-01
    2.310260e+01    1.854796e+02    1.477230e-06    6.837083e+02    7.944345e-09    4.926717e-13    1.169238e-09   -4.633098e-01
    2.309918e+01    1.854525e+02    1.658101e-06    7.658641e+02    7.959320e-09    5.095295e-13    1.214583e-09   -4.583098e-01
    2.309557e+01    1.854239e+02    1.861085e-06    8.577124e+02    7.975785e-09    5.270015e-13    1.261623e-09   -4.533098e-01
    2.309174e+01    1.853936e+02    2.088881e-06    9.603687e+02    7.993785e-09    5.451100e-13    1.310405e-09   -4.483098e-01
    2.308769e+01    1.853616e+02    2.344512e-06    1.075076e+03    8.013345e-09    5.638790e-13    1.360978e-09   -4.433098e-01
    2.308343e+01    1.853279e+02    2.631371e-06    1.203214e+03    8.034515e-09    5.833330e-13    1.413392e-09   -4.383098e-01
    2.307889e+01    1.852921e+02    2.953263e-06    1.346315e+03    8.057320e-09    6.034965e-13    1.467691e-09   -4.333098e-01
    2.307411e+01    1.852544e+02    3.314456e-06    1.506084e+03    8.081800e-09    6.243965e-13    1.523927e-09   -4.283098e-01
    2.306903e+01    1.852144e+02    3.719731e-06    1.684410e+03    8.107990e-09    6.460600e-13    1.582145e-09   -4.233098e-01
    2.306367e+01    1.851723e+02    4.174453e-06    1.883393e+03    8.135930e-09    6.685145e-13    1.642394e-09   -4.183098e-01
    2.305801e+01    1.851277e+02    4.684633e-06    2.105362e+03    8.165650e-09    6.917890e-13    1.704719e-09   -4.133098e-01
    2.305202e+01    1.850806e+02    5.257010e-06    2.352897e+03    8.197190e-09    7.159135e-13    1.769167e-09   -4.083098e-01
    2.304567e+01    1.850311e+02    5.899145e-06    2.628864e+03    8.230580e-09    7.409190e-13    1.835782e-09   -4.033098e-01
    2.303898e+01    1.849787e+02    6.619495e-06    2.936433e+03    8.265860e-09    7.668375e-13    1.904609e-09   -3.983098e-01
    2.303191e+01    1.849234e+02    7.427550e-06    3.279124e+03    8.303055e-09    7.937015e-13    1.975689e-09   -3.933098e-01
    2.302442e+01    1.848650e+02    8.333950e-06    3.660824e+03    8.342205e-09    8.215450e-13    2.049065e-09   -3.883098e-01
    2.301652e+01    1.848036e+02    9.350595e-06    4.085848e+03    8.383335e-09    8.504040e-13    2.124777e-09   -3.833098e-01
    2.300817e+01    1.847386e+02    1.049084e-05    4.558963e+03    8.426480e-09    8.803135e-13    2.202862e-09   -3.783098e-01
    2.299935e+01    1.846703e+02    1.176961e-05    5.085449e+03    8.471660e-09    9.113120e-13    2.283358e-09   -3.733098e-01
    2.299004e+01    1.845982e+02    1.320366e-05    5.671135e+03    8.518915e-09    9.434370e-13    2.366297e-09   -3.683098e-01
    2.298020e+01    1.845223e+02    1.481175e-05    6.322481e+03    8.568260e-09    9.767295e-13    2.451713e-09   -3.633098e-01
    2.296982e+01    1.844423e+02    1.661483e-05    7.046613e+03    8.619720e-09    1.011230e-12    2.539635e-09   -3.583098e-01
    2.295886e+01    1.843582e+02    1.863642e-05    7.851407e+03    8.673320e-09    1.046980e-12    2.630091e-09   -3.533098e-01
    2.294730e+01    1.842697e+02    2.090280e-05    8.745561e+03    8.729080e-09    1.084025e-12    2.723104e-09   -3.483098e-01
    2.293510e+01    1.841765e+02    2.344341e-05    9.738677e+03    8.787020e-09    1.122409e-12    2.818697e-09   -3.433098e-01
    2.292224e+01    1.840787e+02    2.629117e-05    1.084136e+04    8.847145e-09    1.162178e-12    2.916887e-09   -3.383098e-01
    2.290867e+01    1.839757e+02    2.948291e-05    1.206529e+04    8.909480e-09    1.203380e-12    3.017690e-09   -3.333098e-01
    2.289437e+01    1.838676e+02    3.305982e-05    1.342337e+04    8.974030e-09    1.246064e-12    3.121119e-09   -3.283098e-01
    2.287931e+01    1.837543e+02    3.706797e-05    1.492982e+04    9.040805e-09    1.290282e-12    3.227181e-09   -3.233098e-01
    2.286344e+01    1.836354e+02    4.155884e-05    1.660030e+04    9.109805e-09    1.336083e-12    3.335881e-09   -3.183098e-01
    2.284672e+01    1.835105e+02    4.659000e-05    1.845207e+04    9.181035e-09    1.383525e-12    3.447220e-09   -3.133098e-01
    2.282914e+01    1.833799e+02    5.222575e-05    2.050413e+04    9.254500e-09    1.432660e-12    3.561195e-09   -3.083098e-01
    2.281062e+01    1.832431e+02    5.853800e-05    2.277744e+04    9.330185e-09    1.483546e-12    3.677799e-09   -3.033098e-01
    2.279116e+01    1.831001e+02    6.560690e-05    2.529499e+04    9.408095e-09    1.536241e-12    3.797019e-09   -2.983098e-01
    2.277070e+01    1.829507e+02    7.352210e-05    2.808213e+04    9.488210e-09    1.590806e-12    3.918842e-09   -2.933098e-01
    2.274920e+01    1.827945e+02    8.238355e-05    3.116673e+04    9.570520e-09    1.647304e-12    4.043247e-09   -2.883098e-01
    2.272661e+01    1.826316e+02    9.230295e-05    3.457944e+04    9.655005e-09    1.705796e-12    4.170209e-09   -2.833098e-01
    2.270290e+01    1.824619e+02    1.034047e-04    3.835390e+04    9.741645e-09    1.766348e-12    4.299700e-09   -2.783098e-01
    2.267803e+01    1.822853e+02    1.158277e-04    4.252710e+04    9.830420e-09    1.829030e-12    4.431686e-09   -2.733098e-01
    2.265196e+01    1.821017e+02    1.297266e-04    4.713964e+04    9.921300e-09    1.893909e-12    4.566131e-09   -2.683098e-01
    2.262465e+01    1.819111e+02    1.452739e-04    5.223610e+04    1.001426e-08    1.961055e-12    4.702992e-09   -2.633098e-01
    2.259603e+01    1.817134e+02    1.626618e-04    5.786539e+04    1.010925e-08    2.030545e-12    4.842221e-09   -2.583098e-01
    2.256610e+01    1.815089e+02    1.821042e-04    6.408120e+04    1.020624e-08    2.102451e-12    4.983767e-09   -2.533098e-01
    2.253479e+01    1.812974e+02    2.038393e-04    7.094234e+04    1.030519e-08    2.176852e-12    5.127575e-09   -2.483098e-01
    2.250208e+01    1.810792e+02    2.281320e-04    7.851325e+04    1.040606e-08    2.253827e-12    5.273590e-09   -2.433098e-01
    2.246794e+01    1.808547e+02    2.552773e-04    8.686461e+04    1.050879e-08    2.333457e-12    5.421735e-09   -2.383098e-01
    2.243235e+01    1.806241e+02    2.856026e-04    9.607393e+04    1.061333e-08    2.415827e-12    5.571955e-09   -2.333098e-01
    2.239525e+01    1.803877e+02    3.194724e-04    1.062257e+05    1.071964e-08    2.501023e-12    5.724175e-09   -2.283098e-01
    2.235663e+01    1.801460e+02    3.572913e-04    1.174128e+05    1.082764e-08    2.589133e-12    5.878310e-09   -2.233098e-01
    2.231647e+01    1.798997e+02    3.995085e-04    1.297366e+05    1.093728e-08    2.680248e-12    6.034290e-09   -2.183098e-01
    2.227476e+01    1.796494e+02    4.466225e-04    1.433081e+05    1.104849e-08    2.774463e-12    6.192025e-09   -2.133098e-01
    2.223150e+01    1.793959e+02    4.991866e-04    1.582488e+05    1.116121e-08    2.871873e-12    6.351435e-09   -2.083098e-01
    2.218668e+01    1.791404e+02    5.578140e-04    1.746912e+05    1.127537e-08    2.972578e-12    6.512420e-09   -2.033098e-01
    2.214027e+01    1.788839e+02    6.231855e-04    1.927802e+05    1.139090e-08    3.076678e-12    6.674895e-09   -1.983098e-01
    2.209233e+01    1.786276e+02    6.960535e-04    2.126744e+05    1.150771e-08    3.184277e-12    6.838765e-09   -1.933098e-01
    2.204288e+01    1.783732e+02    7.772520e-04    2.345467e+05    1.162575e-08    3.295484e-12    7.003925e-09   -1.883098e-01
    2.199193e+01    1.781222e+02    8.677055e-04    2.585865e+05    1.174492e-08    3.410409e-12    7.170280e-09   -1.833098e-01
    2.193951e+01    1.778764e+02    9.684355e-04    2.850000e+05    1.186515e-08    3.529163e-12    7.337725e-09   -1.783098e-01
    2.188571e+01    1.776382e+02    1.080571e-03    3.140129e+05    1.198634e-08    3.651865e-12    7.506155e-09   -1.733098e-01
    2.183056e+01    1.774097e+02    1.205364e-03    3.458716e+05    1.210844e-08    3.778633e-12    7.675470e-09   -1.683098e-01
    2.177415e+01    1.771937e+02    1.344193e-03    3.808452e+05    1.223134e-08    3.909591e-12    7.845555e-09   -1.633098e-01
    2.171655e+01    1.769929e+02    1.498584e-03    4.192281e+05    1.235497e-08    4.044865e-12    8.016305e-09   -1.583098e-01
    2.165787e+01    1.768105e+02    1.670223e-03    4.613412e+05    1.247924e-08    4.184584e-12    8.187615e-09   -1.533098e-01
    2.159820e+01    1.766499e+02    1.860970e-03    5.075361e+05    1.260405e-08    4.328883e-12    8.359370e-09   -1.483098e-01
    2.153769e+01    1.765150e+02    2.072878e-03    5.581965e+05    1.272934e-08    4.477898e-12    8.531465e-09   -1.433098e-01
    2.147643e+01    1.764096e+02    2.308212e-03    6.137424e+05    1.285500e-08    4.631772e-12    8.703795e-09   -1.383098e-01
    2.141458e+01    1.763380e+02    2.569474e-03    6.746327e+05    1.298095e-08    4.790648e-12    8.876245e-09   -1.333098e-01
    2.135229e+01    1.763051e+02    2.859419e-03    7.413708e+05    1.310711e-08    4.954677e-12    9.048710e-09   -1.283098e-01
    2.128969e+01    1.763155e+02    3.181089e-03    8.145055e+05    1.323340e-08    5.124015e-12    9.221080e-09   -1.233098e-01
    2.122693e+01    1.763744e+02    3.537836e-03    8.946390e+05    1.335972e-08    5.298810e-12    9.393260e-09   -1.183098e-01
    2.116417e+01    1.764872e+02    3.933355e-03    9.824306e+05    1.348599e-08    5.479240e-12    9.565135e-09   -1.133098e-01
    2.110155e+01    1.766597e+02    4.371722e-03    1.078601e+06    1.361214e-08    5.665460e-12    9.736605e-09   -1.083098e-01
    2.103920e+01    1.768975e+02    4.857426e-03    1.183940e+06    1.373807e-08    5.857650e-12    9.907575e-09   -1.033098e-01
    2.097724e+01    1.772066e+02    5.395415e-03    1.299312e+06    1.386372e-08    6.055980e-12    1.007794e-08   -9.830980e-02
    2.091578e+01    1.775932e+02    5.991140e-03    1.425663e+06    1.398900e-08    6.260640e-12    1.024761e-08   -9.330980e-02
    2.085488e+01    1.780635e+02    6.650610e-03    1.564026e+06    1.411385e-08    6.471815e-12    1.041649e-08   -8.830980e-02
    2.079459e+01    1.786231e+02    7.380430e-03    1.715529e+06    1.423817e-08    6.689695e-12    1.058449e-08   -8.330980e-02
    2.073493e+01    1.792785e+02    8.187880e-03    1.881405e+06    1.436190e-08    6.914485e-12    1.075152e-08   -7.830980e-02
    2.067584e+01    1.800351e+02    9.080980e-03    2.062994e+06    1.448499e-08    7.146390e-12    1.091750e-08   -7.330980e-02
    2.061724e+01    1.808986e+02    1.006853e-02    2.261755e+06    1.460734e-08    7.385615e-12    1.108234e-08   -6.830980e-02
    2.055899e+01    1.818739e+02    1.116021e-02    2.479271e+06    1.472891e-08    7.632385e-12    1.124597e-08   -6.330980e-02
    2.050088e+01    1.829656e+02    1.236667e-02    2.717252e+06    1.484962e-08    7.886920e-12    1.140830e-08   -5.830980e-02
    2.044265e+01    1.841778e+02    1.369956e-02    2.977548e+06    1.496943e-08    8.149455e-12    1.156928e-08   -5.330980e-02
    2.038396e+01    1.855136e+02    1.517168e-02    3.262144e+06    1.508826e-08    8.420225e-12    1.172883e-08   -4.830980e-02
    2.032441e+01    1.869755e+02    1.679703e-02    3.573168e+06    1.520607e-08    8.699480e-12    1.188689e-08   -4.330980e-02
    2.026353e+01    1.885647e+02    1.859090e-02    3.912886e+06    1.532281e-08    8.987475e-12    1.204339e-08   -3.830980e-02
    2.020079e+01    1.902817e+02    2.057001e-02    4.283708e+06    1.543843e-08    9.284460e-12    1.219829e-08   -3.330980e-02
    2.013559e+01    1.921255e+02    2.275252e-02    4.688172e+06    1.555288e-08    9.590720e-12    1.235151e-08   -2.830980e-02
    2.006730e+01    1.940939e+02    2.515822e-02    5.128942e+06    1.566611e-08    9.906520e-12    1.250302e-08   -2.330980e-02
    1.999523e+01    1.961835e+02    2.780853e-02    5.608801e+06    1.577810e-08    1.023216e-11    1.265277e-08   -1.830980e-02
    1.991865e+01    1.983891e+02    3.072663e-02    6.130616e+06    1.588879e-08    1.056792e-11    1.280072e-08   -1.330980e-02
    1.983683e+01    2.007041e+02    3.393750e-02    6.697339e+06    1.599816e-08    1.091412e-11    1.294682e-08   -8.309800e-03
    1.974904e+01    2.031207e+02    3.746803e-02    7.311972e+06    1.610618e-08    1.127107e-11    1.309104e-08   -3.309800e-03
    1.965454e+01    2.056293e+02    4.134700e-02    7.977537e+06    1.621280e-08    1.163909e-11    1.323334e-08    1.690200e-03
    1.955260e+01    2.082185e+02    4.560516e-02    8.697035e+06    1.631802e-08    1.201854e-11    1.337370e-08    6.690200e-03
    1.944259e+01    2.108759e+02    5.027520e-02    9.473430e+06    1.642180e-08    1.240973e-11    1.351210e-08    1.169020e-02
    1.932385e+01    2.135875e+02    5.539185e-02    1.030958e+07    1.652413e-08    1.281305e-11    1.364850e-08    1.669020e-02
    1.919592e+01    2.163382e+02    6.099155e-02    1.120825e+07    1.662498e-08    1.322885e-11    1.378291e-08    2.169020e-02
    1.905829e+01    2.191116e+02    6.711280e-02    1.217196e+07    1.672433e-08    1.365753e-11    1.391527e-08    2.669020e-02
    1.891058e+01    2.218901e+02    7.379580e-02    1.320305e+07    1.682219e-08    1.409947e-11    1.404561e-08    3.169020e-02
    1.875257e+01    2.246558e+02    8.108225e-02    1.430356e+07    1.691853e-08    1.455509e-11    1.417390e-08    3.669020e-02
    1.858409e+01    2.273897e+02    8.901545e-02    1.547524e+07    1.701334e-08    1.502480e-11    1.430012e-08    4.169020e-02
    1.840510e+01    2.300727e+02    9.764000e-02    1.671945e+07    1.710662e-08    1.550905e-11    1.442429e-08    4.669020e-02
    1.821566e+01    2.326857e+02    1.070016e-01    1.803716e+07    1.719836e-08    1.600828e-11    1.454640e-08    5.169020e-02
    1.801593e+01    2.352094e+02    1.171467e-01    1.942889e+07    1.728856e-08    1.652297e-11    1.466644e-08    5.669020e-02
    1.780620e+01    2.376250e+02    1.281224e-01    2.089471e+07    1.737721e-08    1.705358e-11    1.478442e-08    6.169020e-02
    1.758685e+01    2.399140e+02    1.399762e-01    2.243418e+07    1.746434e-08    1.760063e-11    1.490034e-08    6.669020e-02
    1.735833e+01    2.420593e+02    1.527556e-01    2.404640e+07    1.754992e-08    1.816463e-11    1.501422e-08    7.169020e-02
    1.712119e+01    2.440442e+02    1.665077e-01    2.572992e+07    1.763396e-08    1.874611e-11    1.512606e-08    7.669020e-02
    1.687605e+01    2.458536e+02    1.812791e-01    2.748281e+07    1.771648e-08    1.934562e-11    1.523587e-08    8.169020e-02
    1.662357e+01    2.474734e+02    1.971154e-01    2.930263e+07    1.779748e-08    1.996374e-11    1.534367e-08    8.669020e-02
    1.636448e+01    2.488917e+02    2.140613e-01    3.118649e+07    1.787697e-08    2.060105e-11    1.544946e-08    9.169020e-02
    1.609952e+01    2.500974e+02    2.321595e-01    3.313105e+07    1.795495e-08    2.125817e-11    1.555326e-08    9.669020e-02
    1.582947e+01    2.510819e+02    2.514513e-01    3.513255e+07    1.803146e-08    2.193573e-11    1.565511e-08    1.016902e-01
    1.555513e+01    2.518379e+02    2.719756e-01    3.718688e+07    1.810648e-08    2.263439e-11    1.575500e-08    1.066902e-01
    1.527729e+01    2.523600e+02    2.937692e-01    3.928964e+07    1.818004e-08    2.335483e-11    1.585296e-08    1.116902e-01
    1.499673e+01    2.526450e+02    3.168666e-01    4.143611e+07    1.825216e-08    2.409774e-11    1.594903e-08    1.166902e-01
    1.471423e+01    2.526910e+02    3.412990e-01    4.362142e+07    1.832283e-08    2.486386e-11    1.604320e-08    1.216902e-01
    1.443054e+01    2.524983e+02    3.670951e-01    4.584056e+07    1.839210e-08    2.565394e-11    1.613551e-08    1.266902e-01
    1.414637e+01    2.520682e+02    3.942808e-01    4.808832e+07    1.845997e-08    2.646876e-11    1.622599e-08    1.316902e-01
    1.386242e+01    2.514044e+02    4.228786e-01    5.035961e+07    1.852646e-08    2.730913e-11    1.631465e-08    1.366902e-01
    1.357935e+01    2.505115e+02    4.529080e-01    5.264929e+07    1.859159e-08    2.817590e-11    1.640153e-08    1.416902e-01
    1.329775e+01    2.493954e+02    4.843854e-01    5.495223e+07    1.865538e-08    2.906991e-11    1.648665e-08    1.466902e-01
    1.301821e+01    2.480635e+02    5.173240e-01    5.726356e+07    1.871785e-08    2.999209e-11    1.657004e-08    1.516902e-01
    1.274126e+01    2.465241e+02    5.517345e-01    5.957853e+07    1.877901e-08    3.094335e-11    1.665172e-08    1.566902e-01
    1.246734e+01    2.447861e+02    5.876240e-01    6.189250e+07    1.883890e-08    3.192467e-11    1.673173e-08    1.616902e-01
    1.219692e+01    2.428596e+02    6.249970e-01    6.420122e+07    1.889753e-08    3.293705e-11    1.681008e-08    1.666902e-01
    1.193039e+01    2.407551e+02    6.638545e-01    6.650062e+07    1.895493e-08    3.398153e-11    1.688682e-08    1.716902e-01
    1.166808e+01    2.384834e+02    7.041965e-01    6.878692e+07    1.901111e-08    3.505918e-11    1.696196e-08    1.766902e-01
    1.141029e+01    2.360558e+02    7.460195e-01    7.105672e+07    1.906610e-08    3.617112e-11    1.703554e-08    1.816902e-01
    1.115729e+01    2.334837e+02    7.893175e-01    7.330685e+07    1.911992e-08    3.731852e-11    1.710759e-08    1.866902e-01
    1.090930e+01    2.307786e+02    8.340830e-01    7.553455e+07    1.917259e-08    3.850256e-11    1.717814e-08    1.916902e-01
    1.066651e+01    2.279519e+02    8.803065e-01    7.773728e+07    1.922414e-08    3.972451e-11    1.724721e-08    1.966902e-01
    1.042905e+01    2.250151e+02    9.279770e-01    7.991292e+07    1.927459e-08    4.098565e-11    1.731483e-08    2.016902e-01
    1.019706e+01    2.219792e+02    9.770810e-01    8.205966e+07    1.932396e-08    4.228733e-11    1.738103e-08    2.066902e-01
    9.970616e+00    2.188551e+02    1.027605e+00    8.417595e+07    1.937227e-08    4.363092e-11    1.744585e-08    2.116902e-01
    9.749781e+00    2.156533e+02    1.079535e+00    8.626058e+07    1.941955e-08    4.501789e-11    1.750931e-08    2.166902e-01
    9.534586e+00    2.123839e+02    1.132853e+00    8.831260e+07    1.946582e-08    4.644973e-11    1.757144e-08    2.216902e-01
    9.325047e+00    2.090565e+02    1.187542e+00    9.033126e+07    1.951111e-08    4.792799e-11    1.763226e-08    2.266902e-01
    9.121146e+00    2.056801e+02    1.243585e+00    9.231619e+07    1.955542e-08    4.945428e-11    1.769181e-08    2.316902e-01
    8.922857e+00    2.022638e+02    1.300965e+00    9.426714e+07    1.959879e-08    5.103030e-11    1.775011e-08    2.366902e-01
    8.730140e+00    1.988155e+02    1.359662e+00    9.618405e+07    1.964126e-08    5.265775e-11    1.780719e-08    2.416902e-01
    8.542925e+00    1.953429e+02    1.419659e+00    9.806717e+07    1.968281e-08    5.433845e-11    1.786308e-08    2.466902e-01
    8.361145e+00    1.918531e+02    1.480937e+00    9.991681e+07    1.972349e-08    5.607430e-11    1.791780e-08    2.516902e-01
    8.184714e+00    1.883530e+02    1.543476e+00    1.017334e+08    1.976332e-08    5.786725e-11    1.797139e-08    2.566902e-01
    8.013538e+00    1.848483e+02    1.607260e+00    1.035177e+08    1.980232e-08    5.971930e-11    1.802386e-08    2.616902e-01
