# sky130 nfet_01v8 gm/ID Processed Lookup Table
# Corner: tt
# Temperature: 75C
# W = 2.0 um
# L = 4.86 um (4860 nm)
# Columns: gm/id [1/V]  gm/gds [V/V]  id/W [A/m]  ft [Hz]  Cgg/W [F/m]  Cgd/W [F/m]  Cgs/W [F/m]  Vov [V]
#         gm/id          gm/gds            id/W              ft           Cgg/W           Cgd/W           Cgs/W             Vov
    2.318751e+01    2.213438e+02    6.021875e-07    2.090968e+02    1.062818e-08    5.610525e-13    1.288027e-09   -4.883748e-01
    2.318491e+01    2.213192e+02    6.762075e-07    2.345429e+02    1.063857e-08    5.800840e-13    1.338368e-09   -4.833748e-01
    2.318215e+01    2.212932e+02    7.593160e-07    2.630368e+02    1.065075e-08    5.998070e-13    1.390678e-09   -4.783748e-01
    2.317925e+01    2.212658e+02    8.526265e-07    2.949359e+02    1.066475e-08    6.202490e-13    1.445019e-09   -4.733748e-01
    2.317617e+01    2.212367e+02    9.573890e-07    3.306385e+02    1.068063e-08    6.414355e-13    1.501456e-09   -4.683748e-01
    2.317290e+01    2.212059e+02    1.075008e-06    3.705883e+02    1.069844e-08    6.633955e-13    1.560052e-09   -4.633748e-01
    2.316945e+01    2.211733e+02    1.207055e-06    4.152798e+02    1.071821e-08    6.861580e-13    1.620870e-09   -4.583748e-01
    2.316578e+01    2.211389e+02    1.355299e-06    4.652624e+02    1.074000e-08    7.097520e-13    1.683978e-09   -4.533748e-01
    2.316191e+01    2.211024e+02    1.521719e-06    5.211485e+02    1.076385e-08    7.342095e-13    1.749441e-09   -4.483748e-01
    2.315781e+01    2.210640e+02    1.708542e-06    5.836183e+02    1.078983e-08    7.595625e-13    1.817325e-09   -4.433748e-01
    2.315347e+01    2.210232e+02    1.918260e-06    6.534291e+02    1.081796e-08    7.858445e-13    1.887697e-09   -4.383748e-01
    2.314888e+01    2.209802e+02    2.153673e-06    7.314213e+02    1.084832e-08    8.130895e-13    1.960622e-09   -4.333748e-01
    2.314402e+01    2.209346e+02    2.417918e-06    8.185295e+02    1.088094e-08    8.413330e-13    2.036164e-09   -4.283748e-01
    2.313890e+01    2.208867e+02    2.714518e-06    9.157926e+02    1.091587e-08    8.706130e-13    2.114392e-09   -4.233748e-01
    2.313345e+01    2.208358e+02    3.047421e-06    1.024361e+03    1.095317e-08    9.009665e-13    2.195367e-09   -4.183748e-01
    2.312770e+01    2.207822e+02    3.421054e-06    1.145515e+03    1.099288e-08    9.324330e-13    2.279155e-09   -4.133748e-01
    2.312163e+01    2.207256e+02    3.840383e-06    1.280674e+03    1.103505e-08    9.650540e-13    2.365818e-09   -4.083748e-01
    2.311520e+01    2.206657e+02    4.310976e-06    1.431411e+03    1.107973e-08    9.988715e-13    2.455418e-09   -4.033748e-01
    2.310841e+01    2.206027e+02    4.839074e-06    1.599469e+03    1.112696e-08    1.033929e-12    2.548014e-09   -3.983748e-01
    2.310123e+01    2.205360e+02    5.431675e-06    1.786784e+03    1.117678e-08    1.070270e-12    2.643667e-09   -3.933748e-01
    2.309364e+01    2.204657e+02    6.096620e-06    1.995494e+03    1.122926e-08    1.107944e-12    2.742432e-09   -3.883748e-01
    2.308561e+01    2.203915e+02    6.842705e-06    2.227973e+03    1.128442e-08    1.146996e-12    2.844365e-09   -3.833748e-01
    2.307713e+01    2.203134e+02    7.679775e-06    2.486847e+03    1.134231e-08    1.187478e-12    2.949518e-09   -3.783748e-01
    2.306818e+01    2.202309e+02    8.618865e-06    2.775020e+03    1.140296e-08    1.229439e-12    3.057941e-09   -3.733748e-01
    2.305870e+01    2.201440e+02    9.672350e-06    3.095705e+03    1.146641e-08    1.272932e-12    3.169683e-09   -3.683748e-01
    2.304872e+01    2.200525e+02    1.085407e-05    3.452458e+03    1.153270e-08    1.318013e-12    3.284786e-09   -3.633748e-01
    2.303817e+01    2.199561e+02    1.217954e-05    3.849206e+03    1.160187e-08    1.364738e-12    3.403293e-09   -3.583748e-01
    2.302704e+01    2.198547e+02    1.366613e-05    4.290291e+03    1.167393e-08    1.413164e-12    3.525241e-09   -3.533748e-01
    2.301529e+01    2.197479e+02    1.533330e-05    4.780509e+03    1.174892e-08    1.463350e-12    3.650664e-09   -3.483748e-01
    2.300289e+01    2.196357e+02    1.720281e-05    5.325152e+03    1.182687e-08    1.515359e-12    3.779592e-09   -3.433748e-01
    2.298981e+01    2.195177e+02    1.929903e-05    5.930070e+03    1.190779e-08    1.569254e-12    3.912051e-09   -3.383748e-01
    2.297603e+01    2.193937e+02    2.164922e-05    6.601710e+03    1.199171e-08    1.625101e-12    4.048063e-09   -3.333748e-01
    2.296149e+01    2.192634e+02    2.428390e-05    7.347184e+03    1.207863e-08    1.682965e-12    4.187645e-09   -3.283748e-01
    2.294619e+01    2.191269e+02    2.723719e-05    8.174348e+03    1.216857e-08    1.742918e-12    4.330808e-09   -3.233748e-01
    2.293005e+01    2.189836e+02    3.054723e-05    9.091840e+03    1.226155e-08    1.805031e-12    4.477560e-09   -3.183748e-01
    2.291305e+01    2.188333e+02    3.425669e-05    1.010919e+04    1.235755e-08    1.869376e-12    4.627902e-09   -3.133748e-01
    2.289516e+01    2.186759e+02    3.841327e-05    1.123690e+04    1.245658e-08    1.936030e-12    4.781832e-09   -3.083748e-01
    2.287634e+01    2.185113e+02    4.307024e-05    1.248653e+04    1.255863e-08    2.005071e-12    4.939341e-09   -3.033748e-01
    2.285655e+01    2.183391e+02    4.828712e-05    1.387081e+04    1.266370e-08    2.076579e-12    5.100410e-09   -2.983748e-01
    2.283574e+01    2.181592e+02    5.413040e-05    1.540371e+04    1.277176e-08    2.150636e-12    5.265025e-09   -2.933748e-01
    2.281387e+01    2.179714e+02    6.067430e-05    1.710066e+04    1.288282e-08    2.227328e-12    5.433160e-09   -2.883748e-01
    2.279090e+01    2.177756e+02    6.800170e-05    1.897859e+04    1.299683e-08    2.306742e-12    5.604775e-09   -2.833748e-01
    2.276678e+01    2.175716e+02    7.620505e-05    2.105609e+04    1.311378e-08    2.388967e-12    5.779835e-09   -2.783748e-01
    2.274149e+01    2.173596e+02    8.538740e-05    2.335361e+04    1.323363e-08    2.474097e-12    5.958295e-09   -2.733748e-01
    2.271496e+01    2.171391e+02    9.566385e-05    2.589363e+04    1.335633e-08    2.562226e-12    6.140110e-09   -2.683748e-01
    2.268717e+01    2.169103e+02    1.071625e-04    2.870077e+04    1.348186e-08    2.653452e-12    6.325215e-09   -2.633748e-01
    2.265807e+01    2.166733e+02    1.200262e-04    3.180210e+04    1.361017e-08    2.747876e-12    6.513550e-09   -2.583748e-01
    2.262764e+01    2.164281e+02    1.344140e-04    3.522731e+04    1.374119e-08    2.845600e-12    6.705045e-09   -2.533748e-01
    2.259579e+01    2.161750e+02    1.505031e-04    3.900893e+04    1.387488e-08    2.946731e-12    6.899630e-09   -2.483748e-01
    2.256254e+01    2.159142e+02    1.684907e-04    4.318266e+04    1.401118e-08    3.051380e-12    7.097215e-09   -2.433748e-01
    2.252783e+01    2.156459e+02    1.885960e-04    4.778760e+04    1.415001e-08    3.159656e-12    7.297715e-09   -2.383748e-01
    2.249163e+01    2.153706e+02    2.110629e-04    5.286656e+04    1.429131e-08    3.271677e-12    7.501045e-09   -2.333748e-01
    2.245391e+01    2.150889e+02    2.361627e-04    5.846643e+04    1.443500e-08    3.387560e-12    7.707100e-09   -2.283748e-01
    2.241467e+01    2.148014e+02    2.641964e-04    6.463857e+04    1.458101e-08    3.507428e-12    7.915775e-09   -2.233748e-01
    2.237386e+01    2.145088e+02    2.954988e-04    7.143914e+04    1.472925e-08    3.631405e-12    8.126965e-09   -2.183748e-01
    2.233149e+01    2.142122e+02    3.304412e-04    7.892958e+04    1.487964e-08    3.759621e-12    8.340555e-09   -2.133748e-01
    2.228754e+01    2.139125e+02    3.694358e-04    8.717711e+04    1.503207e-08    3.892208e-12    8.556430e-09   -2.083748e-01
    2.224201e+01    2.136111e+02    4.129397e-04    9.625519e+04    1.518647e-08    4.029302e-12    8.774460e-09   -2.033748e-01
    2.219491e+01    2.133093e+02    4.614596e-04    1.062441e+05    1.534272e-08    4.171042e-12    8.994525e-09   -1.983748e-01
    2.214627e+01    2.130090e+02    5.155570e-04    1.172317e+05    1.550074e-08    4.317573e-12    9.216495e-09   -1.933748e-01
    2.209609e+01    2.127121e+02    5.758545e-04    1.293140e+05    1.566040e-08    4.469041e-12    9.440230e-09   -1.883748e-01
    2.204442e+01    2.124206e+02    6.430395e-04    1.425954e+05    1.582162e-08    4.625599e-12    9.665600e-09   -1.833748e-01
    2.199130e+01    2.121370e+02    7.178755e-04    1.571908e+05    1.598428e-08    4.787404e-12    9.892460e-09   -1.783748e-01
    2.193678e+01    2.118640e+02    8.012050e-04    1.732251e+05    1.614826e-08    4.954614e-12    1.012067e-08   -1.733748e-01
    2.188092e+01    2.116047e+02    8.939610e-04    1.908350e+05    1.631347e-08    5.127395e-12    1.035009e-08   -1.683748e-01
    2.182383e+01    2.113623e+02    9.971730e-04    2.101698e+05    1.647977e-08    5.305920e-12    1.058056e-08   -1.633748e-01
    2.176556e+01    2.111404e+02    1.111981e-03    2.313927e+05    1.664706e-08    5.490355e-12    1.081195e-08   -1.583748e-01
    2.170623e+01    2.109432e+02    1.239643e-03    2.546822e+05    1.681522e-08    5.680885e-12    1.104411e-08   -1.533748e-01
    2.164596e+01    2.107749e+02    1.381547e-03    2.802331e+05    1.698413e-08    5.877695e-12    1.127688e-08   -1.483748e-01
    2.158486e+01    2.106403e+02    1.539228e-03    3.082587e+05    1.715367e-08    6.080975e-12    1.151012e-08   -1.433748e-01
    2.152306e+01    2.105445e+02    1.714380e-03    3.389923e+05    1.732373e-08    6.290915e-12    1.174367e-08   -1.383748e-01
    2.146072e+01    2.104931e+02    1.908869e-03    3.726890e+05    1.749419e-08    6.507720e-12    1.197741e-08   -1.333748e-01
    2.139796e+01    2.104916e+02    2.124758e-03    4.096283e+05    1.766493e-08    6.731595e-12    1.221117e-08   -1.283748e-01
    2.133496e+01    2.105466e+02    2.364319e-03    4.501160e+05    1.783584e-08    6.962755e-12    1.244480e-08   -1.233748e-01
    2.127185e+01    2.106643e+02    2.630061e-03    4.944867e+05    1.800680e-08    7.201415e-12    1.267818e-08   -1.183748e-01
    2.120876e+01    2.108515e+02    2.924749e-03    5.431068e+05    1.817770e-08    7.447800e-12    1.291115e-08   -1.133748e-01
    2.114588e+01    2.111157e+02    3.251431e-03    5.963782e+05    1.834841e-08    7.702145e-12    1.314357e-08   -1.083748e-01
    2.108331e+01    2.114640e+02    3.613468e-03    6.547401e+05    1.851886e-08    7.964685e-12    1.337531e-08   -1.033748e-01
    2.102117e+01    2.119040e+02    4.014565e-03    7.186737e+05    1.868890e-08    8.235665e-12    1.360624e-08   -9.837480e-02
    2.095957e+01    2.124434e+02    4.458803e-03    7.887054e+05    1.885845e-08    8.515340e-12    1.383623e-08   -9.337480e-02
    2.089854e+01    2.130898e+02    4.950683e-03    8.654099e+05    1.902740e-08    8.803965e-12    1.406514e-08   -8.837480e-02
    2.083814e+01    2.138509e+02    5.495155e-03    9.494159e+05    1.919564e-08    9.101820e-12    1.429285e-08   -8.337480e-02
    2.077835e+01    2.147343e+02    6.097675e-03    1.041408e+06    1.936308e-08    9.409170e-12    1.451925e-08   -7.837480e-02
    2.071909e+01    2.157473e+02    6.764250e-03    1.142132e+06    1.952963e-08    9.726300e-12    1.474422e-08   -7.337480e-02
    2.066029e+01    2.168968e+02    7.501475e-03    1.252400e+06    1.969519e-08    1.005351e-11    1.496764e-08   -6.837480e-02
    2.060175e+01    2.181893e+02    8.316610e-03    1.373088e+06    1.985968e-08    1.039109e-11    1.518942e-08   -6.337480e-02
    2.054326e+01    2.196306e+02    9.217625e-03    1.505148e+06    2.002301e-08    1.073937e-11    1.540944e-08   -5.837480e-02
    2.048452e+01    2.212259e+02    1.021326e-02    1.649603e+06    2.018510e-08    1.109865e-11    1.562763e-08   -5.337480e-02
    2.042516e+01    2.229793e+02    1.131310e-02    1.807552e+06    2.034588e-08    1.146929e-11    1.584386e-08   -4.837480e-02
    2.036474e+01    2.248940e+02    1.252763e-02    1.980171e+06    2.050526e-08    1.185160e-11    1.605807e-08   -4.337480e-02
    2.030277e+01    2.269720e+02    1.386831e-02    2.168710e+06    2.066318e-08    1.224594e-11    1.627016e-08   -3.837480e-02
    2.023867e+01    2.292139e+02    1.534763e-02    2.374496e+06    2.081958e-08    1.265269e-11    1.648007e-08   -3.337480e-02
    2.017184e+01    2.316190e+02    1.697919e-02    2.598924e+06    2.097438e-08    1.307220e-11    1.668770e-08   -2.837480e-02
    2.010161e+01    2.341848e+02    1.877776e-02    2.843454e+06    2.112753e-08    1.350488e-11    1.689302e-08   -2.337480e-02
    2.002726e+01    2.369074e+02    2.075937e-02    3.109603e+06    2.127899e-08    1.395111e-11    1.709593e-08   -1.837480e-02
    1.994807e+01    2.397809e+02    2.294129e-02    3.398937e+06    2.142870e-08    1.441132e-11    1.729639e-08   -1.337480e-02
    1.986329e+01    2.427979e+02    2.534215e-02    3.713059e+06    2.157659e-08    1.488592e-11    1.749435e-08   -8.374800e-03
    1.977214e+01    2.459483e+02    2.798197e-02    4.053585e+06    2.172266e-08    1.537535e-11    1.768974e-08   -3.374800e-03
    1.967395e+01    2.492217e+02    3.088216e-02    4.422149e+06    2.186684e-08    1.588007e-11    1.788254e-08    1.625200e-03
    1.956797e+01    2.526043e+02    3.406556e-02    4.820360e+06    2.200909e-08    1.640055e-11    1.807270e-08    6.625200e-03
    1.945360e+01    2.560814e+02    3.755643e-02    5.249794e+06    2.214940e-08    1.693726e-11    1.826019e-08    1.162520e-02
    1.933022e+01    2.596364e+02    4.138042e-02    5.711970e+06    2.228773e-08    1.749071e-11    1.844497e-08    1.662520e-02
    1.919733e+01    2.632511e+02    4.556459e-02    6.208323e+06    2.242406e-08    1.806141e-11    1.862703e-08    2.162520e-02
    1.905454e+01    2.669059e+02    5.013725e-02    6.740181e+06    2.255835e-08    1.864991e-11    1.880633e-08    2.662520e-02
    1.890149e+01    2.705801e+02    5.512805e-02    7.308744e+06    2.269061e-08    1.925674e-11    1.898286e-08    3.162520e-02
    1.873801e+01    2.742520e+02    6.056770e-02    7.915050e+06    2.282081e-08    1.988248e-11    1.915662e-08    3.662520e-02
    1.856395e+01    2.778990e+02    6.648800e-02    8.559953e+06    2.294893e-08    2.052771e-11    1.932757e-08    4.162520e-02
    1.837935e+01    2.814980e+02    7.292155e-02    9.244110e+06    2.307497e-08    2.119305e-11    1.949573e-08    4.662520e-02
    1.818433e+01    2.850260e+02    7.990175e-02    9.967950e+06    2.319893e-08    2.187913e-11    1.966109e-08    5.162520e-02
    1.797912e+01    2.884593e+02    8.746250e-02    1.073166e+07    2.332080e-08    2.258658e-11    1.982365e-08    5.662520e-02
    1.776401e+01    2.917755e+02    9.563820e-02    1.153518e+07    2.344057e-08    2.331610e-11    1.998341e-08    6.162520e-02
    1.753947e+01    2.949521e+02    1.044632e-01    1.237818e+07    2.355825e-08    2.406837e-11    2.014038e-08    6.662520e-02
    1.730599e+01    2.979677e+02    1.139719e-01    1.326006e+07    2.367385e-08    2.484413e-11    2.029458e-08    7.162520e-02
    1.706415e+01    3.008019e+02    1.241985e-01    1.417994e+07    2.378737e-08    2.564410e-11    2.044600e-08    7.662520e-02
    1.681461e+01    3.034359e+02    1.351764e-01    1.513671e+07    2.389881e-08    2.646907e-11    2.059467e-08    8.162520e-02
    1.655806e+01    3.058517e+02    1.469387e-01    1.612895e+07    2.400820e-08    2.731983e-11    2.074061e-08    8.662520e-02
    1.629525e+01    3.080342e+02    1.595171e-01    1.715503e+07    2.411554e-08    2.819720e-11    2.088383e-08    9.162520e-02
    1.602696e+01    3.099691e+02    1.729424e-01    1.821309e+07    2.422084e-08    2.910206e-11    2.102437e-08    9.662520e-02
    1.575397e+01    3.116447e+02    1.872440e-01    1.930105e+07    2.432413e-08    3.003527e-11    2.116223e-08    1.016252e-01
    1.547709e+01    3.130511e+02    2.024498e-01    2.041667e+07    2.442541e-08    3.099777e-11    2.129745e-08    1.066252e-01
    1.519710e+01    3.141804e+02    2.185857e-01    2.155752e+07    2.452471e-08    3.199050e-11    2.143006e-08    1.116252e-01
    1.491480e+01    3.150269e+02    2.356762e-01    2.272109e+07    2.462205e-08    3.301445e-11    2.156008e-08    1.166252e-01
    1.463095e+01    3.155870e+02    2.537435e-01    2.390473e+07    2.471745e-08    3.407064e-11    2.168754e-08    1.216252e-01
    1.434629e+01    3.158591e+02    2.728077e-01    2.510575e+07    2.481094e-08    3.516011e-11    2.181249e-08    1.266252e-01
    1.406154e+01    3.158436e+02    2.928869e-01    2.632143e+07    2.490254e-08    3.628398e-11    2.193494e-08    1.316252e-01
    1.377736e+01    3.155425e+02    3.139970e-01    2.754901e+07    2.499226e-08    3.744336e-11    2.205494e-08    1.366252e-01
    1.349439e+01    3.149599e+02    3.361516e-01    2.878582e+07    2.508015e-08    3.863944e-11    2.217252e-08    1.416252e-01
    1.321323e+01    3.141011e+02    3.593620e-01    3.002918e+07    2.516622e-08    3.987345e-11    2.228772e-08    1.466252e-01
    1.293442e+01    3.129731e+02    3.836376e-01    3.127650e+07    2.525050e-08    4.114664e-11    2.240057e-08    1.516252e-01
    1.265846e+01    3.115841e+02    4.089853e-01    3.252533e+07    2.533303e-08    4.246032e-11    2.251111e-08    1.566252e-01
    1.238581e+01    3.099433e+02    4.354102e-01    3.377328e+07    2.541383e-08    4.381585e-11    2.261938e-08    1.616252e-01
    1.211688e+01    3.080607e+02    4.629151e-01    3.501810e+07    2.549292e-08    4.521464e-11    2.272541e-08    1.666252e-01
    1.185204e+01    3.059481e+02    4.915011e-01    3.625777e+07    2.557035e-08    4.665814e-11    2.282926e-08    1.716252e-01
    1.159160e+01    3.036165e+02    5.211675e-01    3.749031e+07    2.564613e-08    4.814789e-11    2.293095e-08    1.766252e-01
    1.133586e+01    3.010783e+02    5.519115e-01    3.871399e+07    2.572030e-08    4.968545e-11    2.303052e-08    1.816252e-01
    1.108504e+01    2.983461e+02    5.837295e-01    3.992722e+07    2.579289e-08    5.127245e-11    2.312802e-08    1.866252e-01
    1.083935e+01    2.954325e+02    6.166165e-01    4.112859e+07    2.586393e-08    5.291055e-11    2.322348e-08    1.916252e-01
    1.059896e+01    2.923502e+02    6.505645e-01    4.231684e+07    2.593346e-08    5.460155e-11    2.331695e-08    1.966252e-01
    1.036398e+01    2.891119e+02    6.855665e-01    4.349088e+07    2.600149e-08    5.634730e-11    2.340846e-08    2.016252e-01
    1.013455e+01    2.857307e+02    7.216135e-01    4.464988e+07    2.606807e-08    5.814960e-11    2.349805e-08    2.066252e-01
    9.910702e+00    2.822185e+02    7.586955e-01    4.579300e+07    2.613322e-08    6.001045e-11    2.358577e-08    2.116252e-01
    9.692502e+00    2.785876e+02    7.968020e-01    4.691970e+07    2.619698e-08    6.193195e-11    2.367165e-08    2.166252e-01
    9.479963e+00    2.748497e+02    8.359215e-01    4.802948e+07    2.625938e-08    6.391610e-11    2.375572e-08    2.216252e-01
    9.273084e+00    2.710163e+02    8.760430e-01    4.912206e+07    2.632044e-08    6.596520e-11    2.383803e-08    2.266252e-01
    9.071851e+00    2.670984e+02    9.171535e-01    5.019726e+07    2.638020e-08    6.808145e-11    2.391863e-08    2.316252e-01
    8.876211e+00    2.631060e+02    9.592415e-01    5.125495e+07    2.643869e-08    7.026730e-11    2.399753e-08    2.366252e-01
    8.686118e+00    2.590492e+02    1.002294e+00    5.229516e+07    2.649594e-08    7.252510e-11    2.407478e-08    2.416252e-01
    8.501502e+00    2.549373e+02    1.046298e+00    5.331803e+07    2.655198e-08    7.485750e-11    2.415043e-08    2.466252e-01
    8.322281e+00    2.507793e+02    1.091241e+00    5.432374e+07    2.660684e-08    7.726705e-11    2.422450e-08    2.516252e-01
    8.148367e+00    2.465833e+02    1.137109e+00    5.531257e+07    2.666055e-08    7.975660e-11    2.429703e-08    2.566252e-01
    7.979664e+00    2.423573e+02    1.183892e+00    5.628490e+07    2.671314e-08    8.232895e-11    2.436806e-08    2.616252e-01
    7.816054e+00    2.381083e+02    1.231576e+00    5.724105e+07    2.676464e-08    8.498710e-11    2.443762e-08    2.666252e-01
