# sky130 nfet_01v8 gm/ID Processed Lookup Table
# Corner: tt
# Temperature: 75C
# W = 2.0 um
# L = 5.58 um (5580 nm)
# Columns: gm/id [1/V]  gm/gds [V/V]  id/W [A/m]  ft [Hz]  Cgg/W [F/m]  Cgd/W [F/m]  Cgs/W [F/m]  Vov [V]
#         gm/id          gm/gds            id/W              ft           Cgg/W           Cgd/W           Cgs/W             Vov
    2.322280e+01    2.407891e+02    5.457050e-07    1.652802e+02    1.220315e-08    6.502950e-13    1.500886e-09   -4.860669e-01
    2.322014e+01    2.407615e+02    6.128900e-07    1.854138e+02    1.221589e-08    6.724030e-13    1.559642e-09   -4.810669e-01
    2.321730e+01    2.407324e+02    6.883375e-07    2.079606e+02    1.223072e-08    6.953165e-13    1.620696e-09   -4.760669e-01
    2.321429e+01    2.407016e+02    7.730610e-07    2.332040e+02    1.224767e-08    7.190660e-13    1.684119e-09   -4.710669e-01
    2.321110e+01    2.406692e+02    8.682000e-07    2.614596e+02    1.226680e-08    7.436835e-13    1.749986e-09   -4.660669e-01
    2.320773e+01    2.406347e+02    9.750310e-07    2.930789e+02    1.228816e-08    7.692005e-13    1.818370e-09   -4.610669e-01
    2.320418e+01    2.405981e+02    1.094988e-06    3.284535e+02    1.231181e-08    7.956515e-13    1.889347e-09   -4.560669e-01
    2.320039e+01    2.405595e+02    1.229682e-06    3.680190e+02    1.233781e-08    8.230710e-13    1.962992e-09   -4.510669e-01
    2.319640e+01    2.405187e+02    1.380916e-06    4.122603e+02    1.236621e-08    8.514960e-13    2.039382e-09   -4.460669e-01
    2.319216e+01    2.404756e+02    1.550719e-06    4.617168e+02    1.239706e-08    8.809630e-13    2.118594e-09   -4.410669e-01
    2.318769e+01    2.404300e+02    1.741364e-06    5.169879e+02    1.243045e-08    9.115115e-13    2.200703e-09   -4.360669e-01
    2.318295e+01    2.403817e+02    1.955401e-06    5.787400e+02    1.246640e-08    9.431815e-13    2.285786e-09   -4.310669e-01
    2.317793e+01    2.403307e+02    2.195693e-06    6.477137e+02    1.250499e-08    9.760145e-13    2.373918e-09   -4.260669e-01
    2.317264e+01    2.402769e+02    2.465449e-06    7.247315e+02    1.254627e-08    1.010054e-12    2.465176e-09   -4.210669e-01
    2.316702e+01    2.402199e+02    2.768272e-06    8.107061e+02    1.259029e-08    1.045343e-12    2.559631e-09   -4.160669e-01
    2.316109e+01    2.401600e+02    3.108200e-06    9.066517e+02    1.263710e-08    1.081928e-12    2.657359e-09   -4.110669e-01
    2.315481e+01    2.400965e+02    3.489763e-06    1.013691e+03    1.268679e-08    1.119858e-12    2.758431e-09   -4.060669e-01
    2.314817e+01    2.400295e+02    3.918039e-06    1.133072e+03    1.273937e-08    1.159181e-12    2.862918e-09   -4.010669e-01
    2.314117e+01    2.399589e+02    4.398726e-06    1.266177e+03    1.279493e-08    1.199947e-12    2.970891e-09   -3.960669e-01
    2.313375e+01    2.398842e+02    4.938206e-06    1.414537e+03    1.285349e-08    1.242209e-12    3.082414e-09   -3.910669e-01
    2.312592e+01    2.398054e+02    5.543640e-06    1.579849e+03    1.291513e-08    1.286021e-12    3.197553e-09   -3.860669e-01
    2.311762e+01    2.397224e+02    6.223055e-06    1.763991e+03    1.297988e-08    1.331440e-12    3.316372e-09   -3.810669e-01
    2.310887e+01    2.396349e+02    6.985435e-06    1.969044e+03    1.304778e-08    1.378521e-12    3.438929e-09   -3.760669e-01
    2.309963e+01    2.395426e+02    7.840860e-06    2.197310e+03    1.311890e-08    1.427327e-12    3.565282e-09   -3.710669e-01
    2.308985e+01    2.394455e+02    8.800625e-06    2.451335e+03    1.319326e-08    1.477916e-12    3.695484e-09   -3.660669e-01
    2.307954e+01    2.393430e+02    9.877370e-06    2.733934e+03    1.327091e-08    1.530354e-12    3.829584e-09   -3.610669e-01
    2.306865e+01    2.392352e+02    1.108527e-05    3.048218e+03    1.335189e-08    1.584705e-12    3.967630e-09   -3.560669e-01
    2.305716e+01    2.391217e+02    1.244019e-05    3.397628e+03    1.343622e-08    1.641037e-12    4.109662e-09   -3.510669e-01
    2.304504e+01    2.390023e+02    1.395988e-05    3.785962e+03    1.352394e-08    1.699418e-12    4.255718e-09   -3.460669e-01
    2.303224e+01    2.388768e+02    1.566425e-05    4.217412e+03    1.361507e-08    1.759922e-12    4.405833e-09   -3.410669e-01
    2.301875e+01    2.387449e+02    1.757555e-05    4.696611e+03    1.370965e-08    1.822622e-12    4.560033e-09   -3.360669e-01
    2.300452e+01    2.386063e+02    1.971870e-05    5.228667e+03    1.380768e-08    1.887593e-12    4.718342e-09   -3.310669e-01
    2.298952e+01    2.384608e+02    2.212156e-05    5.819213e+03    1.390918e-08    1.954914e-12    4.880775e-09   -3.260669e-01
    2.297371e+01    2.383082e+02    2.481532e-05    6.474461e+03    1.401418e-08    2.024665e-12    5.047345e-09   -3.210669e-01
    2.295707e+01    2.381483e+02    2.783484e-05    7.201269e+03    1.412266e-08    2.096932e-12    5.218060e-09   -3.160669e-01
    2.293954e+01    2.379806e+02    3.121911e-05    8.007172e+03    1.423463e-08    2.171797e-12    5.392920e-09   -3.110669e-01
    2.292109e+01    2.378051e+02    3.501171e-05    8.900490e+03    1.435009e-08    2.249349e-12    5.571915e-09   -3.060669e-01
    2.290169e+01    2.376216e+02    3.926131e-05    9.890373e+03    1.446904e-08    2.329680e-12    5.755035e-09   -3.010669e-01
    2.288127e+01    2.374296e+02    4.402236e-05    1.098689e+04    1.459146e-08    2.412882e-12    5.942255e-09   -2.960669e-01
    2.285982e+01    2.372293e+02    4.935558e-05    1.220112e+04    1.471734e-08    2.499051e-12    6.133555e-09   -2.910669e-01
    2.283728e+01    2.370202e+02    5.532880e-05    1.354527e+04    1.484664e-08    2.588287e-12    6.328900e-09   -2.860669e-01
    2.281360e+01    2.368024e+02    6.201780e-05    1.503272e+04    1.497934e-08    2.680691e-12    6.528245e-09   -2.810669e-01
    2.278876e+01    2.365757e+02    6.950705e-05    1.667823e+04    1.511541e-08    2.776367e-12    6.731550e-09   -2.760669e-01
    2.276271e+01    2.363401e+02    7.789075e-05    1.849795e+04    1.525480e-08    2.875422e-12    6.938750e-09   -2.710669e-01
    2.273540e+01    2.360955e+02    8.727405e-05    2.050966e+04    1.539747e-08    2.977968e-12    7.149795e-09   -2.660669e-01
    2.270679e+01    2.358418e+02    9.777405e-05    2.273287e+04    1.554337e-08    3.084117e-12    7.364610e-09   -2.610669e-01
    2.267685e+01    2.355794e+02    1.095213e-04    2.518898e+04    1.569244e-08    3.193987e-12    7.583125e-09   -2.560669e-01
    2.264552e+01    2.353082e+02    1.226611e-04    2.790147e+04    1.584464e-08    3.307698e-12    7.805245e-09   -2.510669e-01
    2.261280e+01    2.350285e+02    1.373554e-04    3.089611e+04    1.599986e-08    3.425373e-12    8.030890e-09   -2.460669e-01
    2.257861e+01    2.347407e+02    1.537842e-04    3.420109e+04    1.615806e-08    3.547139e-12    8.259960e-09   -2.410669e-01
    2.254295e+01    2.344452e+02    1.721481e-04    3.784734e+04    1.631916e-08    3.673127e-12    8.492355e-09   -2.360669e-01
    2.250577e+01    2.341425e+02    1.926698e-04    4.186874e+04    1.648306e-08    3.803469e-12    8.727960e-09   -2.310669e-01
    2.246707e+01    2.338333e+02    2.155968e-04    4.630238e+04    1.664967e-08    3.938305e-12    8.966660e-09   -2.260669e-01
    2.242681e+01    2.335184e+02    2.412046e-04    5.118882e+04    1.681892e-08    4.077777e-12    9.208335e-09   -2.210669e-01
    2.238498e+01    2.331988e+02    2.697986e-04    5.657249e+04    1.699070e-08    4.222028e-12    9.452855e-09   -2.160669e-01
    2.234156e+01    2.328755e+02    3.017180e-04    6.250196e+04    1.716489e-08    4.371210e-12    9.700090e-09   -2.110669e-01
    2.229656e+01    2.325500e+02    3.373391e-04    6.903037e+04    1.734141e-08    4.525475e-12    9.949895e-09   -2.060669e-01
    2.224997e+01    2.322236e+02    3.770794e-04    7.621576e+04    1.752014e-08    4.684982e-12    1.020213e-08   -2.010669e-01
    2.220183e+01    2.318984e+02    4.214014e-04    8.412168e+04    1.770096e-08    4.849892e-12    1.045664e-08   -1.960669e-01
    2.215213e+01    2.315762e+02    4.708178e-04    9.281753e+04    1.788375e-08    5.020375e-12    1.071329e-08   -1.910669e-01
    2.210092e+01    2.312591e+02    5.258965e-04    1.023790e+05    1.806840e-08    5.196600e-12    1.097191e-08   -1.860669e-01
    2.204823e+01    2.309502e+02    5.872660e-04    1.128892e+05    1.825478e-08    5.378740e-12    1.123234e-08   -1.810669e-01
    2.199411e+01    2.306518e+02    6.556220e-04    1.244383e+05    1.844276e-08    5.566985e-12    1.149442e-08   -1.760669e-01
    2.193862e+01    2.303673e+02    7.317340e-04    1.371256e+05    1.863221e-08    5.761510e-12    1.175799e-08   -1.710669e-01
    2.188185e+01    2.301004e+02    8.164525e-04    1.510589e+05    1.882300e-08    5.962515e-12    1.202287e-08   -1.660669e-01
    2.182387e+01    2.298547e+02    9.107180e-04    1.663565e+05    1.901500e-08    6.170200e-12    1.228890e-08   -1.610669e-01
    2.176479e+01    2.296348e+02    1.015570e-03    1.831474e+05    1.920807e-08    6.384755e-12    1.255590e-08   -1.560669e-01
    2.170470e+01    2.294452e+02    1.132157e-03    2.015728e+05    1.940209e-08    6.606400e-12    1.282372e-08   -1.510669e-01
    2.164373e+01    2.292909e+02    1.261745e-03    2.217871e+05    1.959690e-08    6.835340e-12    1.309217e-08   -1.460669e-01
    2.158201e+01    2.291775e+02    1.405735e-03    2.439592e+05    1.979239e-08    7.071800e-12    1.336109e-08   -1.410669e-01
    2.151967e+01    2.291110e+02    1.565672e-03    2.682738e+05    1.998841e-08    7.316010e-12    1.363029e-08   -1.360669e-01
    2.145687e+01    2.290975e+02    1.743259e-03    2.949331e+05    2.018482e-08    7.568195e-12    1.389962e-08   -1.310669e-01
    2.139375e+01    2.291438e+02    1.940378e-03    3.241585e+05    2.038150e-08    7.828600e-12    1.416890e-08   -1.260669e-01
    2.133047e+01    2.292571e+02    2.159104e-03    3.561923e+05    2.057831e-08    8.097465e-12    1.443797e-08   -1.210669e-01
    2.126716e+01    2.294447e+02    2.401726e-03    3.913001e+05    2.077510e-08    8.375055e-12    1.470666e-08   -1.160669e-01
    2.120401e+01    2.297147e+02    2.670766e-03    4.297727e+05    2.097178e-08    8.661625e-12    1.497480e-08   -1.110669e-01
    2.114110e+01    2.300747e+02    2.969009e-03    4.719278e+05    2.116818e-08    8.957440e-12    1.524225e-08   -1.060669e-01
    2.107860e+01    2.305335e+02    3.299520e-03    5.181147e+05    2.136420e-08    9.262785e-12    1.550884e-08   -1.010669e-01
    2.101657e+01    2.310994e+02    3.665684e-03    5.687143e+05    2.155971e-08    9.577940e-12    1.577441e-08   -9.606690e-02
    2.095512e+01    2.317809e+02    4.071225e-03    6.241438e+05    2.175458e-08    9.903195e-12    1.603883e-08   -9.106690e-02
    2.089429e+01    2.325870e+02    4.520249e-03    6.848593e+05    2.194870e-08    1.023886e-11    1.630195e-08   -8.606690e-02
    2.083408e+01    2.335260e+02    5.017280e-03    7.513576e+05    2.214196e-08    1.058524e-11    1.656363e-08   -8.106690e-02
    2.077445e+01    2.346061e+02    5.567290e-03    8.241804e+05    2.233425e-08    1.094267e-11    1.682372e-08   -7.606690e-02
    2.071530e+01    2.358355e+02    6.175765e-03    9.039178e+05    2.252544e-08    1.131145e-11    1.708210e-08   -7.106690e-02
    2.065649e+01    2.372218e+02    6.848725e-03    9.912086e+05    2.271546e-08    1.169195e-11    1.733864e-08   -6.606690e-02
    2.059782e+01    2.387720e+02    7.592785e-03    1.086745e+06    2.290418e-08    1.208451e-11    1.759323e-08   -6.106690e-02
    2.053903e+01    2.404923e+02    8.415205e-03    1.191275e+06    2.309153e-08    1.248949e-11    1.784573e-08   -5.606690e-02
    2.047974e+01    2.423881e+02    9.323960e-03    1.305601e+06    2.327739e-08    1.290727e-11    1.809607e-08   -5.106690e-02
    2.041955e+01    2.444636e+02    1.032777e-02    1.430584e+06    2.346170e-08    1.333822e-11    1.834411e-08   -4.606690e-02
    2.035801e+01    2.467220e+02    1.143617e-02    1.567142e+06    2.364436e-08    1.378275e-11    1.858976e-08   -4.106690e-02
    2.029455e+01    2.491649e+02    1.265956e-02    1.716248e+06    2.382530e-08    1.424126e-11    1.883293e-08   -3.606690e-02
    2.022857e+01    2.517928e+02    1.400931e-02    1.878930e+06    2.400444e-08    1.471419e-11    1.907353e-08   -3.106690e-02
    2.015943e+01    2.546039e+02    1.549773e-02    2.056266e+06    2.418172e-08    1.520195e-11    1.931149e-08   -2.606690e-02
    2.008641e+01    2.575953e+02    1.713820e-02    2.249380e+06    2.435706e-08    1.570501e-11    1.954672e-08   -2.106690e-02
    2.000879e+01    2.607617e+02    1.894519e-02    2.459434e+06    2.453041e-08    1.622381e-11    1.977915e-08   -1.606690e-02
    1.992583e+01    2.640962e+02    2.093430e-02    2.687620e+06    2.470171e-08    1.675886e-11    2.000873e-08   -1.106690e-02
    1.983676e+01    2.675898e+02    2.312232e-02    2.935152e+06    2.487091e-08    1.731063e-11    2.023538e-08   -6.066900e-03
    1.974085e+01    2.712313e+02    2.552722e-02    3.203248e+06    2.503796e-08    1.787963e-11    2.045907e-08   -1.066900e-03
    1.963740e+01    2.750078e+02    2.816821e-02    3.493127e+06    2.520282e-08    1.846640e-11    2.067972e-08    3.933100e-03
    1.952572e+01    2.789042e+02    3.106574e-02    3.805980e+06    2.536545e-08    1.907148e-11    2.089732e-08    8.933100e-03
    1.940523e+01    2.829036e+02    3.424145e-02    4.142968e+06    2.552580e-08    1.969542e-11    2.111182e-08    1.393310e-02
    1.927536e+01    2.869871e+02    3.771818e-02    4.505189e+06    2.568387e-08    2.033881e-11    2.132319e-08    1.893310e-02
    1.913568e+01    2.911345e+02    4.151995e-02    4.893675e+06    2.583960e-08    2.100226e-11    2.153139e-08    2.393310e-02
    1.898583e+01    2.953239e+02    4.567185e-02    5.309358e+06    2.599299e-08    2.168637e-11    2.173641e-08    2.893310e-02
    1.882557e+01    2.995323e+02    5.020000e-02    5.753070e+06    2.614402e-08    2.239179e-11    2.193823e-08    3.393310e-02
    1.865474e+01    3.037356e+02    5.513145e-02    6.225501e+06    2.629266e-08    2.311919e-11    2.213683e-08    3.893310e-02
    1.847333e+01    3.079091e+02    6.049405e-02    6.727202e+06    2.643891e-08    2.386923e-11    2.233221e-08    4.393310e-02
    1.828143e+01    3.120275e+02    6.631630e-02    7.258563e+06    2.658275e-08    2.464264e-11    2.252436e-08    4.893310e-02
    1.807920e+01    3.160655e+02    7.262735e-02    7.819792e+06    2.672418e-08    2.544014e-11    2.271328e-08    5.393310e-02
    1.786697e+01    3.199977e+02    7.945660e-02    8.410914e+06    2.686320e-08    2.626250e-11    2.289897e-08    5.893310e-02
    1.764511e+01    3.237993e+02    8.683375e-02    9.031759e+06    2.699981e-08    2.711049e-11    2.308144e-08    6.393310e-02
    1.741413e+01    3.274464e+02    9.478840e-02    9.681955e+06    2.713402e-08    2.798492e-11    2.326070e-08    6.893310e-02
    1.717458e+01    3.309155e+02    1.033501e-01    1.036093e+07    2.726582e-08    2.888664e-11    2.343676e-08    7.393310e-02
    1.692709e+01    3.341851e+02    1.125480e-01    1.106791e+07    2.739522e-08    2.981649e-11    2.360964e-08    7.893310e-02
    1.667236e+01    3.372346e+02    1.224107e-01    1.180192e+07    2.752224e-08    3.077540e-11    2.377936e-08    8.393310e-02
    1.641113e+01    3.400455e+02    1.329659e-01    1.256181e+07    2.764690e-08    3.176429e-11    2.394593e-08    8.893310e-02
    1.614415e+01    3.426007e+02    1.442406e-01    1.334625e+07    2.776921e-08    3.278411e-11    2.410939e-08    9.393310e-02
    1.587221e+01    3.448856e+02    1.562607e-01    1.415375e+07    2.788917e-08    3.383587e-11    2.426976e-08    9.893310e-02
    1.559612e+01    3.468876e+02    1.690506e-01    1.498268e+07    2.800682e-08    3.492058e-11    2.442706e-08    1.039331e-01
    1.531668e+01    3.485958e+02    1.826335e-01    1.583129e+07    2.812218e-08    3.603933e-11    2.458134e-08    1.089331e-01
    1.503468e+01    3.500022e+02    1.970309e-01    1.669771e+07    2.823526e-08    3.719321e-11    2.473262e-08    1.139331e-01
    1.475089e+01    3.511005e+02    2.122628e-01    1.758000e+07    2.834610e-08    3.838336e-11    2.488093e-08    1.189331e-01
    1.446607e+01    3.518871e+02    2.283473e-01    1.847620e+07    2.845471e-08    3.961099e-11    2.502632e-08    1.239331e-01
    1.418095e+01    3.523598e+02    2.453008e-01    1.938425e+07    2.856113e-08    4.087731e-11    2.516882e-08    1.289331e-01
    1.389620e+01    3.525189e+02    2.631378e-01    2.030214e+07    2.866538e-08    4.218361e-11    2.530847e-08    1.339331e-01
    1.361248e+01    3.523669e+02    2.818709e-01    2.122782e+07    2.876750e-08    4.353118e-11    2.544532e-08    1.389331e-01
    1.333039e+01    3.519074e+02    3.015106e-01    2.215932e+07    2.886751e-08    4.492142e-11    2.557939e-08    1.439331e-01
    1.305049e+01    3.511461e+02    3.220660e-01    2.309467e+07    2.896544e-08    4.635573e-11    2.571074e-08    1.489331e-01
    1.277331e+01    3.500901e+02    3.435439e-01    2.403203e+07    2.906133e-08    4.783558e-11    2.583941e-08    1.539331e-01
    1.249932e+01    3.487477e+02    3.659494e-01    2.496958e+07    2.915522e-08    4.936250e-11    2.596544e-08    1.589331e-01
    1.222893e+01    3.471286e+02    3.892859e-01    2.590563e+07    2.924712e-08    5.093805e-11    2.608887e-08    1.639331e-01
    1.196253e+01    3.452434e+02    4.135551e-01    2.683860e+07    2.933708e-08    5.256390e-11    2.620975e-08    1.689331e-01
    1.170045e+01    3.431032e+02    4.387574e-01    2.776699e+07    2.942514e-08    5.424175e-11    2.632814e-08    1.739331e-01
    1.144300e+01    3.407205e+02    4.648911e-01    2.868948e+07    2.951132e-08    5.597335e-11    2.644406e-08    1.789331e-01
    1.119041e+01    3.381075e+02    4.919537e-01    2.960482e+07    2.959566e-08    5.776050e-11    2.655756e-08    1.839331e-01
    1.094290e+01    3.352774e+02    5.199415e-01    3.051192e+07    2.967821e-08    5.960515e-11    2.666870e-08    1.889331e-01
    1.070067e+01    3.322432e+02    5.488485e-01    3.140982e+07    2.975898e-08    6.150920e-11    2.677752e-08    1.939331e-01
    1.046381e+01    3.290179e+02    5.786695e-01    3.229764e+07    2.983802e-08    6.347475e-11    2.688406e-08    1.989331e-01
    1.023248e+01    3.256153e+02    6.093970e-01    3.317468e+07    2.991537e-08    6.550390e-11    2.698837e-08    2.039331e-01
    1.000672e+01    3.220480e+02    6.410230e-01    3.404034e+07    2.999106e-08    6.759890e-11    2.709049e-08    2.089331e-01
    9.786612e+00    3.183294e+02    6.735395e-01    3.489415e+07    3.006513e-08    6.976190e-11    2.719047e-08    2.139331e-01
    9.572168e+00    3.144716e+02    7.069365e-01    3.573569e+07    3.013761e-08    7.199540e-11    2.728836e-08    2.189331e-01
    9.363382e+00    3.104871e+02    7.412055e-01    3.656469e+07    3.020853e-08    7.430180e-11    2.738420e-08    2.239331e-01
    9.160266e+00    3.063880e+02    7.763350e-01    3.738101e+07    3.027794e-08    7.668365e-11    2.747803e-08    2.289331e-01
    8.962762e+00    3.021855e+02    8.123160e-01    3.818453e+07    3.034587e-08    7.914360e-11    2.756990e-08    2.339331e-01
    8.770823e+00    2.978904e+02    8.491375e-01    3.897521e+07    3.041235e-08    8.168440e-11    2.765985e-08    2.389331e-01
    8.584393e+00    2.935136e+02    8.867890e-01    3.975317e+07    3.047743e-08    8.430895e-11    2.774793e-08    2.439331e-01
    8.403388e+00    2.890647e+02    9.252595e-01    4.051848e+07    3.054113e-08    8.702020e-11    2.783417e-08    2.489331e-01
    8.227728e+00    2.845533e+02    9.645385e-01    4.127136e+07    3.060348e-08    8.982120e-11    2.791861e-08    2.539331e-01
    8.057302e+00    2.799880e+02    1.004616e+00    4.201200e+07    3.066453e-08    9.271515e-11    2.800131e-08    2.589331e-01
    7.892016e+00    2.753774e+02    1.045480e+00    4.274072e+07    3.072430e-08    9.570540e-11    2.808229e-08    2.639331e-01
    7.731753e+00    2.707291e+02    1.087122e+00    4.345778e+07    3.078284e-08    9.879540e-11    2.816161e-08    2.689331e-01
