# sky130 pfet_01v8 gm/ID Processed Lookup Table
# Corner: ss
# Temperature: 25C
# W = 2.0 um
# L = 1.62 um (1620 nm)
# Columns: gm/id [1/V]  gm/gds [V/V]  id/W [A/m]  ft [Hz]  Cgg/W [F/m]  Cgd/W [F/m]  Cgs/W [F/m]  Vov [V]
#         gm/id          gm/gds            id/W              ft           Cgg/W           Cgd/W           Cgs/W             Vov
    2.158494e+00    5.653875e+00    1.018315e+01    3.677854e+08    9.511710e-09    5.631625e-10    8.834980e-09   -2.837144e+00
    2.181134e+00    5.865462e+00    1.007327e+01    3.681582e+08    9.498140e-09    5.455970e-10    8.834380e-09   -2.832144e+00
    2.204013e+00    6.088593e+00    9.963445e+00    3.684819e+08    9.484790e-09    5.284640e-10    8.833600e-09   -2.827144e+00
    2.227127e+00    6.323930e+00    9.853680e+00    3.687547e+08    9.471660e-09    5.117605e-10    8.832630e-09   -2.822144e+00
    2.250470e+00    6.572161e+00    9.743995e+00    3.689747e+08    9.458750e-09    4.954855e-10    8.831485e-09   -2.817144e+00
    2.274036e+00    6.834001e+00    9.634400e+00    3.691405e+08    9.446055e-09    4.796349e-10    8.830155e-09   -2.812144e+00
    2.297822e+00    7.110190e+00    9.524910e+00    3.692503e+08    9.433580e-09    4.642056e-10    8.828650e-09   -2.807144e+00
    2.321820e+00    7.401488e+00    9.415540e+00    3.693026e+08    9.421315e-09    4.491934e-10    8.826965e-09   -2.802144e+00
    2.346028e+00    7.708680e+00    9.306300e+00    3.692962e+08    9.409260e-09    4.345938e-10    8.825110e-09   -2.797144e+00
    2.370437e+00    8.032566e+00    9.197215e+00    3.692296e+08    9.397415e-09    4.204018e-10    8.823085e-09   -2.792144e+00
    2.395044e+00    8.373967e+00    9.088295e+00    3.691014e+08    9.385780e-09    4.066120e-10    8.820885e-09   -2.787144e+00
    2.419847e+00    8.733710e+00    8.979550e+00    3.689110e+08    9.374345e-09    3.932186e-10    8.818525e-09   -2.782144e+00
    2.444835e+00    9.112642e+00    8.871010e+00    3.686572e+08    9.363110e-09    3.802155e-10    8.815995e-09   -2.777144e+00
    2.470012e+00    9.511605e+00    8.762675e+00    3.683395e+08    9.352065e-09    3.675962e-10    8.813300e-09   -2.772144e+00
    2.495369e+00    9.931459e+00    8.654575e+00    3.679571e+08    9.341215e-09    3.553541e-10    8.810450e-09   -2.767144e+00
    2.520906e+00    1.037305e+01    8.546720e+00    3.675096e+08    9.330555e-09    3.434821e-10    8.807440e-09   -2.762144e+00
    2.546621e+00    1.083723e+01    8.439125e+00    3.669969e+08    9.320075e-09    3.319730e-10    8.804275e-09   -2.757144e+00
    2.572512e+00    1.132483e+01    8.331810e+00    3.664188e+08    9.309775e-09    3.208195e-10    8.800955e-09   -2.752144e+00
    2.598580e+00    1.183669e+01    8.224795e+00    3.657757e+08    9.299645e-09    3.100140e-10    8.797480e-09   -2.747144e+00
    2.624824e+00    1.237362e+01    8.118090e+00    3.650676e+08    9.289685e-09    2.995487e-10    8.793855e-09   -2.742144e+00
    2.651248e+00    1.293641e+01    8.011715e+00    3.642951e+08    9.279885e-09    2.894161e-10    8.790085e-09   -2.737144e+00
    2.677853e+00    1.352584e+01    7.905685e+00    3.634587e+08    9.270245e-09    2.796082e-10    8.786170e-09   -2.732144e+00
    2.704643e+00    1.414266e+01    7.800015e+00    3.625593e+08    9.260755e-09    2.701171e-10    8.782110e-09   -2.727144e+00
    2.731621e+00    1.478758e+01    7.694725e+00    3.615976e+08    9.251415e-09    2.609348e-10    8.777905e-09   -2.722144e+00
    2.758794e+00    1.546130e+01    7.589830e+00    3.605748e+08    9.242215e-09    2.520534e-10    8.773560e-09   -2.717144e+00
    2.786167e+00    1.616449e+01    7.485345e+00    3.594920e+08    9.233150e-09    2.434649e-10    8.769075e-09   -2.712144e+00
    2.813749e+00    1.689777e+01    7.381280e+00    3.583503e+08    9.224215e-09    2.351614e-10    8.764450e-09   -2.707144e+00
    2.841545e+00    1.766175e+01    7.277660e+00    3.571512e+08    9.215400e-09    2.271350e-10    8.759690e-09   -2.702144e+00
    2.869566e+00    1.845700e+01    7.174490e+00    3.558959e+08    9.206710e-09    2.193780e-10    8.754790e-09   -2.697144e+00
    2.897824e+00    1.928405e+01    7.071785e+00    3.545860e+08    9.198130e-09    2.118825e-10    8.749760e-09   -2.692144e+00
    2.926323e+00    2.014342e+01    6.969565e+00    3.532229e+08    9.189655e-09    2.046410e-10    8.744590e-09   -2.687144e+00
    2.955079e+00    2.103557e+01    6.867840e+00    3.518084e+08    9.181280e-09    1.976457e-10    8.739290e-09   -2.682144e+00
    2.984102e+00    2.196095e+01    6.766620e+00    3.503436e+08    9.173000e-09    1.908895e-10    8.733855e-09   -2.677144e+00
    3.013406e+00    2.292002e+01    6.665920e+00    3.488304e+08    9.164810e-09    1.843648e-10    8.728290e-09   -2.672144e+00
    3.043001e+00    2.391314e+01    6.565750e+00    3.472703e+08    9.156700e-09    1.780645e-10    8.722590e-09   -2.667144e+00
    3.072902e+00    2.494070e+01    6.466125e+00    3.456647e+08    9.148670e-09    1.719814e-10    8.716760e-09   -2.662144e+00
    3.103121e+00    2.600308e+01    6.367060e+00    3.440155e+08    9.140705e-09    1.661088e-10    8.710795e-09   -2.657144e+00
    3.133675e+00    2.710064e+01    6.268555e+00    3.423238e+08    9.132810e-09    1.604398e-10    8.704700e-09   -2.652144e+00
    3.164580e+00    2.823369e+01    6.170625e+00    3.405914e+08    9.124975e-09    1.549677e-10    8.698470e-09   -2.647144e+00
    3.195848e+00    2.940256e+01    6.073280e+00    3.388196e+08    9.117190e-09    1.496863e-10    8.692105e-09   -2.642144e+00
    3.227494e+00    3.060760e+01    5.976535e+00    3.370101e+08    9.109450e-09    1.445889e-10    8.685610e-09   -2.637144e+00
    3.259534e+00    3.184911e+01    5.880395e+00    3.351638e+08    9.101755e-09    1.396696e-10    8.678980e-09   -2.632144e+00
    3.291990e+00    3.312745e+01    5.784865e+00    3.332824e+08    9.094095e-09    1.349222e-10    8.672210e-09   -2.627144e+00
    3.324872e+00    3.444291e+01    5.689960e+00    3.313673e+08    9.086460e-09    1.303411e-10    8.665305e-09   -2.622144e+00
    3.358201e+00    3.579587e+01    5.595685e+00    3.294194e+08    9.078850e-09    1.259203e-10    8.658260e-09   -2.617144e+00
    3.391995e+00    3.718667e+01    5.502045e+00    3.274401e+08    9.071260e-09    1.216546e-10    8.651075e-09   -2.612144e+00
    3.426269e+00    3.861564e+01    5.409055e+00    3.254306e+08    9.063680e-09    1.175385e-10    8.643750e-09   -2.607144e+00
    3.461041e+00    4.008321e+01    5.316720e+00    3.233919e+08    9.056105e-09    1.135667e-10    8.636280e-09   -2.602144e+00
    3.496332e+00    4.158975e+01    5.225045e+00    3.213254e+08    9.048525e-09    1.097343e-10    8.628665e-09   -2.597144e+00
    3.532159e+00    4.313571e+01    5.134040e+00    3.192315e+08    9.040945e-09    1.060363e-10    8.620900e-09   -2.592144e+00
    3.568545e+00    4.472152e+01    5.043705e+00    3.171116e+08    9.033350e-09    1.024680e-10    8.612985e-09   -2.587144e+00
    3.605507e+00    4.634766e+01    4.954054e+00    3.149667e+08    9.025735e-09    9.902470e-11    8.604915e-09   -2.582144e+00
    3.643066e+00    4.801465e+01    4.865088e+00    3.127972e+08    9.018100e-09    9.570210e-11    8.596695e-09   -2.577144e+00
    3.681244e+00    4.972303e+01    4.776817e+00    3.106046e+08    9.010430e-09    9.249590e-11    8.588310e-09   -2.572144e+00
    3.720061e+00    5.147335e+01    4.689244e+00    3.083890e+08    9.002730e-09    8.940180e-11    8.579770e-09   -2.567144e+00
    3.759541e+00    5.326626e+01    4.602376e+00    3.061518e+08    8.994980e-09    8.641590e-11    8.571060e-09   -2.562144e+00
    3.799704e+00    5.510237e+01    4.516217e+00    3.038933e+08    8.987185e-09    8.353430e-11    8.562180e-09   -2.557144e+00
    3.840576e+00    5.698238e+01    4.430775e+00    3.016143e+08    8.979335e-09    8.075315e-11    8.553130e-09   -2.552144e+00
    3.882179e+00    5.890703e+01    4.346052e+00    2.993156e+08    8.971420e-09    7.806895e-11    8.543900e-09   -2.547144e+00
    3.924536e+00    6.087708e+01    4.262055e+00    2.969975e+08    8.963440e-09    7.547815e-11    8.534490e-09   -2.542144e+00
    3.967677e+00    6.289337e+01    4.178788e+00    2.946607e+08    8.955390e-09    7.297735e-11    8.524895e-09   -2.537144e+00
    4.011625e+00    6.495674e+01    4.096255e+00    2.923060e+08    8.947255e-09    7.056330e-11    8.515110e-09   -2.532144e+00
    4.056407e+00    6.706814e+01    4.014463e+00    2.899335e+08    8.939035e-09    6.823290e-11    8.505130e-09   -2.527144e+00
    4.102051e+00    6.922850e+01    3.933414e+00    2.875440e+08    8.930720e-09    6.598310e-11    8.494950e-09   -2.522144e+00
    4.148587e+00    7.143888e+01    3.853114e+00    2.851380e+08    8.922305e-09    6.381095e-11    8.484565e-09   -2.517144e+00
    4.196040e+00    7.370030e+01    3.773566e+00    2.827155e+08    8.913785e-09    6.171365e-11    8.473970e-09   -2.512144e+00
    4.244446e+00    7.601395e+01    3.694775e+00    2.802772e+08    8.905150e-09    5.968850e-11    8.463160e-09   -2.507144e+00
    4.293832e+00    7.838096e+01    3.616745e+00    2.778235e+08    8.896395e-09    5.773285e-11    8.452125e-09   -2.502144e+00
    4.344234e+00    8.080261e+01    3.539479e+00    2.753548e+08    8.887510e-09    5.584425e-11    8.440860e-09   -2.497144e+00
    4.395682e+00    8.328019e+01    3.462983e+00    2.728711e+08    8.878490e-09    5.402020e-11    8.429360e-09   -2.492144e+00
    4.448214e+00    8.581509e+01    3.387259e+00    2.703730e+08    8.869330e-09    5.225840e-11    8.417620e-09   -2.487144e+00
    4.501864e+00    8.840871e+01    3.312311e+00    2.678607e+08    8.860020e-09    5.055660e-11    8.405625e-09   -2.482144e+00
    4.556670e+00    9.106263e+01    3.238144e+00    2.653345e+08    8.850550e-09    4.891264e-11    8.393380e-09   -2.477144e+00
    4.612671e+00    9.377834e+01    3.164761e+00    2.627945e+08    8.840915e-09    4.732441e-11    8.380865e-09   -2.472144e+00
    4.669905e+00    9.655753e+01    3.092166e+00    2.602410e+08    8.831110e-09    4.578991e-11    8.368080e-09   -2.467144e+00
    4.728415e+00    9.940188e+01    3.020361e+00    2.576741e+08    8.821120e-09    4.430721e-11    8.355020e-09   -2.462144e+00
    4.788242e+00    1.023132e+02    2.949352e+00    2.550940e+08    8.810945e-09    4.287443e-11    8.341665e-09   -2.457144e+00
    4.849432e+00    1.052933e+02    2.879140e+00    2.525010e+08    8.800570e-09    4.148982e-11    8.328015e-09   -2.452144e+00
    4.912032e+00    1.083442e+02    2.809731e+00    2.498951e+08    8.789985e-09    4.015161e-11    8.314055e-09   -2.447144e+00
    4.976084e+00    1.114679e+02    2.741127e+00    2.472763e+08    8.779190e-09    3.885817e-11    8.299785e-09   -2.442144e+00
    5.041643e+00    1.146665e+02    2.673331e+00    2.446449e+08    8.768165e-09    3.760788e-11    8.285185e-09   -2.437144e+00
    5.108759e+00    1.179423e+02    2.606348e+00    2.420007e+08    8.756915e-09    3.639921e-11    8.270255e-09   -2.432144e+00
    5.177482e+00    1.212974e+02    2.540180e+00    2.393441e+08    8.745415e-09    3.523069e-11    8.254975e-09   -2.427144e+00
    5.247868e+00    1.247343e+02    2.474832e+00    2.366749e+08    8.733665e-09    3.410090e-11    8.239340e-09   -2.422144e+00
    5.319973e+00    1.282553e+02    2.410306e+00    2.339929e+08    8.721655e-09    3.300844e-11    8.223335e-09   -2.417144e+00
    5.393858e+00    1.318632e+02    2.346605e+00    2.312984e+08    8.709375e-09    3.195202e-11    8.206955e-09   -2.412144e+00
    5.469582e+00    1.355603e+02    2.283734e+00    2.285913e+08    8.696810e-09    3.093034e-11    8.190185e-09   -2.407144e+00
    5.547207e+00    1.393497e+02    2.221696e+00    2.258715e+08    8.683955e-09    2.994221e-11    8.173015e-09   -2.402144e+00
    5.626799e+00    1.432340e+02    2.160493e+00    2.231390e+08    8.670795e-09    2.898644e-11    8.155430e-09   -2.397144e+00
    5.708423e+00    1.472161e+02    2.100130e+00    2.203935e+08    8.657325e-09    2.806189e-11    8.137415e-09   -2.392144e+00
    5.792150e+00    1.512992e+02    2.040610e+00    2.176350e+08    8.643530e-09    2.716749e-11    8.118965e-09   -2.387144e+00
    5.878053e+00    1.554863e+02    1.981936e+00    2.148636e+08    8.629395e-09    2.630216e-11    8.100060e-09   -2.382144e+00
    5.966203e+00    1.597805e+02    1.924112e+00    2.120787e+08    8.614920e-09    2.546492e-11    8.080690e-09   -2.377144e+00
    6.056676e+00    1.641853e+02    1.867141e+00    2.092806e+08    8.600080e-09    2.465478e-11    8.060840e-09   -2.372144e+00
    6.149550e+00    1.687040e+02    1.811026e+00    2.064687e+08    8.584875e-09    2.387082e-11    8.040495e-09   -2.367144e+00
    6.244905e+00    1.733400e+02    1.755772e+00    2.036430e+08    8.569285e-09    2.311213e-11    8.019645e-09   -2.362144e+00
    6.342827e+00    1.780970e+02    1.701381e+00    2.008033e+08    8.553300e-09    2.237783e-11    7.998265e-09   -2.357144e+00
    6.443397e+00    1.829784e+02    1.647857e+00    1.979494e+08    8.536905e-09    2.166711e-11    7.976350e-09   -2.352144e+00
    6.546705e+00    1.879882e+02    1.595204e+00    1.950810e+08    8.520090e-09    2.097915e-11    7.953880e-09   -2.347144e+00
    6.652837e+00    1.931300e+02    1.543425e+00    1.921977e+08    8.502845e-09    2.031317e-11    7.930840e-09   -2.342144e+00
    6.761881e+00    1.984076e+02    1.492524e+00    1.892994e+08    8.485155e-09    1.966844e-11    7.907210e-09   -2.337144e+00
    6.873938e+00    2.038250e+02    1.442503e+00    1.863859e+08    8.467000e-09    1.904423e-11    7.882980e-09   -2.332144e+00
    6.989094e+00    2.093859e+02    1.393368e+00    1.834567e+08    8.448375e-09    1.843986e-11    7.858130e-09   -2.327144e+00
    7.107446e+00    2.150942e+02    1.345121e+00    1.805117e+08    8.429265e-09    1.785464e-11    7.832640e-09   -2.322144e+00
    7.229095e+00    2.209540e+02    1.297766e+00    1.775507e+08    8.409650e-09    1.728796e-11    7.806495e-09   -2.317144e+00
    7.354127e+00    2.269688e+02    1.251306e+00    1.745731e+08    8.389525e-09    1.673918e-11    7.779685e-09   -2.312144e+00
    7.482650e+00    2.331427e+02    1.205744e+00    1.715789e+08    8.368870e-09    1.620771e-11    7.752180e-09   -2.307144e+00
    7.614753e+00    2.394792e+02    1.161085e+00    1.685678e+08    8.347670e-09    1.569298e-11    7.723970e-09   -2.302144e+00
    7.750533e+00    2.459820e+02    1.117332e+00    1.655397e+08    8.325910e-09    1.519442e-11    7.695030e-09   -2.297144e+00
    7.890086e+00    2.526545e+02    1.074487e+00    1.624941e+08    8.303580e-09    1.471152e-11    7.665350e-09   -2.292144e+00
    8.033508e+00    2.595001e+02    1.032555e+00    1.594311e+08    8.280665e-09    1.424374e-11    7.634905e-09   -2.287144e+00
    8.180886e+00    2.665217e+02    9.915375e-01    1.563506e+08    8.257150e-09    1.379061e-11    7.603680e-09   -2.282144e+00
    8.332305e+00    2.737220e+02    9.514390e-01    1.532524e+08    8.233015e-09    1.335163e-11    7.571655e-09   -2.277144e+00
    8.487841e+00    2.811033e+02    9.122620e-01    1.501365e+08    8.208250e-09    1.292636e-11    7.538810e-09   -2.272144e+00
    8.647588e+00    2.886678e+02    8.740085e-01    1.470031e+08    8.182845e-09    1.251434e-11    7.505130e-09   -2.267144e+00
    8.811592e+00    2.964166e+02    8.366820e-01    1.438522e+08    8.156775e-09    1.211514e-11    7.470595e-09   -2.262144e+00
    8.979925e+00    3.043510e+02    8.002845e-01    1.406840e+08    8.130035e-09    1.172836e-11    7.435180e-09   -2.257144e+00
    9.152648e+00    3.124711e+02    7.648175e-01    1.374992e+08    8.102605e-09    1.135360e-11    7.398875e-09   -2.252144e+00
    9.329774e+00    3.207765e+02    7.302840e-01    1.342978e+08    8.074475e-09    1.099046e-11    7.361660e-09   -2.247144e+00
    9.511350e+00    3.292659e+02    6.966845e-01    1.310806e+08    8.045630e-09    1.063859e-11    7.323515e-09   -2.242144e+00
    9.697381e+00    3.379369e+02    6.640200e-01    1.278484e+08    8.016050e-09    1.029761e-11    7.284425e-09   -2.237144e+00
    9.887860e+00    3.467868e+02    6.322920e-01    1.246021e+08    7.985735e-09    9.967190e-12    7.244370e-09   -2.232144e+00
    1.008277e+01    3.558110e+02    6.015000e-01    1.213428e+08    7.954660e-09    9.646995e-12    7.203330e-09   -2.227144e+00
    1.028205e+01    3.650038e+02    5.716440e-01    1.180716e+08    7.922820e-09    9.336700e-12    7.161295e-09   -2.222144e+00
    1.048563e+01    3.743580e+02    5.427230e-01    1.147902e+08    7.890200e-09    9.035995e-12    7.118245e-09   -2.217144e+00
    1.069341e+01    3.838654e+02    5.147355e-01    1.115002e+08    7.856785e-09    8.744580e-12    7.074165e-09   -2.212144e+00
    1.090529e+01    3.935161e+02    4.876792e-01    1.082037e+08    7.822570e-09    8.462160e-12    7.029040e-09   -2.207144e+00
    1.112108e+01    4.032974e+02    4.615515e-01    1.049027e+08    7.787545e-09    8.188465e-12    6.982860e-09   -2.202144e+00
    1.134061e+01    4.131968e+02    4.363483e-01    1.015998e+08    7.751700e-09    7.923220e-12    6.935605e-09   -2.197144e+00
    1.156363e+01    4.231979e+02    4.120652e-01    9.829770e+07    7.715020e-09    7.666165e-12    6.887270e-09   -2.192144e+00
    1.178989e+01    4.332834e+02    3.886966e-01    9.499934e+07    7.677505e-09    7.417040e-12    6.837835e-09   -2.187144e+00
    1.201908e+01    4.434335e+02    3.662360e-01    9.170812e+07    7.639140e-09    7.175610e-12    6.787300e-09   -2.182144e+00
    1.225084e+01    4.536263e+02    3.446757e-01    8.842745e+07    7.599930e-09    6.941640e-12    6.735650e-09   -2.177144e+00
    1.248478e+01    4.638383e+02    3.240072e-01    8.516125e+07    7.559860e-09    6.714895e-12    6.682875e-09   -2.172144e+00
    1.272047e+01    4.740431e+02    3.042206e-01    8.191358e+07    7.518930e-09    6.495160e-12    6.628975e-09   -2.167144e+00
    1.295741e+01    4.842126e+02    2.853051e-01    7.868870e+07    7.477140e-09    6.282220e-12    6.573940e-09   -2.162144e+00
    1.319509e+01    4.943171e+02    2.672482e-01    7.549127e+07    7.434480e-09    6.075875e-12    6.517770e-09   -2.157144e+00
    1.343293e+01    5.043248e+02    2.500367e-01    7.232588e+07    7.390960e-09    5.875915e-12    6.460460e-09   -2.152144e+00
    1.367031e+01    5.142021e+02    2.336558e-01    6.919750e+07    7.346575e-09    5.682150e-12    6.402010e-09   -2.147144e+00
    1.390660e+01    5.239151e+02    2.180897e-01    6.611110e+07    7.301330e-09    5.494400e-12    6.342425e-09   -2.142144e+00
    1.414111e+01    5.334276e+02    2.033211e-01    6.307174e+07    7.255230e-09    5.312480e-12    6.281710e-09   -2.137144e+00
    1.437313e+01    5.427035e+02    1.893315e-01    6.008458e+07    7.208275e-09    5.136215e-12    6.219865e-09   -2.132144e+00
    1.460193e+01    5.517071e+02    1.761014e-01    5.715460e+07    7.160480e-09    4.965438e-12    6.156900e-09   -2.127144e+00
    1.482677e+01    5.604018e+02    1.636102e-01    5.428681e+07    7.111850e-09    4.799983e-12    6.092825e-09   -2.122144e+00
    1.504689e+01    5.687527e+02    1.518359e-01    5.148603e+07    7.062395e-09    4.639692e-12    6.027650e-09   -2.117144e+00
    1.526156e+01    5.767258e+02    1.407559e-01    4.875684e+07    7.012130e-09    4.484411e-12    5.961390e-09   -2.112144e+00
    1.547005e+01    5.842899e+02    1.303463e-01    4.610360e+07    6.961070e-09    4.333991e-12    5.894060e-09   -2.107144e+00
    1.567167e+01    5.914156e+02    1.205829e-01    4.353030e+07    6.909230e-09    4.188290e-12    5.825685e-09   -2.102144e+00
    1.586574e+01    5.980767e+02    1.114405e-01    4.104057e+07    6.856625e-09    4.047166e-12    5.756280e-09   -2.097144e+00
    1.605167e+01    6.042510e+02    1.028934e-01    3.863757e+07    6.803280e-09    3.910483e-12    5.685870e-09   -2.092144e+00
    1.622890e+01    6.099205e+02    9.491570e-02    3.632403e+07    6.749215e-09    3.778112e-12    5.614485e-09   -2.087144e+00
    1.639697e+01    6.150717e+02    8.748090e-02    3.410218e+07    6.694450e-09    3.649922e-12    5.542145e-09   -2.082144e+00
