# sky130 pfet_01v8 gm/ID Processed Lookup Table
# Corner: ss
# Temperature: 25C
# W = 2.0 um
# L = 0.54 um (540 nm)
# Columns: gm/id [1/V]  gm/gds [V/V]  id/W [A/m]  ft [Hz]  Cgg/W [F/m]  Cgd/W [F/m]  Cgs/W [F/m]  Vov [V]
#         gm/id          gm/gds            id/W              ft           Cgg/W           Cgd/W           Cgs/W             Vov
    1.920724e+00    3.670109e+00    3.004811e+01    2.760389e+09    3.327609e-09    1.482945e-10    3.153187e-09   -2.795690e+00
    1.940320e+00    3.770599e+00    2.975947e+01    2.764741e+09    3.324026e-09    1.436669e-10    3.153045e-09   -2.790690e+00
    1.960171e+00    3.875344e+00    2.947069e+01    2.768861e+09    3.320499e-09    1.391581e-10    3.152846e-09   -2.785690e+00
    1.980275e+00    3.984536e+00    2.918180e+01    2.772738e+09    3.317027e-09    1.347667e-10    3.152593e-09   -2.780690e+00
    2.000632e+00    4.098379e+00    2.889282e+01    2.776361e+09    3.313610e-09    1.304911e-10    3.152285e-09   -2.775690e+00
    2.021242e+00    4.217083e+00    2.860377e+01    2.779723e+09    3.310246e-09    1.263296e-10    3.151925e-09   -2.770690e+00
    2.042104e+00    4.340861e+00    2.831468e+01    2.782811e+09    3.306936e-09    1.222808e-10    3.151511e-09   -2.765690e+00
    2.063216e+00    4.469932e+00    2.802557e+01    2.785619e+09    3.303677e-09    1.183427e-10    3.151045e-09   -2.760690e+00
    2.084578e+00    4.604520e+00    2.773646e+01    2.788133e+09    3.300469e-09    1.145135e-10    3.150527e-09   -2.755690e+00
    2.106186e+00    4.744847e+00    2.744739e+01    2.790345e+09    3.297311e-09    1.107913e-10    3.149959e-09   -2.750690e+00
    2.128038e+00    4.891138e+00    2.715837e+01    2.792242e+09    3.294202e-09    1.071742e-10    3.149340e-09   -2.745690e+00
    2.150135e+00    5.043626e+00    2.686946e+01    2.793820e+09    3.291140e-09    1.036602e-10    3.148673e-09   -2.740690e+00
    2.172471e+00    5.202533e+00    2.658066e+01    2.795063e+09    3.288124e-09    1.002473e-10    3.147956e-09   -2.735690e+00
    2.195045e+00    5.368088e+00    2.629201e+01    2.795965e+09    3.285153e-09    9.693335e-11    3.147192e-09   -2.730690e+00
    2.217853e+00    5.540510e+00    2.600354e+01    2.796514e+09    3.282227e-09    9.371645e-11    3.146380e-09   -2.725690e+00
    2.240895e+00    5.720019e+00    2.571530e+01    2.796705e+09    3.279342e-09    9.059435e-11    3.145521e-09   -2.720690e+00
    2.264166e+00    5.906823e+00    2.542731e+01    2.796525e+09    3.276499e-09    8.756500e-11    3.144617e-09   -2.715690e+00
    2.287664e+00    6.101129e+00    2.513959e+01    2.795969e+09    3.273696e-09    8.462625e-11    3.143666e-09   -2.710690e+00
    2.311386e+00    6.303131e+00    2.485221e+01    2.795028e+09    3.270932e-09    8.177595e-11    3.142671e-09   -2.705690e+00
    2.335330e+00    6.513010e+00    2.456518e+01    2.793696e+09    3.268204e-09    7.901205e-11    3.141632e-09   -2.700690e+00
    2.359493e+00    6.730937e+00    2.427854e+01    2.791966e+09    3.265513e-09    7.633240e-11    3.140549e-09   -2.695690e+00
    2.383874e+00    6.957070e+00    2.399234e+01    2.789832e+09    3.262856e-09    7.373485e-11    3.139423e-09   -2.690690e+00
    2.408472e+00    7.191559e+00    2.370661e+01    2.787293e+09    3.260232e-09    7.121730e-11    3.138253e-09   -2.685690e+00
    2.433285e+00    7.434523e+00    2.342139e+01    2.784343e+09    3.257639e-09    6.877770e-11    3.137042e-09   -2.680690e+00
    2.458314e+00    7.686080e+00    2.313671e+01    2.780981e+09    3.255076e-09    6.641400e-11    3.135788e-09   -2.675690e+00
    2.483555e+00    7.946314e+00    2.285262e+01    2.777200e+09    3.252542e-09    6.412410e-11    3.134493e-09   -2.670690e+00
    2.509014e+00    8.215308e+00    2.256917e+01    2.773005e+09    3.250035e-09    6.190600e-11    3.133156e-09   -2.665690e+00
    2.534690e+00    8.493119e+00    2.228637e+01    2.768394e+09    3.247555e-09    5.975775e-11    3.131779e-09   -2.660690e+00
    2.560583e+00    8.779780e+00    2.200429e+01    2.763366e+09    3.245098e-09    5.767730e-11    3.130361e-09   -2.655690e+00
    2.586697e+00    9.075319e+00    2.172295e+01    2.757926e+09    3.242664e-09    5.566280e-11    3.128903e-09   -2.650690e+00
    2.613038e+00    9.379759e+00    2.144240e+01    2.752076e+09    3.240252e-09    5.371230e-11    3.127404e-09   -2.645690e+00
    2.639606e+00    9.693059e+00    2.116267e+01    2.745817e+09    3.237860e-09    5.182395e-11    3.125866e-09   -2.640690e+00
    2.666407e+00    1.001521e+01    2.088380e+01    2.739155e+09    3.235486e-09    4.999594e-11    3.124287e-09   -2.635690e+00
    2.693446e+00    1.034617e+01    2.060583e+01    2.732094e+09    3.233129e-09    4.822644e-11    3.122669e-09   -2.630690e+00
    2.720731e+00    1.068590e+01    2.032880e+01    2.724640e+09    3.230787e-09    4.651372e-11    3.121011e-09   -2.625690e+00
    2.748269e+00    1.103434e+01    2.005275e+01    2.716801e+09    3.228460e-09    4.485604e-11    3.119313e-09   -2.620690e+00
    2.776065e+00    1.139142e+01    1.977771e+01    2.708581e+09    3.226145e-09    4.325172e-11    3.117577e-09   -2.615690e+00
    2.804127e+00    1.175705e+01    1.950372e+01    2.699986e+09    3.223842e-09    4.169914e-11    3.115800e-09   -2.610690e+00
    2.832467e+00    1.213117e+01    1.923081e+01    2.691027e+09    3.221548e-09    4.019668e-11    3.113983e-09   -2.605690e+00
    2.861094e+00    1.251370e+01    1.895903e+01    2.681710e+09    3.219263e-09    3.874277e-11    3.112126e-09   -2.600690e+00
    2.890014e+00    1.290453e+01    1.868839e+01    2.672040e+09    3.216984e-09    3.733590e-11    3.110229e-09   -2.595690e+00
    2.919242e+00    1.330361e+01    1.841894e+01    2.662031e+09    3.214711e-09    3.597459e-11    3.108291e-09   -2.590690e+00
    2.948789e+00    1.371084e+01    1.815070e+01    2.651686e+09    3.212441e-09    3.465737e-11    3.106312e-09   -2.585690e+00
    2.978666e+00    1.412616e+01    1.788373e+01    2.641018e+09    3.210174e-09    3.338286e-11    3.104293e-09   -2.580690e+00
    3.008885e+00    1.454948e+01    1.761802e+01    2.630032e+09    3.207908e-09    3.214968e-11    3.102232e-09   -2.575690e+00
    3.039457e+00    1.498074e+01    1.735363e+01    2.618735e+09    3.205641e-09    3.095650e-11    3.100129e-09   -2.570690e+00
    3.070397e+00    1.541989e+01    1.709058e+01    2.607138e+09    3.203372e-09    2.980202e-11    3.097984e-09   -2.565690e+00
    3.101721e+00    1.586687e+01    1.682888e+01    2.595248e+09    3.201100e-09    2.868500e-11    3.095796e-09   -2.560690e+00
    3.133440e+00    1.632166e+01    1.656859e+01    2.583075e+09    3.198823e-09    2.760423e-11    3.093565e-09   -2.555690e+00
    3.165567e+00    1.678420e+01    1.630973e+01    2.570624e+09    3.196539e-09    2.655850e-11    3.091289e-09   -2.550690e+00
    3.198122e+00    1.725450e+01    1.605231e+01    2.557904e+09    3.194247e-09    2.554668e-11    3.088969e-09   -2.545690e+00
    3.231114e+00    1.773251e+01    1.579637e+01    2.544920e+09    3.191946e-09    2.456767e-11    3.086603e-09   -2.540690e+00
    3.264564e+00    1.821828e+01    1.554192e+01    2.531683e+09    3.189633e-09    2.362037e-11    3.084191e-09   -2.535690e+00
    3.298490e+00    1.871182e+01    1.528899e+01    2.518200e+09    3.187308e-09    2.270375e-11    3.081733e-09   -2.530690e+00
    3.332901e+00    1.921312e+01    1.503762e+01    2.504474e+09    3.184969e-09    2.181680e-11    3.079227e-09   -2.525690e+00
    3.367820e+00    1.972225e+01    1.478782e+01    2.490515e+09    3.182613e-09    2.095855e-11    3.076672e-09   -2.520690e+00
    3.403264e+00    2.023925e+01    1.453960e+01    2.476328e+09    3.180241e-09    2.012803e-11    3.074067e-09   -2.515690e+00
    3.439249e+00    2.076418e+01    1.429300e+01    2.461920e+09    3.177849e-09    1.932434e-11    3.071411e-09   -2.510690e+00
    3.475795e+00    2.129712e+01    1.404804e+01    2.447295e+09    3.175437e-09    1.854658e-11    3.068704e-09   -2.505690e+00
    3.512919e+00    2.183815e+01    1.380473e+01    2.432460e+09    3.173003e-09    1.779391e-11    3.065944e-09   -2.500690e+00
    3.550644e+00    2.238737e+01    1.356310e+01    2.417421e+09    3.170544e-09    1.706550e-11    3.063129e-09   -2.495690e+00
    3.588988e+00    2.294487e+01    1.332315e+01    2.402182e+09    3.168060e-09    1.636054e-11    3.060259e-09   -2.490690e+00
    3.627971e+00    2.351080e+01    1.308493e+01    2.386748e+09    3.165548e-09    1.567825e-11    3.057332e-09   -2.485690e+00
    3.667616e+00    2.408527e+01    1.284845e+01    2.371124e+09    3.163008e-09    1.501788e-11    3.054348e-09   -2.480690e+00
    3.707943e+00    2.466843e+01    1.261371e+01    2.355315e+09    3.160436e-09    1.437871e-11    3.051303e-09   -2.475690e+00
    3.748977e+00    2.526042e+01    1.238074e+01    2.339325e+09    3.157831e-09    1.376005e-11    3.048198e-09   -2.470690e+00
    3.790737e+00    2.586141e+01    1.214957e+01    2.323158e+09    3.155192e-09    1.316121e-11    3.045029e-09   -2.465690e+00
    3.833251e+00    2.647157e+01    1.192019e+01    2.306818e+09    3.152517e-09    1.258156e-11    3.041797e-09   -2.460690e+00
    3.876542e+00    2.709107e+01    1.169264e+01    2.290308e+09    3.149802e-09    1.202044e-11    3.038498e-09   -2.455690e+00
    3.920635e+00    2.772012e+01    1.146693e+01    2.273632e+09    3.147048e-09    1.147726e-11    3.035132e-09   -2.450690e+00
    3.965556e+00    2.835892e+01    1.124307e+01    2.256794e+09    3.144251e-09    1.095143e-11    3.031695e-09   -2.445690e+00
    4.011334e+00    2.900766e+01    1.102108e+01    2.239797e+09    3.141409e-09    1.044237e-11    3.028187e-09   -2.440690e+00
    4.057995e+00    2.966658e+01    1.080098e+01    2.222643e+09    3.138521e-09    9.949550e-12    3.024606e-09   -2.435690e+00
    4.105566e+00    3.033589e+01    1.058279e+01    2.205336e+09    3.135584e-09    9.472430e-12    3.020948e-09   -2.430690e+00
    4.154082e+00    3.101584e+01    1.036650e+01    2.187877e+09    3.132597e-09    9.010510e-12    3.017213e-09   -2.425690e+00
    4.203569e+00    3.170667e+01    1.015216e+01    2.170270e+09    3.129555e-09    8.563290e-12    3.013398e-09   -2.420690e+00
    4.254061e+00    3.240866e+01    9.939755e+00    2.152517e+09    3.126460e-09    8.130300e-12    3.009500e-09   -2.415690e+00
    4.305591e+00    3.312205e+01    9.729315e+00    2.134621e+09    3.123305e-09    7.711080e-12    3.005516e-09   -2.410690e+00
    4.358191e+00    3.384712e+01    9.520855e+00    2.116582e+09    3.120091e-09    7.305185e-12    3.001446e-09   -2.405690e+00
    4.411898e+00    3.458414e+01    9.314385e+00    2.098403e+09    3.116814e-09    6.912195e-12    2.997285e-09   -2.400690e+00
    4.466749e+00    3.533341e+01    9.109920e+00    2.080086e+09    3.113472e-09    6.531695e-12    2.993032e-09   -2.395690e+00
    4.522783e+00    3.609526e+01    8.907470e+00    2.061632e+09    3.110062e-09    6.163290e-12    2.988683e-09   -2.390690e+00
    4.580035e+00    3.686994e+01    8.707055e+00    2.043042e+09    3.106583e-09    5.806595e-12    2.984236e-09   -2.385690e+00
    4.638547e+00    3.765782e+01    8.508690e+00    2.024319e+09    3.103030e-09    5.461240e-12    2.979687e-09   -2.380690e+00
    4.698364e+00    3.845918e+01    8.312380e+00    2.005462e+09    3.099401e-09    5.126880e-12    2.975034e-09   -2.375690e+00
    4.759524e+00    3.927440e+01    8.118150e+00    1.986474e+09    3.095693e-09    4.803161e-12    2.970273e-09   -2.370690e+00
    4.822079e+00    4.010378e+01    7.926000e+00    1.967354e+09    3.091904e-09    4.489757e-12    2.965400e-09   -2.365690e+00
    4.886070e+00    4.094768e+01    7.735955e+00    1.948104e+09    3.088030e-09    4.186349e-12    2.960414e-09   -2.360690e+00
    4.951548e+00    4.180645e+01    7.548020e+00    1.928724e+09    3.084069e-09    3.892630e-12    2.955310e-09   -2.355690e+00
    5.018561e+00    4.268048e+01    7.362215e+00    1.909214e+09    3.080017e-09    3.608303e-12    2.950084e-09   -2.350690e+00
    5.087162e+00    4.357015e+01    7.178550e+00    1.889576e+09    3.075872e-09    3.333084e-12    2.944734e-09   -2.345690e+00
    5.157407e+00    4.447578e+01    6.997035e+00    1.869808e+09    3.071629e-09    3.066697e-12    2.939255e-09   -2.340690e+00
    5.229351e+00    4.539779e+01    6.817685e+00    1.849910e+09    3.067285e-09    2.808878e-12    2.933642e-09   -2.335690e+00
    5.303044e+00    4.633655e+01    6.640520e+00    1.829884e+09    3.062838e-09    2.559370e-12    2.927892e-09   -2.330690e+00
    5.378558e+00    4.729246e+01    6.465540e+00    1.809727e+09    3.058283e-09    2.317929e-12    2.922003e-09   -2.325690e+00
    5.455944e+00    4.826596e+01    6.292770e+00    1.789441e+09    3.053617e-09    2.084316e-12    2.915967e-09   -2.320690e+00
    5.535271e+00    4.925738e+01    6.122215e+00    1.769024e+09    3.048836e-09    1.858304e-12    2.909781e-09   -2.315690e+00
    5.616601e+00    5.026720e+01    5.953895e+00    1.748475e+09    3.043937e-09    1.639673e-12    2.903442e-09   -2.310690e+00
    5.700008e+00    5.129581e+01    5.787815e+00    1.727793e+09    3.038915e-09    1.428210e-12    2.896944e-09   -2.305690e+00
    5.785561e+00    5.234356e+01    5.623990e+00    1.706978e+09    3.033767e-09    1.223712e-12    2.890282e-09   -2.300690e+00
    5.873323e+00    5.341090e+01    5.462440e+00    1.686028e+09    3.028489e-09    1.025982e-12    2.883452e-09   -2.295690e+00
    5.963379e+00    5.449825e+01    5.303170e+00    1.664942e+09    3.023076e-09    8.348300e-13    2.876448e-09   -2.290690e+00
    6.055803e+00    5.560598e+01    5.146195e+00    1.643718e+09    3.017525e-09    6.500750e-13    2.869267e-09   -2.285690e+00
    6.150672e+00    5.673453e+01    4.991530e+00    1.622355e+09    3.011831e-09    4.715411e-13    2.861901e-09   -2.280690e+00
    6.248068e+00    5.788429e+01    4.839187e+00    1.600850e+09    3.005990e-09    2.990594e-13    2.854347e-09   -2.275690e+00
    6.348075e+00    5.905558e+01    4.689179e+00    1.579204e+09    2.999998e-09    1.324673e-13    2.846598e-09   -2.270690e+00
    6.450777e+00    6.024881e+01    4.541519e+00    1.557412e+09    2.993849e-09    2.839167e-14    2.838649e-09   -2.265690e+00
    6.556261e+00    6.146434e+01    4.396220e+00    1.535473e+09    2.987540e-09    1.836682e-13    2.830495e-09   -2.260690e+00
    6.664617e+00    6.270251e+01    4.253296e+00    1.513385e+09    2.981065e-09    3.335071e-13    2.822129e-09   -2.255690e+00
    6.775934e+00    6.396362e+01    4.112758e+00    1.491146e+09    2.974420e-09    4.780480e-13    2.813547e-09   -2.250690e+00
    6.890306e+00    6.524798e+01    3.974622e+00    1.468754e+09    2.967601e-09    6.174250e-13    2.804741e-09   -2.245690e+00
    7.007823e+00    6.655583e+01    3.838900e+00    1.446205e+09    2.960602e-09    7.517670e-13    2.795706e-09   -2.240690e+00
    7.128585e+00    6.788745e+01    3.705603e+00    1.423499e+09    2.953419e-09    8.811985e-13    2.786435e-09   -2.235690e+00
    7.252681e+00    6.924298e+01    3.574747e+00    1.400633e+09    2.946046e-09    1.005839e-12    2.776924e-09   -2.230690e+00
    7.380208e+00    7.062260e+01    3.446343e+00    1.377605e+09    2.938478e-09    1.125804e-12    2.767165e-09   -2.225690e+00
    7.511263e+00    7.202642e+01    3.320404e+00    1.354412e+09    2.930712e-09    1.241203e-12    2.757152e-09   -2.220690e+00
    7.645938e+00    7.345447e+01    3.196943e+00    1.331053e+09    2.922741e-09    1.352142e-12    2.746877e-09   -2.215690e+00
    7.784328e+00    7.490676e+01    3.075972e+00    1.307527e+09    2.914559e-09    1.458725e-12    2.736336e-09   -2.210690e+00
    7.926521e+00    7.638320e+01    2.957503e+00    1.283831e+09    2.906163e-09    1.561050e-12    2.725521e-09   -2.205690e+00
    8.072610e+00    7.788365e+01    2.841548e+00    1.259965e+09    2.897548e-09    1.659211e-12    2.714427e-09   -2.200690e+00
    8.222677e+00    7.940788e+01    2.728120e+00    1.235929e+09    2.888706e-09    1.753300e-12    2.703046e-09   -2.195690e+00
    8.376805e+00    8.095556e+01    2.617228e+00    1.211721e+09    2.879635e-09    1.843404e-12    2.691371e-09   -2.190690e+00
    8.535067e+00    8.252628e+01    2.508883e+00    1.187342e+09    2.870328e-09    1.929608e-12    2.679397e-09   -2.185690e+00
    8.697534e+00    8.411952e+01    2.403096e+00    1.162794e+09    2.860781e-09    2.011993e-12    2.667116e-09   -2.180690e+00
    8.864265e+00    8.573462e+01    2.299876e+00    1.138078e+09    2.850988e-09    2.090639e-12    2.654523e-09   -2.175690e+00
    9.035313e+00    8.737082e+01    2.199232e+00    1.113196e+09    2.840945e-09    2.165619e-12    2.641609e-09   -2.170690e+00
    9.210716e+00    8.902720e+01    2.101171e+00    1.088152e+09    2.830646e-09    2.237008e-12    2.628371e-09   -2.165690e+00
    9.390510e+00    9.070280e+01    2.005701e+00    1.062950e+09    2.820087e-09    2.304876e-12    2.614799e-09   -2.160690e+00
    9.574698e+00    9.239633e+01    1.912827e+00    1.037597e+09    2.809263e-09    2.369290e-12    2.600890e-09   -2.155690e+00
    9.763283e+00    9.410646e+01    1.822555e+00    1.012098e+09    2.798169e-09    2.430317e-12    2.586637e-09   -2.150690e+00
    9.956245e+00    9.583170e+01    1.734887e+00    9.864635e+08    2.786801e-09    2.488019e-12    2.572032e-09   -2.145690e+00
    1.015354e+01    9.757032e+01    1.649826e+00    9.607019e+08    2.775154e-09    2.542458e-12    2.557072e-09   -2.140690e+00
    1.035511e+01    9.932044e+01    1.567371e+00    9.348253e+08    2.763224e-09    2.593695e-12    2.541750e-09   -2.135690e+00
    1.056086e+01    1.010800e+02    1.487522e+00    9.088470e+08    2.751008e-09    2.641787e-12    2.526061e-09   -2.130690e+00
    1.077067e+01    1.028466e+02    1.410274e+00    8.827822e+08    2.738501e-09    2.686789e-12    2.509999e-09   -2.125690e+00
    1.098440e+01    1.046180e+02    1.335624e+00    8.566481e+08    2.725700e-09    2.728757e-12    2.493560e-09   -2.120690e+00
    1.120187e+01    1.063913e+02    1.263561e+00    8.304642e+08    2.712602e-09    2.767746e-12    2.476740e-09   -2.115690e+00
    1.142287e+01    1.081638e+02    1.194077e+00    8.042518e+08    2.699204e-09    2.803806e-12    2.459533e-09   -2.110690e+00
    1.164714e+01    1.099323e+02    1.127158e+00    7.780346e+08    2.685502e-09    2.836988e-12    2.441937e-09   -2.105690e+00
    1.187440e+01    1.116937e+02    1.062790e+00    7.518387e+08    2.671495e-09    2.867344e-12    2.423947e-09   -2.100690e+00
    1.210431e+01    1.134444e+02    1.000952e+00    7.256921e+08    2.657179e-09    2.894923e-12    2.405561e-09   -2.095690e+00
    1.233650e+01    1.151809e+02    9.416235e-01    6.996250e+08    2.642556e-09    2.919773e-12    2.386776e-09   -2.090690e+00
    1.257057e+01    1.168994e+02    8.847795e-01    6.736706e+08    2.627621e-09    2.941942e-12    2.367589e-09   -2.085690e+00
    1.280605e+01    1.185961e+02    8.303920e-01    6.478627e+08    2.612374e-09    2.961479e-12    2.348000e-09   -2.080690e+00
    1.304245e+01    1.202668e+02    7.784280e-01    6.222378e+08    2.596817e-09    2.978429e-12    2.328006e-09   -2.075690e+00
    1.327921e+01    1.219076e+02    7.288535e-01    5.968340e+08    2.580947e-09    2.992841e-12    2.307608e-09   -2.070690e+00
    1.351578e+01    1.235144e+02    6.816285e-01    5.716908e+08    2.564766e-09    3.004761e-12    2.286805e-09   -2.065690e+00
    1.375152e+01    1.250830e+02    6.367110e-01    5.468484e+08    2.548275e-09    3.014237e-12    2.265599e-09   -2.060690e+00
    1.398579e+01    1.266091e+02    5.940550e-01    5.223482e+08    2.531475e-09    3.021314e-12    2.243989e-09   -2.055690e+00
    1.421791e+01    1.280890e+02    5.536110e-01    4.982319e+08    2.514369e-09    3.026041e-12    2.221980e-09   -2.050690e+00
    1.444719e+01    1.295185e+02    5.153250e-01    4.745406e+08    2.496959e-09    3.028465e-12    2.199572e-09   -2.045690e+00
    1.467291e+01    1.308938e+02    4.791415e-01    4.513153e+08    2.479249e-09    3.028634e-12    2.176770e-09   -2.040690e+00
