# sky130 pfet_01v8 gm/ID Processed Lookup Table
# Corner: ss
# Temperature: 25C
# W = 2.0 um
# L = 1.08 um (1080 nm)
# Columns: gm/id [1/V]  gm/gds [V/V]  id/W [A/m]  ft [Hz]  Cgg/W [F/m]  Cgd/W [F/m]  Cgs/W [F/m]  Vov [V]
#         gm/id          gm/gds            id/W              ft           Cgg/W           Cgd/W           Cgs/W             Vov
    2.111801e+00    5.095253e+00    1.525321e+01    7.973727e+08    6.429435e-09    3.195253e-10    6.080035e-09   -2.824279e+00
    2.134091e+00    5.275585e+00    1.509215e+01    7.982351e+08    6.421750e-09    3.096671e-10    6.079470e-09   -2.819279e+00
    2.156628e+00    5.465393e+00    1.493113e+01    7.989990e+08    6.414190e-09    3.000648e-10    6.078790e-09   -2.814279e+00
    2.179408e+00    5.665207e+00    1.477016e+01    7.996603e+08    6.406755e-09    2.907160e-10    6.078000e-09   -2.809279e+00
    2.202427e+00    5.875582e+00    1.460923e+01    8.002153e+08    6.399445e-09    2.816176e-10    6.077095e-09   -2.804279e+00
    2.225680e+00    6.097084e+00    1.444840e+01    8.006607e+08    6.392255e-09    2.727662e-10    6.076085e-09   -2.799279e+00
    2.249161e+00    6.330302e+00    1.428767e+01    8.009928e+08    6.385185e-09    2.641587e-10    6.074965e-09   -2.794279e+00
    2.272866e+00    6.575840e+00    1.412706e+01    8.012078e+08    6.378235e-09    2.557912e-10    6.073740e-09   -2.789279e+00
    2.296789e+00    6.834319e+00    1.396659e+01    8.013028e+08    6.371400e-09    2.476602e-10    6.072405e-09   -2.784279e+00
    2.320925e+00    7.106367e+00    1.380628e+01    8.012744e+08    6.364680e-09    2.397615e-10    6.070975e-09   -2.779279e+00
    2.345267e+00    7.392623e+00    1.364616e+01    8.011200e+08    6.358070e-09    2.320911e-10    6.069435e-09   -2.774279e+00
    2.369811e+00    7.693730e+00    1.348625e+01    8.008366e+08    6.351570e-09    2.246448e-10    6.067800e-09   -2.769279e+00
    2.394551e+00    8.010334e+00    1.332657e+01    8.004213e+08    6.345180e-09    2.174182e-10    6.066060e-09   -2.764279e+00
    2.419482e+00    8.343075e+00    1.316714e+01    7.998728e+08    6.338890e-09    2.104070e-10    6.064225e-09   -2.759279e+00
    2.444600e+00    8.692591e+00    1.300800e+01    7.991891e+08    6.332700e-09    2.036065e-10    6.062295e-09   -2.754279e+00
    2.469900e+00    9.059506e+00    1.284916e+01    7.983680e+08    6.326610e-09    1.970123e-10    6.060270e-09   -2.749279e+00
    2.495378e+00    9.444429e+00    1.269065e+01    7.974087e+08    6.320615e-09    1.906198e-10    6.058150e-09   -2.744279e+00
    2.521033e+00    9.847950e+00    1.253249e+01    7.963107e+08    6.314710e-09    1.844243e-10    6.055935e-09   -2.739279e+00
    2.546860e+00    1.027063e+01    1.237471e+01    7.950729e+08    6.308895e-09    1.784211e-10    6.053635e-09   -2.734279e+00
    2.572860e+00    1.071301e+01    1.221733e+01    7.936950e+08    6.303170e-09    1.726056e-10    6.051240e-09   -2.729279e+00
    2.599032e+00    1.117560e+01    1.206038e+01    7.921780e+08    6.297525e-09    1.669730e-10    6.048755e-09   -2.724279e+00
    2.625375e+00    1.165885e+01    1.190389e+01    7.905225e+08    6.291960e-09    1.615187e-10    6.046185e-09   -2.719279e+00
    2.651890e+00    1.216320e+01    1.174787e+01    7.887286e+08    6.286475e-09    1.562381e-10    6.043525e-09   -2.714279e+00
    2.678581e+00    1.268902e+01    1.159235e+01    7.867988e+08    6.281060e-09    1.511265e-10    6.040785e-09   -2.709279e+00
    2.705451e+00    1.323666e+01    1.143736e+01    7.847343e+08    6.275715e-09    1.461792e-10    6.037955e-09   -2.704279e+00
    2.732503e+00    1.380641e+01    1.128293e+01    7.825366e+08    6.270440e-09    1.413920e-10    6.035040e-09   -2.699279e+00
    2.759744e+00    1.439853e+01    1.112907e+01    7.802088e+08    6.265225e-09    1.367600e-10    6.032045e-09   -2.694279e+00
    2.787176e+00    1.501319e+01    1.097580e+01    7.777524e+08    6.260075e-09    1.322790e-10    6.028960e-09   -2.689279e+00
    2.814811e+00    1.565057e+01    1.082316e+01    7.751710e+08    6.254980e-09    1.279446e-10    6.025800e-09   -2.684279e+00
    2.842654e+00    1.631077e+01    1.067116e+01    7.724671e+08    6.249940e-09    1.237524e-10    6.022555e-09   -2.679279e+00
    2.870717e+00    1.699386e+01    1.051982e+01    7.696439e+08    6.244950e-09    1.196982e-10    6.019230e-09   -2.674279e+00
    2.899005e+00    1.769986e+01    1.036917e+01    7.667049e+08    6.240005e-09    1.157779e-10    6.015820e-09   -2.669279e+00
    2.927532e+00    1.842877e+01    1.021923e+01    7.636528e+08    6.235105e-09    1.119874e-10    6.012330e-09   -2.664279e+00
    2.956307e+00    1.918055e+01    1.007001e+01    7.604907e+08    6.230250e-09    1.083226e-10    6.008760e-09   -2.659279e+00
    2.985343e+00    1.995512e+01    9.921530e+00    7.572234e+08    6.225425e-09    1.047797e-10    6.005110e-09   -2.654279e+00
    3.014652e+00    2.075240e+01    9.773820e+00    7.538528e+08    6.220640e-09    1.013549e-10    6.001375e-09   -2.649279e+00
    3.044247e+00    2.157227e+01    9.626890e+00    7.503831e+08    6.215885e-09    9.804440e-11    5.997565e-09   -2.644279e+00
    3.074141e+00    2.241461e+01    9.480760e+00    7.468179e+08    6.211155e-09    9.484450e-11    5.993670e-09   -2.639279e+00
    3.104349e+00    2.327928e+01    9.335445e+00    7.431601e+08    6.206450e-09    9.175165e-11    5.989695e-09   -2.634279e+00
    3.134885e+00    2.416614e+01    9.190960e+00    7.394135e+08    6.201765e-09    8.876245e-11    5.985635e-09   -2.629279e+00
    3.165763e+00    2.507506e+01    9.047325e+00    7.355805e+08    6.197100e-09    8.587340e-11    5.981495e-09   -2.624279e+00
    3.197000e+00    2.600589e+01    8.904550e+00    7.316649e+08    6.192450e-09    8.308135e-11    5.977270e-09   -2.619279e+00
    3.228611e+00    2.695850e+01    8.762650e+00    7.276697e+08    6.187810e-09    8.038295e-11    5.972960e-09   -2.614279e+00
    3.260612e+00    2.793280e+01    8.621640e+00    7.235983e+08    6.183175e-09    7.777520e-11    5.968570e-09   -2.609279e+00
    3.293018e+00    2.892867e+01    8.481535e+00    7.194526e+08    6.178550e-09    7.525500e-11    5.964090e-09   -2.604279e+00
    3.325848e+00    2.994603e+01    8.342345e+00    7.152365e+08    6.173920e-09    7.281945e-11    5.959525e-09   -2.599279e+00
    3.359117e+00    3.098482e+01    8.204085e+00    7.109520e+08    6.169290e-09    7.046565e-11    5.954870e-09   -2.594279e+00
    3.392844e+00    3.204503e+01    8.066765e+00    7.066017e+08    6.164655e-09    6.819090e-11    5.950130e-09   -2.589279e+00
    3.427045e+00    3.312661e+01    7.930400e+00    7.021877e+08    6.160015e-09    6.599250e-11    5.945295e-09   -2.584279e+00
    3.461743e+00    3.422964e+01    7.794990e+00    6.977133e+08    6.155360e-09    6.386785e-11    5.940370e-09   -2.579279e+00
    3.496949e+00    3.535413e+01    7.660560e+00    6.931806e+08    6.150685e-09    6.181435e-11    5.935355e-09   -2.574279e+00
    3.532688e+00    3.650021e+01    7.527110e+00    6.885912e+08    6.145995e-09    5.982970e-11    5.930240e-09   -2.569279e+00
    3.568978e+00    3.766794e+01    7.394650e+00    6.839469e+08    6.141285e-09    5.791145e-11    5.925030e-09   -2.564279e+00
    3.605836e+00    3.885751e+01    7.263200e+00    6.792508e+08    6.136545e-09    5.605730e-11    5.919720e-09   -2.559279e+00
    3.643287e+00    4.006912e+01    7.132755e+00    6.745040e+08    6.131775e-09    5.426510e-11    5.914310e-09   -2.554279e+00
    3.681346e+00    4.130299e+01    7.003335e+00    6.697081e+08    6.126975e-09    5.253270e-11    5.908800e-09   -2.549279e+00
    3.720040e+00    4.255941e+01    6.874940e+00    6.648655e+08    6.122135e-09    5.085800e-11    5.903180e-09   -2.544279e+00
    3.759387e+00    4.383858e+01    6.747585e+00    6.599766e+08    6.117260e-09    4.923900e-11    5.897455e-09   -2.539279e+00
    3.799410e+00    4.514095e+01    6.621275e+00    6.550445e+08    6.112335e-09    4.767382e-11    5.891620e-09   -2.534279e+00
    3.840131e+00    4.646681e+01    6.496020e+00    6.500688e+08    6.107370e-09    4.616056e-11    5.885670e-09   -2.529279e+00
    3.881576e+00    4.781667e+01    6.371825e+00    6.450523e+08    6.102350e-09    4.469743e-11    5.879605e-09   -2.524279e+00
    3.923768e+00    4.919088e+01    6.248695e+00    6.399956e+08    6.097275e-09    4.328269e-11    5.873420e-09   -2.519279e+00
    3.966733e+00    5.058999e+01    6.126640e+00    6.349004e+08    6.092140e-09    4.191465e-11    5.867115e-09   -2.514279e+00
    4.010493e+00    5.201449e+01    6.005670e+00    6.297671e+08    6.086945e-09    4.059171e-11    5.860690e-09   -2.509279e+00
    4.055079e+00    5.346498e+01    5.885785e+00    6.245976e+08    6.081680e-09    3.931228e-11    5.854130e-09   -2.504279e+00
    4.100514e+00    5.494206e+01    5.767000e+00    6.193925e+08    6.076345e-09    3.807487e-11    5.847440e-09   -2.499279e+00
    4.146828e+00    5.644634e+01    5.649315e+00    6.141528e+08    6.070935e-09    3.687801e-11    5.840615e-09   -2.494279e+00
    4.194053e+00    5.797854e+01    5.532735e+00    6.088789e+08    6.065450e-09    3.572031e-11    5.833650e-09   -2.489279e+00
    4.242215e+00    5.953937e+01    5.417270e+00    6.035728e+08    6.059875e-09    3.460040e-11    5.826545e-09   -2.484279e+00
    4.291346e+00    6.112957e+01    5.302925e+00    5.982338e+08    6.054220e-09    3.351697e-11    5.819290e-09   -2.479279e+00
    4.341479e+00    6.275000e+01    5.189705e+00    5.928643e+08    6.048465e-09    3.246878e-11    5.811885e-09   -2.474279e+00
    4.392647e+00    6.440145e+01    5.077615e+00    5.874635e+08    6.042620e-09    3.145459e-11    5.804325e-09   -2.469279e+00
    4.444882e+00    6.608484e+01    4.966664e+00    5.820331e+08    6.036670e-09    3.047324e-11    5.796600e-09   -2.464279e+00
    4.498222e+00    6.780108e+01    4.856855e+00    5.765738e+08    6.030610e-09    2.952359e-11    5.788710e-09   -2.459279e+00
    4.552701e+00    6.955114e+01    4.748194e+00    5.710848e+08    6.024445e-09    2.860455e-11    5.780655e-09   -2.454279e+00
    4.608360e+00    7.133607e+01    4.640686e+00    5.655682e+08    6.018160e-09    2.771509e-11    5.772420e-09   -2.449279e+00
    4.665235e+00    7.315687e+01    4.534336e+00    5.600233e+08    6.011755e-09    2.685417e-11    5.764005e-09   -2.444279e+00
    4.723371e+00    7.501471e+01    4.429150e+00    5.544512e+08    6.005225e-09    2.602083e-11    5.755400e-09   -2.439279e+00
    4.782807e+00    7.691071e+01    4.325133e+00    5.488518e+08    5.998565e-09    2.521411e-11    5.746605e-09   -2.434279e+00
    4.843589e+00    7.884608e+01    4.222288e+00    5.432260e+08    5.991765e-09    2.443311e-11    5.737615e-09   -2.429279e+00
    4.905760e+00    8.082206e+01    4.120624e+00    5.375740e+08    5.984820e-09    2.367696e-11    5.728415e-09   -2.424279e+00
    4.969367e+00    8.283994e+01    4.020143e+00    5.318956e+08    5.977730e-09    2.294482e-11    5.719010e-09   -2.419279e+00
    5.034461e+00    8.490110e+01    3.920850e+00    5.261913e+08    5.970485e-09    2.223586e-11    5.709385e-09   -2.414279e+00
    5.101091e+00    8.700692e+01    3.822750e+00    5.204619e+08    5.963075e-09    2.154930e-11    5.699535e-09   -2.409279e+00
    5.169311e+00    8.915886e+01    3.725850e+00    5.147063e+08    5.955505e-09    2.088439e-11    5.689455e-09   -2.404279e+00
    5.239173e+00    9.135841e+01    3.630152e+00    5.089259e+08    5.947755e-09    2.024040e-11    5.679135e-09   -2.399279e+00
    5.310734e+00    9.360716e+01    3.535661e+00    5.031197e+08    5.939830e-09    1.961662e-11    5.668565e-09   -2.394279e+00
    5.384053e+00    9.590670e+01    3.442384e+00    4.972881e+08    5.931720e-09    1.901239e-11    5.657745e-09   -2.389279e+00
    5.459190e+00    9.825875e+01    3.350323e+00    4.914314e+08    5.923415e-09    1.842703e-11    5.646665e-09   -2.384279e+00
    5.536207e+00    1.006650e+02    3.259485e+00    4.855492e+08    5.914910e-09    1.785994e-11    5.635315e-09   -2.379279e+00
    5.615171e+00    1.031272e+02    3.169873e+00    4.796415e+08    5.906200e-09    1.731049e-11    5.623685e-09   -2.374279e+00
    5.696145e+00    1.056473e+02    3.081492e+00    4.737081e+08    5.897275e-09    1.677810e-11    5.611770e-09   -2.369279e+00
    5.779200e+00    1.082271e+02    2.994348e+00    4.677492e+08    5.888125e-09    1.626221e-11    5.599555e-09   -2.364279e+00
    5.864408e+00    1.108687e+02    2.908445e+00    4.617640e+08    5.878750e-09    1.576228e-11    5.587040e-09   -2.359279e+00
    5.951843e+00    1.135740e+02    2.823787e+00    4.557528e+08    5.869135e-09    1.527777e-11    5.574205e-09   -2.354279e+00
    6.041581e+00    1.163451e+02    2.740379e+00    4.497151e+08    5.859275e-09    1.480818e-11    5.561050e-09   -2.349279e+00
    6.133700e+00    1.191842e+02    2.658226e+00    4.436502e+08    5.849165e-09    1.435303e-11    5.547560e-09   -2.344279e+00
    6.228283e+00    1.220934e+02    2.577333e+00    4.375584e+08    5.838790e-09    1.391184e-11    5.533725e-09   -2.339279e+00
    6.325409e+00    1.250750e+02    2.497704e+00    4.314386e+08    5.828150e-09    1.348416e-11    5.519540e-09   -2.334279e+00
    6.425171e+00    1.281313e+02    2.419344e+00    4.252914e+08    5.817225e-09    1.306956e-11    5.504985e-09   -2.329279e+00
    6.527651e+00    1.312645e+02    2.342258e+00    4.191155e+08    5.806015e-09    1.266760e-11    5.490055e-09   -2.324279e+00
    6.632939e+00    1.344772e+02    2.266452e+00    4.129104e+08    5.794510e-09    1.227787e-11    5.474735e-09   -2.319279e+00
    6.741133e+00    1.377717e+02    2.191928e+00    4.066760e+08    5.782700e-09    1.190001e-11    5.459020e-09   -2.314279e+00
    6.852322e+00    1.411505e+02    2.118692e+00    4.004116e+08    5.770575e-09    1.153361e-11    5.442895e-09   -2.309279e+00
    6.966605e+00    1.446160e+02    2.046749e+00    3.941168e+08    5.758125e-09    1.117830e-11    5.426350e-09   -2.304279e+00
    7.084077e+00    1.481706e+02    1.976105e+00    3.877910e+08    5.745340e-09    1.083375e-11    5.409365e-09   -2.299279e+00
    7.204838e+00    1.518169e+02    1.906763e+00    3.814335e+08    5.732210e-09    1.049961e-11    5.391940e-09   -2.294279e+00
    7.328990e+00    1.555574e+02    1.838728e+00    3.750438e+08    5.718730e-09    1.017554e-11    5.374055e-09   -2.289279e+00
    7.456634e+00    1.593944e+02    1.772004e+00    3.686216e+08    5.704885e-09    9.861235e-12    5.355695e-09   -2.284279e+00
    7.587872e+00    1.633305e+02    1.706597e+00    3.621664e+08    5.690665e-09    9.556380e-12    5.336855e-09   -2.279279e+00
    7.722801e+00    1.673680e+02    1.642511e+00    3.556771e+08    5.676065e-09    9.260690e-12    5.317520e-09   -2.274279e+00
    7.861523e+00    1.715089e+02    1.579751e+00    3.491541e+08    5.661065e-09    8.973870e-12    5.297670e-09   -2.269279e+00
    8.004139e+00    1.757558e+02    1.518320e+00    3.425966e+08    5.645665e-09    8.695645e-12    5.277300e-09   -2.264279e+00
    8.150746e+00    1.801105e+02    1.458224e+00    3.360043e+08    5.629850e-09    8.425745e-12    5.256390e-09   -2.259279e+00
    8.301437e+00    1.845748e+02    1.399465e+00    3.293769e+08    5.613610e-09    8.163925e-12    5.234935e-09   -2.254279e+00
    8.456297e+00    1.891503e+02    1.342049e+00    3.227148e+08    5.596930e-09    7.909925e-12    5.212915e-09   -2.249279e+00
    8.615417e+00    1.938388e+02    1.285979e+00    3.160173e+08    5.579810e-09    7.663510e-12    5.190315e-09   -2.244279e+00
    8.778871e+00    1.986411e+02    1.231258e+00    3.092853e+08    5.562225e-09    7.424445e-12    5.167125e-09   -2.239279e+00
    8.946743e+00    2.035582e+02    1.177889e+00    3.025186e+08    5.544180e-09    7.192510e-12    5.143335e-09   -2.234279e+00
    9.119081e+00    2.085906e+02    1.125876e+00    2.957182e+08    5.525655e-09    6.967480e-12    5.118925e-09   -2.229279e+00
    9.295944e+00    2.137382e+02    1.075220e+00    2.888847e+08    5.506640e-09    6.749155e-12    5.093885e-09   -2.224279e+00
    9.477369e+00    2.190007e+02    1.025924e+00    2.820188e+08    5.487130e-09    6.537330e-12    5.068200e-09   -2.219279e+00
    9.663386e+00    2.243770e+02    9.779900e-01    2.751225e+08    5.467110e-09    6.331810e-12    5.041860e-09   -2.214279e+00
    9.853997e+00    2.298656e+02    9.314180e-01    2.681971e+08    5.446570e-09    6.132400e-12    5.014845e-09   -2.209279e+00
    1.004920e+01    2.354641e+02    8.862080e-01    2.612446e+08    5.425505e-09    5.938925e-12    4.987149e-09   -2.204279e+00
    1.024897e+01    2.411697e+02    8.423610e-01    2.542677e+08    5.403900e-09    5.751205e-12    4.958758e-09   -2.199279e+00
    1.045323e+01    2.469782e+02    7.998745e-01    2.472687e+08    5.381750e-09    5.569070e-12    4.929660e-09   -2.194279e+00
    1.066193e+01    2.528850e+02    7.587470e-01    2.402510e+08    5.359050e-09    5.392350e-12    4.899842e-09   -2.189279e+00
    1.087495e+01    2.588844e+02    7.189760e-01    2.332190e+08    5.335780e-09    5.220895e-12    4.869294e-09   -2.184279e+00
    1.109214e+01    2.649694e+02    6.805575e-01    2.261763e+08    5.311940e-09    5.054540e-12    4.838004e-09   -2.179279e+00
    1.131334e+01    2.711320e+02    6.434860e-01    2.191279e+08    5.287525e-09    4.893142e-12    4.805962e-09   -2.174279e+00
    1.153832e+01    2.773629e+02    6.077555e-01    2.120792e+08    5.262520e-09    4.736552e-12    4.773158e-09   -2.169279e+00
    1.176686e+01    2.836521e+02    5.733585e-01    2.050363e+08    5.236925e-09    4.584634e-12    4.739584e-09   -2.164279e+00
    1.199865e+01    2.899875e+02    5.402860e-01    1.980056e+08    5.210730e-09    4.437248e-12    4.705231e-09   -2.159279e+00
    1.223336e+01    2.963561e+02    5.085275e-01    1.909947e+08    5.183930e-09    4.294265e-12    4.670092e-09   -2.154279e+00
    1.247059e+01    3.027432e+02    4.780717e-01    1.840106e+08    5.156525e-09    4.155557e-12    4.634161e-09   -2.149279e+00
    1.270992e+01    3.091329e+02    4.489046e-01    1.770623e+08    5.128505e-09    4.021002e-12    4.597430e-09   -2.144279e+00
    1.295087e+01    3.155082e+02    4.210109e-01    1.701583e+08    5.099875e-09    3.890480e-12    4.559895e-09   -2.139279e+00
    1.319293e+01    3.218506e+02    3.943740e-01    1.633083e+08    5.070625e-09    3.763874e-12    4.521553e-09   -2.134279e+00
    1.343551e+01    3.281399e+02    3.689750e-01    1.565220e+08    5.040755e-09    3.641073e-12    4.482401e-09   -2.129279e+00
    1.367799e+01    3.343555e+02    3.447932e-01    1.498097e+08    5.010270e-09    3.521969e-12    4.442438e-09   -2.124279e+00
    1.391971e+01    3.404756e+02    3.218064e-01    1.431820e+08    4.979165e-09    3.406455e-12    4.401663e-09   -2.119279e+00
    1.415996e+01    3.464776e+02    2.999903e-01    1.366497e+08    4.947445e-09    3.294431e-12    4.360078e-09   -2.114279e+00
    1.439802e+01    3.523383e+02    2.793189e-01    1.302237e+08    4.915112e-09    3.185797e-12    4.317684e-09   -2.109279e+00
    1.463312e+01    3.580342e+02    2.597644e-01    1.239150e+08    4.882170e-09    3.080456e-12    4.274486e-09   -2.104279e+00
    1.486447e+01    3.635418e+02    2.412972e-01    1.177344e+08    4.848625e-09    2.978317e-12    4.230490e-09   -2.099279e+00
    1.509128e+01    3.688383e+02    2.238862e-01    1.116925e+08    4.814481e-09    2.879288e-12    4.185702e-09   -2.094279e+00
    1.531275e+01    3.739010e+02    2.074988e-01    1.057995e+08    4.779750e-09    2.783281e-12    4.140131e-09   -2.089279e+00
    1.552809e+01    3.787090e+02    1.921008e-01    1.000651e+08    4.744437e-09    2.690212e-12    4.093786e-09   -2.084279e+00
    1.573653e+01    3.832420e+02    1.776572e-01    9.449835e+07    4.708556e-09    2.599998e-12    4.046682e-09   -2.079279e+00
    1.593735e+01    3.874825e+02    1.641315e-01    8.910755e+07    4.672116e-09    2.512558e-12    3.998830e-09   -2.074279e+00
    1.612985e+01    3.914142e+02    1.514865e-01    8.390007e+07    4.635131e-09    2.427816e-12    3.950246e-09   -2.069279e+00
