# sky130 nfet_01v8 gm/ID Processed Lookup Table
# Corner: fs
# Temperature: -40C
# W = 2.0 um
# L = 3.5 um (3500 nm)
# Columns: gm/id [1/V]  gm/gds [V/V]  id/W [A/m]  ft [Hz]  Cgg/W [F/m]  Cgd/W [F/m]  Cgs/W [F/m]  Cdb/W [F/m]  vgs [V]  vth [V]  vdsat [V]
# vdsat = BSIM4 saturation voltage (|VDS|_sat, positive); use for headroom / saturation / cascode-bias calculations
#           gm/id          gm/gds            id/W              ft           Cgg/W           Cgd/W           Cgs/W           Cdb/W             vgs             vth           vdsat
    3.487857e+01    1.989804e+02    3.376033e-05    2.122436e+04    8.829800e-09    9.407815e-13    3.734371e-09    4.856725e-10    4.000000e-01    6.456661e-01    2.910739e-02
    3.486569e+01    1.984070e+02    4.784896e-05    2.921590e+04    9.088070e-09    1.041743e-12    4.094135e-09    5.254100e-10    4.100000e-01    6.456661e-01    2.911306e-02
    3.480652e+01    1.977431e+02    6.779215e-05    4.010783e+04    9.363345e-09    1.152976e-12    4.474554e-09    5.668970e-10    4.200000e-01    6.456661e-01    2.912109e-02
    3.470680e+01    1.969797e+02    9.597090e-05    5.490815e+04    9.654670e-09    1.275338e-12    4.874343e-09    6.099655e-10    4.300000e-01    6.456661e-01    2.913244e-02
    3.456967e+01    1.961088e+02    1.357015e-04    7.495596e+04    9.960790e-09    1.409730e-12    5.291860e-09    6.544150e-10    4.400000e-01    6.456661e-01    2.914842e-02
    3.439657e+01    1.951250e+02    1.915825e-04    1.020211e+05    1.028019e-08    1.557087e-12    5.725140e-09    7.000200e-10    4.500000e-01    6.456661e-01    2.917086e-02
    3.418788e+01    1.940271e+02    2.699592e-04    1.384296e+05    1.061112e-08    1.718389e-12    6.171910e-09    7.465295e-10    4.600000e-01    6.456661e-01    2.920230e-02
    3.394337e+01    1.928197e+02    3.795387e-04    1.872200e+05    1.095164e-08    1.894650e-12    6.629665e-09    7.936770e-10    4.700000e-01    6.456661e-01    2.924614e-02
    3.366281e+01    1.915166e+02    5.321990e-04    2.523369e+05    1.129962e-08    2.086925e-12    7.095700e-09    8.411840e-10    4.800000e-01    6.456661e-01    2.930703e-02
    3.334636e+01    1.901432e+02    7.440390e-04    3.388688e+05    1.165287e-08    2.296308e-12    7.567210e-09    8.887665e-10    4.900000e-01    6.456661e-01    2.939114e-02
    3.299511e+01    1.887403e+02    1.036732e-03    4.533415e+05    1.200911e-08    2.523929e-12    8.041310e-09    9.361445e-10    5.000000e-01    6.456661e-01    2.950666e-02
    3.261124e+01    1.873668e+02    1.439263e-03    6.040806e+05    1.236610e-08    2.770961e-12    8.515160e-09    9.830455e-10    5.100000e-01    6.456661e-01    2.966422e-02
    3.219844e+01    1.861026e+02    1.990134e-03    8.016678e+05    1.272163e-08    3.038621e-12    8.985990e-09    1.029212e-09    5.200000e-01    6.456661e-01    2.987746e-02
    3.176173e+01    1.850491e+02    2.740170e-03    1.059513e+06    1.307361e-08    3.328169e-12    9.451175e-09    1.074407e-09    5.300000e-01    6.456661e-01    3.016355e-02
    3.130712e+01    1.843280e+02    3.756083e-03    1.394579e+06    1.342009e-08    3.640916e-12    9.908290e-09    1.118415e-09    5.400000e-01    6.456661e-01    3.054362e-02
    3.084081e+01    1.840761e+02    5.124965e-03    1.828272e+06    1.375929e-08    3.978224e-12    1.035515e-08    1.161052e-09    5.500000e-01    6.456661e-01    3.104312e-02
    3.036781e+01    1.844355e+02    6.959940e-03    2.387475e+06    1.408966e-08    4.341516e-12    1.078982e-08    1.202160e-09    5.600000e-01    6.456661e-01    3.169178e-02
    2.989057e+01    1.855410e+02    9.407115e-03    3.105642e+06    1.440985e-08    4.732276e-12    1.121068e-08    1.241612e-09    5.700000e-01    6.456661e-01    3.252340e-02
    2.940734e+01    1.875024e+02    1.265387e-02    4.023725e+06    1.471875e-08    5.152060e-12    1.161638e-08    1.279314e-09    5.800000e-01    6.456661e-01    3.357498e-02
    2.891136e+01    1.903863e+02    1.693819e-02    5.190592e+06    1.501547e-08    5.602505e-12    1.200587e-08    1.315195e-09    5.900000e-01    6.456661e-01    3.488548e-02
    2.839101e+01    1.941993e+02    2.255844e-02    6.662494e+06    1.529936e-08    6.085325e-12    1.237840e-08    1.349216e-09    6.000000e-01    6.456661e-01    3.649411e-02
    2.783125e+01    1.988767e+02    2.988212e-02    8.501127e+06    1.556997e-08    6.602330e-12    1.273345e-08    1.381363e-09    6.100000e-01    6.456661e-01    3.843816e-02
    2.721619e+01    2.042784e+02    3.935211e-02    1.077001e+07    1.582703e-08    7.155445e-12    1.307079e-08    1.411641e-09    6.200000e-01    6.456661e-01    4.075078e-02
    2.653233e+01    2.101957e+02    5.148825e-02    1.352929e+07    1.607048e-08    7.746695e-12    1.339037e-08    1.440079e-09    6.300000e-01    6.456661e-01    4.345882e-02
    2.577127e+01    2.163669e+02    6.688255e-02    1.682950e+07    1.630037e-08    8.378235e-12    1.369234e-08    1.466718e-09    6.400000e-01    6.456661e-01    4.658098e-02
    2.493160e+01    2.225010e+02    8.618675e-02    2.070530e+07    1.651693e-08    9.052350e-12    1.397703e-08    1.491614e-09    6.500000e-01    6.456661e-01    5.012661e-02
    2.401908e+01    2.283049e+02    1.100931e-01    2.517032e+07    1.672044e-08    9.771470e-12    1.424487e-08    1.514837e-09    6.600000e-01    6.456661e-01    5.409524e-02
    2.304571e+01    2.335096e+02    1.393090e-01    3.021424e+07    1.691133e-08    1.053820e-11    1.449644e-08    1.536459e-09    6.700000e-01    6.456661e-01    5.847683e-02
    2.202786e+01    2.378921e+02    1.745292e-01    3.580279e+07    1.709007e-08    1.135531e-11    1.473236e-08    1.556562e-09    6.800000e-01    6.456661e-01    6.325276e-02
    2.098399e+01    2.412896e+02    2.164080e-01    4.188050e+07    1.725717e-08    1.222575e-11    1.495335e-08    1.575231e-09    6.900000e-01    6.456661e-01    6.839734e-02
    1.993269e+01    2.436049e+02    2.655352e-01    4.837595e+07    1.741320e-08    1.315267e-11    1.516015e-08    1.592551e-09    7.000000e-01    6.456661e-01    7.387965e-02
    1.889105e+01    2.448048e+02    3.224189e-01    5.520814e+07    1.755875e-08    1.413947e-11    1.535352e-08    1.608609e-09    7.100000e-01    6.456661e-01    7.966547e-02
    1.787367e+01    2.449116e+02    3.874743e-01    6.229323e+07    1.769439e-08    1.518977e-11    1.553424e-08    1.623492e-09    7.200000e-01    6.456661e-01    8.571911e-02
    1.689216e+01    2.439918e+02    4.610214e-01    6.955053e+07    1.782075e-08    1.630742e-11    1.570308e-08    1.637281e-09    7.300000e-01    6.456661e-01    9.200504e-02
    1.595506e+01    2.421423e+02    5.432890e-01    7.690695e+07    1.793841e-08    1.749660e-11    1.586082e-08    1.650060e-09    7.400000e-01    6.456661e-01    9.848917e-02
    1.506808e+01    2.394783e+02    6.344215e-01    8.430017e+07    1.804793e-08    1.876177e-11    1.600819e-08    1.661905e-09    7.500000e-01    6.456661e-01    1.051398e-01
    1.423443e+01    2.361221e+02    7.344930e-01    9.167983e+07    1.814990e-08    2.010768e-11    1.614591e-08    1.672890e-09    7.600000e-01    6.456661e-01    1.119281e-01
    1.345529e+01    2.321946e+02    8.435200e-01    9.900764e+07    1.824483e-08    2.153948e-11    1.627467e-08    1.683086e-09    7.700000e-01    6.456661e-01    1.188286e-01
    1.273029e+01    2.278094e+02    9.614735e-01    1.062567e+08    1.833325e-08    2.306266e-11    1.639512e-08    1.692560e-09    7.800000e-01    6.456661e-01    1.258193e-01
    1.205789e+01    2.230689e+02    1.088292e+00    1.134097e+08    1.841564e-08    2.468314e-11    1.650788e-08    1.701373e-09    7.900000e-01    6.456661e-01    1.328811e-01
    1.143575e+01    2.180624e+02    1.223893e+00    1.204574e+08    1.849247e-08    2.640726e-11    1.661353e-08    1.709583e-09    8.000000e-01    6.456661e-01    1.399983e-01
    1.086100e+01    2.128659e+02    1.368182e+00    1.273968e+08    1.856417e-08    2.824186e-11    1.671263e-08    1.717244e-09    8.100000e-01    6.456661e-01    1.471577e-01
    1.033051e+01    2.075421e+02    1.521056e+00    1.342294e+08    1.863115e-08    3.019424e-11    1.680568e-08    1.724406e-09    8.200000e-01    6.456661e-01    1.543485e-01
    9.841011e+00    2.021417e+02    1.682414e+00    1.409599e+08    1.869378e-08    3.227233e-11    1.689315e-08    1.731115e-09    8.300000e-01    6.456661e-01    1.615622e-01
    9.389255e+00    1.967050e+02    1.852157e+00    1.475950e+08    1.875243e-08    3.448457e-11    1.697548e-08    1.737415e-09    8.400000e-01    6.456661e-01    1.687918e-01
    8.972097e+00    1.912633e+02    2.030192e+00    1.541424e+08    1.880742e-08    3.684012e-11    1.705309e-08    1.743345e-09    8.500000e-01    6.456661e-01    1.760319e-01
    8.586538e+00    1.858404e+02    2.216431e+00    1.606099e+08    1.885906e-08    3.934877e-11    1.712635e-08    1.748941e-09    8.600000e-01    6.456661e-01    1.832784e-01
    8.229771e+00    1.804539e+02    2.410796e+00    1.670057e+08    1.890763e-08    4.202110e-11    1.719561e-08    1.754237e-09    8.700000e-01    6.456661e-01    1.905281e-01
    7.899200e+00    1.751167e+02    2.613214e+00    1.733370e+08    1.895339e-08    4.486849e-11    1.726119e-08    1.759265e-09    8.800000e-01    6.456661e-01    1.977785e-01
    7.592430e+00    1.698376e+02    2.823621e+00    1.796103e+08    1.899661e-08    4.790320e-11    1.732338e-08    1.764053e-09    8.900000e-01    6.456661e-01    2.050280e-01
    7.307284e+00    1.646229e+02    3.041959e+00    1.858318e+08    1.903748e-08    5.113840e-11    1.738245e-08    1.768627e-09    9.000000e-01    6.456661e-01    2.122753e-01
    7.041779e+00    1.594764e+02    3.268174e+00    1.920061e+08    1.907623e-08    5.458835e-11    1.743865e-08    1.773011e-09    9.100000e-01    6.456661e-01    2.195197e-01
    6.794123e+00    1.544005e+02    3.502219e+00    1.981376e+08    1.911305e-08    5.826840e-11    1.749220e-08    1.777227e-09    9.200000e-01    6.456661e-01    2.267604e-01
    6.562700e+00    1.493964e+02    3.744050e+00    2.042294e+08    1.914812e-08    6.219500e-11    1.754331e-08    1.781298e-09    9.300000e-01    6.456661e-01    2.339973e-01
    6.346051e+00    1.444646e+02    3.993627e+00    2.102842e+08    1.918158e-08    6.638595e-11    1.759216e-08    1.785241e-09    9.400000e-01    6.456661e-01    2.412302e-01
    6.142866e+00    1.396053e+02    4.250913e+00    2.163037e+08    1.921363e-08    7.086050e-11    1.763892e-08    1.789075e-09    9.500000e-01    6.456661e-01    2.484591e-01
    5.951967e+00    1.348182e+02    4.515871e+00    2.222893e+08    1.924437e-08    7.563925e-11    1.768377e-08    1.792816e-09    9.600000e-01    6.456661e-01    2.556842e-01
    5.772296e+00    1.301032e+02    4.788468e+00    2.282414e+08    1.927395e-08    8.074460e-11    1.772683e-08    1.796480e-09    9.700000e-01    6.456661e-01    2.629055e-01
    5.602899e+00    1.254600e+02    5.068670e+00    2.341604e+08    1.930249e-08    8.620055e-11    1.776823e-08    1.800082e-09    9.800000e-01    6.456661e-01    2.701232e-01
    5.442926e+00    1.208885e+02    5.356440e+00    2.400459e+08    1.933012e-08    9.203295e-11    1.780808e-08    1.803635e-09    9.900000e-01    6.456661e-01    2.773376e-01
    5.291599e+00    1.163889e+02    5.651750e+00    2.458972e+08    1.935693e-08    9.826985e-11    1.784650e-08    1.807153e-09    1.000000e+00    6.456661e-01    2.845489e-01
    5.148227e+00    1.119614e+02    5.954565e+00    2.517134e+08    1.938302e-08    1.049412e-10    1.788358e-08    1.810648e-09    1.010000e+00    6.456661e-01    2.917574e-01
    5.012182e+00    1.076066e+02    6.264850e+00    2.574932e+08    1.940850e-08    1.120797e-10    1.791940e-08    1.814131e-09    1.020000e+00    6.456661e-01    2.989633e-01
    4.882904e+00    1.033251e+02    6.582565e+00    2.632349e+08    1.943345e-08    1.197200e-10    1.795404e-08    1.817616e-09    1.030000e+00    6.456661e-01    3.061668e-01
    4.759877e+00    9.911795e+01    6.907675e+00    2.689367e+08    1.945797e-08    1.278997e-10    1.798756e-08    1.821111e-09    1.040000e+00    6.456661e-01    3.133682e-01
    4.642635e+00    9.498622e+01    7.240145e+00    2.745967e+08    1.948214e-08    1.366596e-10    1.802003e-08    1.824629e-09    1.050000e+00    6.456661e-01    3.205677e-01
    4.530760e+00    9.093127e+01    7.579930e+00    2.802125e+08    1.950603e-08    1.460429e-10    1.805150e-08    1.828178e-09    1.060000e+00    6.456661e-01    3.277654e-01
    4.423869e+00    8.695458e+01    7.926985e+00    2.857817e+08    1.952972e-08    1.560965e-10    1.808203e-08    1.831772e-09    1.070000e+00    6.456661e-01    3.349617e-01
    4.321607e+00    8.305783e+01    8.281275e+00    2.913015e+08    1.955330e-08    1.668706e-10    1.811163e-08    1.835419e-09    1.080000e+00    6.456661e-01    3.421566e-01
    4.223663e+00    7.924279e+01    8.642740e+00    2.967691e+08    1.957683e-08    1.784192e-10    1.814036e-08    1.839130e-09    1.090000e+00    6.456661e-01    3.493504e-01
    4.129740e+00    7.551133e+01    9.011335e+00    3.021812e+08    1.960039e-08    1.908000e-10    1.816824e-08    1.842914e-09    1.100000e+00    6.456661e-01    3.565432e-01
    4.039570e+00    7.186545e+01    9.387010e+00    3.075347e+08    1.962404e-08    2.040749e-10    1.819530e-08    1.846783e-09    1.110000e+00    6.456661e-01    3.637351e-01
    3.952905e+00    6.830711e+01    9.769705e+00    3.128258e+08    1.964787e-08    2.183101e-10    1.822156e-08    1.850745e-09    1.120000e+00    6.456661e-01    3.709264e-01
    3.869519e+00    6.483841e+01    1.015937e+01    3.180507e+08    1.967195e-08    2.335761e-10    1.824701e-08    1.854811e-09    1.130000e+00    6.456661e-01    3.781171e-01
    3.789201e+00    6.146141e+01    1.055592e+01    3.232053e+08    1.969634e-08    2.499481e-10    1.827168e-08    1.858994e-09    1.140000e+00    6.456661e-01    3.853074e-01
    3.711754e+00    5.817817e+01    1.095931e+01    3.282850e+08    1.972112e-08    2.675063e-10    1.829557e-08    1.863301e-09    1.150000e+00    6.456661e-01    3.924975e-01
    3.636997e+00    5.499071e+01    1.136946e+01    3.332852e+08    1.974636e-08    2.863353e-10    1.831868e-08    1.867744e-09    1.160000e+00    6.456661e-01    3.996874e-01
    3.564762e+00    5.190101e+01    1.178630e+01    3.382007e+08    1.977214e-08    3.065253e-10    1.834100e-08    1.872333e-09    1.170000e+00    6.456661e-01    4.068772e-01
    3.494887e+00    4.891091e+01    1.220975e+01    3.430260e+08    1.979853e-08    3.281708e-10    1.836253e-08    1.877080e-09    1.180000e+00    6.456661e-01    4.140671e-01
    3.427228e+00    4.602217e+01    1.263971e+01    3.477552e+08    1.982560e-08    3.513718e-10    1.838325e-08    1.881995e-09    1.190000e+00    6.456661e-01    4.212572e-01
    3.361641e+00    4.323643e+01    1.307610e+01    3.523818e+08    1.985345e-08    3.762328e-10    1.840315e-08    1.887090e-09    1.200000e+00    6.456661e-01    4.284476e-01
    3.297994e+00    4.055513e+01    1.351882e+01    3.568991e+08    1.988214e-08    4.028633e-10    1.842220e-08    1.892374e-09    1.210000e+00    6.456661e-01    4.356383e-01
    3.236163e+00    3.797954e+01    1.396776e+01    3.612999e+08    1.991174e-08    4.313766e-10    1.844037e-08    1.897861e-09    1.220000e+00    6.456661e-01    4.428296e-01
    3.176026e+00    3.551073e+01    1.442281e+01    3.655761e+08    1.994236e-08    4.618905e-10    1.845764e-08    1.903558e-09    1.230000e+00    6.456661e-01    4.500214e-01
    3.117473e+00    3.314949e+01    1.488386e+01    3.697196e+08    1.997405e-08    4.945259e-10    1.847399e-08    1.909480e-09    1.240000e+00    6.456661e-01    4.572140e-01
    3.060393e+00    3.089637e+01    1.535077e+01    3.737212e+08    2.000690e-08    5.294065e-10    1.848936e-08    1.915634e-09    1.250000e+00    6.456661e-01    4.644073e-01
    3.004684e+00    2.875164e+01    1.582340e+01    3.775719e+08    2.004099e-08    5.666580e-10    1.850373e-08    1.922032e-09    1.260000e+00    6.456661e-01    4.716015e-01
    2.950244e+00    2.671521e+01    1.630161e+01    3.812614e+08    2.007639e-08    6.064065e-10    1.851705e-08    1.928683e-09    1.270000e+00    6.456661e-01    4.787967e-01
    2.896981e+00    2.478668e+01    1.678522e+01    3.847795e+08    2.011319e-08    6.487790e-10    1.852927e-08    1.935597e-09    1.280000e+00    6.456661e-01    4.859930e-01
    2.844804e+00    2.296529e+01    1.727407e+01    3.881156e+08    2.015144e-08    6.938995e-10    1.854036e-08    1.942783e-09    1.290000e+00    6.456661e-01    4.931905e-01
    2.793626e+00    2.124990e+01    1.776798e+01    3.912582e+08    2.019124e-08    7.418900e-10    1.855025e-08    1.950247e-09    1.300000e+00    6.456661e-01    5.003892e-01
    2.743365e+00    1.963896e+01    1.826675e+01    3.941964e+08    2.023262e-08    7.928680e-10    1.855892e-08    1.957998e-09    1.310000e+00    6.456661e-01    5.075894e-01
    2.693947e+00    1.813058e+01    1.877015e+01    3.969190e+08    2.027567e-08    8.469430e-10    1.856630e-08    1.966040e-09    1.320000e+00    6.456661e-01    5.147909e-01
    2.645300e+00    1.672240e+01    1.927799e+01    3.994147e+08    2.032041e-08    9.042170e-10    1.857234e-08    1.974380e-09    1.330000e+00    6.456661e-01    5.219941e-01
    2.597360e+00    1.541173e+01    1.979000e+01    4.016732e+08    2.036691e-08    9.647825e-10    1.857701e-08    1.983020e-09    1.340000e+00    6.456661e-01    5.291989e-01
    2.550072e+00    1.419545e+01    2.030594e+01    4.036846e+08    2.041519e-08    1.028719e-09    1.858026e-08    1.991963e-09    1.350000e+00    6.456661e-01    5.364055e-01
    2.503386e+00    1.307012e+01    2.082554e+01    4.054398e+08    2.046528e-08    1.096090e-09    1.858204e-08    2.001209e-09    1.360000e+00    6.456661e-01    5.436140e-01
    2.457261e+00    1.203196e+01    2.134852e+01    4.069317e+08    2.051719e-08    1.166946e-09    1.858231e-08    2.010758e-09    1.370000e+00    6.456661e-01    5.508244e-01
    2.411669e+00    1.107691e+01    2.187462e+01    4.081547e+08    2.057092e-08    1.241315e-09    1.858105e-08    2.020607e-09    1.380000e+00    6.456661e-01    5.580369e-01
    2.366588e+00    1.020065e+01    2.240352e+01    4.091047e+08    2.062646e-08    1.319210e-09    1.857822e-08    2.030752e-09    1.390000e+00    6.456661e-01    5.652516e-01
    2.322010e+00    9.398675e+00    2.293492e+01    4.097806e+08    2.068378e-08    1.400619e-09    1.857381e-08    2.041188e-09    1.400000e+00    6.456661e-01    5.724686e-01
    2.277935e+00    8.666396e+00    2.346852e+01    4.101839e+08    2.074285e-08    1.485510e-09    1.856779e-08    2.051907e-09    1.410000e+00    6.456661e-01    5.796879e-01
    2.234369e+00    7.999081e+00    2.400400e+01    4.103174e+08    2.080362e-08    1.573827e-09    1.856017e-08    2.062902e-09    1.420000e+00    6.456661e-01    5.869097e-01
    2.191333e+00    7.392058e+00    2.454109e+01    4.101881e+08    2.086601e-08    1.665492e-09    1.855095e-08    2.074160e-09    1.430000e+00    6.456661e-01    5.941341e-01
    2.148850e+00    6.840666e+00    2.507947e+01    4.098041e+08    2.092995e-08    1.760404e-09    1.854013e-08    2.085671e-09    1.440000e+00    6.456661e-01    6.013612e-01
    2.106952e+00    6.340376e+00    2.561884e+01    4.091770e+08    2.099534e-08    1.858439e-09    1.852774e-08    2.097423e-09    1.450000e+00    6.456661e-01    6.085911e-01
    2.065672e+00    5.886802e+00    2.615892e+01    4.083192e+08    2.106209e-08    1.959450e-09    1.851380e-08    2.109403e-09    1.460000e+00    6.456661e-01    6.158239e-01
    2.025048e+00    5.475767e+00    2.669946e+01    4.072462e+08    2.113008e-08    2.063275e-09    1.849835e-08    2.121595e-09    1.470000e+00    6.456661e-01    6.230597e-01
    1.985114e+00    5.103312e+00    2.724019e+01    4.059727e+08    2.119918e-08    2.169729e-09    1.848143e-08    2.133984e-09    1.480000e+00    6.456661e-01    6.302987e-01
