# sky130 nfet_01v8 gm/ID Processed Lookup Table
# Corner: fs
# Temperature: 25C
# W = 2.0 um
# L = 0.18 um (180 nm)
# Columns: gm/id [1/V]  gm/gds [V/V]  id/W [A/m]  ft [Hz]  Cgg/W [F/m]  Cgd/W [F/m]  Cgs/W [F/m]  Cdb/W [F/m]  vgs [V]  vth [V]  vdsat [V]
# vdsat = BSIM4 saturation voltage (|VDS|_sat, positive); use for headroom / saturation / cascode-bias calculations
#           gm/id          gm/gds            id/W              ft           Cgg/W           Cgd/W           Cgs/W           Cdb/W             vgs             vth           vdsat
    2.857926e+01    3.581351e+01    9.287425e-05    8.229694e+05    5.133135e-10    1.232752e-13    4.976725e-11    7.707700e-12    3.300000e-01    7.781879e-01    4.157278e-02
    2.856684e+01    3.588577e+01    1.235922e-04    1.090978e+06    5.150595e-10    1.306976e-13    5.403335e-11    8.303520e-12    3.400000e-01    7.781879e-01    4.157320e-02
    2.854324e+01    3.595161e+01    1.644401e-04    1.444595e+06    5.171125e-10    1.384512e-13    5.865820e-11    8.942005e-12    3.500000e-01    7.781879e-01    4.157376e-02
    2.850913e+01    3.600999e+01    2.187254e-04    1.910399e+06    5.194925e-10    1.465287e-13    6.366695e-11    9.625470e-12    3.600000e-01    7.781879e-01    4.157451e-02
    2.846477e+01    3.605970e+01    2.908172e-04    2.522865e+06    5.222205e-10    1.549189e-13    6.908540e-11    1.035622e-11    3.700000e-01    7.781879e-01    4.157550e-02
    2.841004e+01    3.609942e+01    3.864791e-04    3.326565e+06    5.253175e-10    1.636057e-13    7.493990e-11    1.113654e-11    3.800000e-01    7.781879e-01    4.157681e-02
    2.834449e+01    3.612765e+01    5.132995e-04    4.378879e+06    5.288065e-10    1.725679e-13    8.125725e-11    1.196864e-11    3.900000e-01    7.781879e-01    4.157855e-02
    2.826742e+01    3.614271e+01    6.812500e-04    5.753387e+06    5.327080e-10    1.817781e-13    8.806410e-11    1.285464e-11    4.000000e-01    7.781879e-01    4.158085e-02
    2.817792e+01    3.614276e+01    9.034010e-04    7.543952e+06    5.370450e-10    1.912029e-13    9.538705e-11    1.379656e-11    4.100000e-01    7.781879e-01    4.158390e-02
    2.807483e+01    3.612581e+01    1.196842e-03    9.869721e+06    5.418380e-10    2.008014e-13    1.032519e-10    1.479620e-11    4.200000e-01    7.781879e-01    4.158793e-02
    2.795686e+01    3.608970e+01    1.583849e-03    1.288101e+07    5.471075e-10    2.105255e-13    1.116833e-10    1.585516e-11    4.300000e-01    7.781879e-01    4.159324e-02
    2.782256e+01    3.603216e+01    2.093358e-03    1.676622e+07    5.528735e-10    2.203192e-13    1.207043e-10    1.697478e-11    4.400000e-01    7.781879e-01    4.160023e-02
    2.767038e+01    3.595079e+01    2.762815e-03    2.175986e+07    5.591535e-10    2.301177e-13    1.303361e-10    1.815606e-11    4.500000e-01    7.781879e-01    4.160941e-02
    2.749869e+01    3.584314e+01    3.640469e-03    2.815149e+07    5.659630e-10    2.398486e-13    1.405966e-10    1.939965e-11    4.600000e-01    7.781879e-01    4.162145e-02
    2.730584e+01    3.570684e+01    4.788194e-03    3.629564e+07    5.733145e-10    2.494301e-13    1.515006e-10    2.070575e-11    4.700000e-01    7.781879e-01    4.163718e-02
    2.709020e+01    3.553955e+01    6.284920e-03    4.662215e+07    5.812190e-10    2.587727e-13    1.630592e-10    2.207409e-11    4.800000e-01    7.781879e-01    4.165768e-02
    2.685029e+01    3.533924e+01    8.230745e-03    5.964723e+07    5.896820e-10    2.677788e-13    1.752784e-10    2.350390e-11    4.900000e-01    7.781879e-01    4.168431e-02
    2.658478e+01    3.510420e+01    1.075180e-02    7.598379e+07    5.987060e-10    2.763434e-13    1.881594e-10    2.499382e-11    5.000000e-01    7.781879e-01    4.171879e-02
    2.629265e+01    3.483333e+01    1.400597e-02    9.635147e+07    6.082880e-10    2.843553e-13    2.016975e-10    2.654191e-11    5.100000e-01    7.781879e-01    4.176323e-02
    2.597330e+01    3.452617e+01    1.818934e-02    1.215849e+08    6.184215e-10    2.916979e-13    2.158817e-10    2.814560e-11    5.200000e-01    7.781879e-01    4.182028e-02
    2.562657e+01    3.418322e+01    2.354369e-02    1.526404e+08    6.290940e-10    2.982508e-13    2.306949e-10    2.980170e-11    5.300000e-01    7.781879e-01    4.189316e-02
    2.525296e+01    3.380605e+01    3.036460e-02    1.906012e+08    6.402865e-10    3.038915e-13    2.461127e-10    3.150641e-11    5.400000e-01    7.781879e-01    4.198576e-02
    2.485365e+01    3.339745e+01    3.901052e-02    2.366791e+08    6.519765e-10    3.084967e-13    2.621042e-10    3.325529e-11    5.500000e-01    7.781879e-01    4.210276e-02
    2.443053e+01    3.296157e+01    4.991248e-02    2.922176e+08    6.641340e-10    3.119449e-13    2.786314e-10    3.504334e-11    5.600000e-01    7.781879e-01    4.224970e-02
    2.398633e+01    3.250397e+01    6.358460e-02    3.586933e+08    6.767255e-10    3.141177e-13    2.956501e-10    3.686504e-11    5.700000e-01    7.781879e-01    4.243307e-02
    2.352446e+01    3.203153e+01    8.063545e-02    4.377226e+08    6.897105e-10    3.149027e-13    3.131097e-10    3.871440e-11    5.800000e-01    7.781879e-01    4.266034e-02
    2.304903e+01    3.155243e+01    1.017802e-01    5.310714e+08    7.030450e-10    3.141941e-13    3.309542e-10    4.058503e-11    5.900000e-01    7.781879e-01    4.294006e-02
    2.256463e+01    3.107580e+01    1.278540e-01    6.406735e+08    7.166810e-10    3.118956e-13    3.491226e-10    4.247028e-11    6.000000e-01    7.781879e-01    4.328181e-02
    2.207615e+01    3.061152e+01    1.598274e-01    7.686607e+08    7.305670e-10    3.079214e-13    3.675501e-10    4.436325e-11    6.100000e-01    7.781879e-01    4.369625e-02
    2.158858e+01    3.016979e+01    1.988231e-01    9.174023e+08    7.446480e-10    3.021978e-13    3.861691e-10    4.625698e-11    6.200000e-01    7.781879e-01    4.419504e-02
    2.110663e+01    2.976072e+01    2.461362e-01    1.089551e+09    7.588690e-10    2.946632e-13    4.049097e-10    4.814450e-11    6.300000e-01    7.781879e-01    4.479075e-02
    2.063462e+01    2.939398e+01    3.032572e-01    1.288106e+09    7.731720e-10    2.852700e-13    4.237014e-10    5.001895e-11    6.400000e-01    7.781879e-01    4.549678e-02
    2.017600e+01    2.907818e+01    3.718989e-01    1.516453e+09    7.875010e-10    2.739834e-13    4.424742e-10    5.187375e-11    6.500000e-01    7.781879e-01    4.632719e-02
    1.973337e+01    2.882075e+01    4.540261e-01    1.778427e+09    8.018000e-10    2.607822e-13    4.611592e-10    5.370250e-11    6.600000e-01    7.781879e-01    4.729653e-02
    1.930817e+01    2.862741e+01    5.518895e-01    2.078337e+09    8.160135e-10    2.456573e-13    4.796900e-10    5.549935e-11    6.700000e-01    7.781879e-01    4.841962e-02
    1.890066e+01    2.850206e+01    6.680595e-01    2.420954e+09    8.300910e-10    2.286115e-13    4.980034e-10    5.725875e-11    6.800000e-01    7.781879e-01    4.971126e-02
    1.850994e+01    2.844654e+01    8.054625e-01    2.811493e+09    8.439825e-10    2.096577e-13    5.160405e-10    5.897585e-11    6.900000e-01    7.781879e-01    5.118598e-02
    1.813397e+01    2.846051e+01    9.674125e-01    3.255502e+09    8.576435e-10    1.888179e-13    5.337470e-10    6.064625e-11    7.000000e-01    7.781879e-01    5.285769e-02
    1.776985e+01    2.854145e+01    1.157636e+00    3.758733e+09    8.710330e-10    1.661210e-13    5.510735e-10    6.226620e-11    7.100000e-01    7.781879e-01    5.473926e-02
    1.741393e+01    2.868473e+01    1.380291e+00    4.326925e+09    8.841140e-10    1.416016e-13    5.679770e-10    6.383255e-11    7.200000e-01    7.781879e-01    5.684214e-02
    1.706219e+01    2.888360e+01    1.639962e+00    4.965544e+09    8.968545e-10    1.152977e-13    5.844205e-10    6.534270e-11    7.300000e-01    7.781879e-01    5.917595e-02
    1.671047e+01    2.912952e+01    1.941650e+00    5.679465e+09    9.092270e-10    8.724915e-14    6.003715e-10    6.679480e-11    7.400000e-01    7.781879e-01    6.174802e-02
    1.635482e+01    2.941234e+01    2.290728e+00    6.472634e+09    9.212095e-10    5.749620e-14    6.158045e-10    6.818740e-11    7.500000e-01    7.781879e-01    6.456303e-02
    1.599180e+01    2.972075e+01    2.692877e+00    7.347723e+09    9.327840e-10    2.607724e-14    6.307000e-10    6.951980e-11    7.600000e-01    7.781879e-01    6.762267e-02
    1.561866e+01    3.004257e+01    3.154000e+00    8.305829e+09    9.439365e-10    6.972240e-15    6.450435e-10    7.079160e-11    7.700000e-01    7.781879e-01    7.092542e-02
    1.523360e+01    3.036538e+01    3.680113e+00    9.346222e+09    9.546575e-10    4.162117e-14    6.588250e-10    7.200305e-11    7.800000e-01    7.781879e-01    7.446645e-02
    1.483574e+01    3.067685e+01    4.277209e+00    1.046619e+10    9.649420e-10    7.784405e-14    6.720410e-10    7.315465e-11    7.900000e-01    7.781879e-01    7.823763e-02
    1.442524e+01    3.096547e+01    4.951130e+00    1.166104e+10    9.747880e-10    1.156219e-13    6.846905e-10    7.424735e-11    8.000000e-01    7.781879e-01    8.222771e-02
    1.400317e+01    3.122074e+01    5.707420e+00    1.292422e+10    9.841965e-10    1.549433e-13    6.967780e-10    7.528250e-11    8.100000e-01    7.781879e-01    8.642263e-02
    1.357134e+01    3.143370e+01    6.551190e+00    1.424749e+10    9.931720e-10    1.958049e-13    7.083095e-10    7.626155e-11    8.200000e-01    7.781879e-01    9.080595e-02
    1.313219e+01    3.159715e+01    7.487005e+00    1.562135e+10    1.001721e-09    2.382117e-13    7.192960e-10    7.718630e-11    8.300000e-01    7.781879e-01    9.535936e-02
    1.268855e+01    3.170581e+01    8.518800e+00    1.703541e+10    1.009852e-09    2.821783e-13    7.297500e-10    7.805865e-11    8.400000e-01    7.781879e-01    1.000632e-01
    1.224344e+01    3.175630e+01    9.649780e+00    1.847880e+10    1.017577e-09    3.277281e-13    7.396855e-10    7.888070e-11    8.500000e-01    7.781879e-01    1.048971e-01
    1.179990e+01    3.174714e+01    1.088243e+01    1.994070e+10    1.024906e-09    3.748944e-13    7.491200e-10    7.965460e-11    8.600000e-01    7.781879e-01    1.098406e-01
    1.136084e+01    3.167849e+01    1.221847e+01    2.141062e+10    1.031853e-09    4.237197e-13    7.580705e-10    8.038260e-11    8.700000e-01    7.781879e-01    1.148732e-01
    1.092890e+01    3.155196e+01    1.365888e+01    2.287882e+10    1.038433e-09    4.742568e-13    7.665555e-10    8.106700e-11    8.800000e-01    7.781879e-01    1.199755e-01
    1.050641e+01    3.137035e+01    1.520399e+01    2.433647e+10    1.044659e-09    5.265675e-13    7.745945e-10    8.171000e-11    8.900000e-01    7.781879e-01    1.251289e-01
    1.009531e+01    3.113734e+01    1.685347e+01    2.577587e+10    1.050548e-09    5.807240e-13    7.822080e-10    8.231390e-11    9.000000e-01    7.781879e-01    1.303162e-01
    9.697161e+00    3.085727e+01    1.860643e+01    2.719050e+10    1.056114e-09    6.368075e-13    7.894150e-10    8.288090e-11    9.100000e-01    7.781879e-01    1.355218e-01
    9.313140e+00    3.053485e+01    2.046153e+01    2.857502e+10    1.061373e-09    6.949090e-13    7.962355e-10    8.341330e-11    9.200000e-01    7.781879e-01    1.407314e-01
    8.944079e+00    3.017492e+01    2.241701e+01    2.992526e+10    1.066340e-09    7.551290e-13    8.026900e-10    8.391310e-11    9.300000e-01    7.781879e-01    1.459324e-01
    8.590490e+00    2.978237e+01    2.447078e+01    3.123806e+10    1.071031e-09    8.175790e-13    8.087975e-10    8.438240e-11    9.400000e-01    7.781879e-01    1.511139e-01
    8.252605e+00    2.936189e+01    2.662052e+01    3.251123e+10    1.075460e-09    8.823775e-13    8.145765e-10    8.482320e-11    9.500000e-01    7.781879e-01    1.562663e-01
    7.930434e+00    2.891798e+01    2.886369e+01    3.374343e+10    1.079642e-09    9.496550e-13    8.200455e-10    8.523735e-11    9.600000e-01    7.781879e-01    1.613815e-01
    7.623792e+00    2.845481e+01    3.119764e+01    3.493392e+10    1.083592e-09    1.019551e-12    8.252225e-10    8.562670e-11    9.700000e-01    7.781879e-01    1.664528e-01
    7.332345e+00    2.797619e+01    3.361966e+01    3.608265e+10    1.087321e-09    1.092215e-12    8.301250e-10    8.599300e-11    9.800000e-01    7.781879e-01    1.714745e-01
    7.055644e+00    2.748558e+01    3.612693e+01    3.718989e+10    1.090845e-09    1.167808e-12    8.347685e-10    8.633780e-11    9.900000e-01    7.781879e-01    1.764420e-01
    6.793159e+00    2.698606e+01    3.871671e+01    3.825635e+10    1.094175e-09    1.246497e-12    8.391690e-10    8.666270e-11    1.000000e+00    7.781879e-01    1.813518e-01
    6.544303e+00    2.648036e+01    4.138620e+01    3.928299e+10    1.097323e-09    1.328467e-12    8.433415e-10    8.696920e-11    1.010000e+00    7.781879e-01    1.862010e-01
    6.308449e+00    2.597089e+01    4.413268e+01    4.027092e+10    1.100301e-09    1.413907e-12    8.473005e-10    8.725860e-11    1.020000e+00    7.781879e-01    1.909877e-01
    6.084951e+00    2.545969e+01    4.695349e+01    4.122140e+10    1.103119e-09    1.503023e-12    8.510585e-10    8.753220e-11    1.030000e+00    7.781879e-01    1.957102e-01
    5.873164e+00    2.494857e+01    4.984602e+01    4.213576e+10    1.105788e-09    1.596028e-12    8.546285e-10    8.779125e-11    1.040000e+00    7.781879e-01    2.003677e-01
    5.672439e+00    2.443906e+01    5.280775e+01    4.301535e+10    1.108318e-09    1.693154e-12    8.580225e-10    8.803685e-11    1.050000e+00    7.781879e-01    2.049598e-01
    5.482155e+00    2.393245e+01    5.583620e+01    4.386156e+10    1.110717e-09    1.794641e-12    8.612515e-10    8.827010e-11    1.060000e+00    7.781879e-01    2.094863e-01
    5.301700e+00    2.342983e+01    5.892900e+01    4.467572e+10    1.112994e-09    1.900744e-12    8.643265e-10    8.849195e-11    1.070000e+00    7.781879e-01    2.139474e-01
    5.130487e+00    2.293213e+01    6.208390e+01    4.545915e+10    1.115158e-09    2.011734e-12    8.672570e-10    8.870340e-11    1.080000e+00    7.781879e-01    2.183437e-01
    4.967956e+00    2.244010e+01    6.529870e+01    4.621312e+10    1.117216e-09    2.127896e-12    8.700520e-10    8.890525e-11    1.090000e+00    7.781879e-01    2.226758e-01
    4.813581e+00    2.195438e+01    6.857125e+01    4.693884e+10    1.119176e-09    2.249534e-12    8.727205e-10    8.909835e-11    1.100000e+00    7.781879e-01    2.269446e-01
    4.666861e+00    2.147545e+01    7.189950e+01    4.763748e+10    1.121043e-09    2.376965e-12    8.752705e-10    8.928345e-11    1.110000e+00    7.781879e-01    2.311511e-01
    4.527322e+00    2.100375e+01    7.528150e+01    4.831010e+10    1.122825e-09    2.510527e-12    8.777095e-10    8.946125e-11    1.120000e+00    7.781879e-01    2.352965e-01
    4.394522e+00    2.053958e+01    7.871535e+01    4.895774e+10    1.124527e-09    2.650578e-12    8.800445e-10    8.963240e-11    1.130000e+00    7.781879e-01    2.393820e-01
    4.268045e+00    2.008319e+01    8.219925e+01    4.958138e+10    1.126155e-09    2.797495e-12    8.822820e-10    8.979755e-11    1.140000e+00    7.781879e-01    2.434089e-01
    4.147505e+00    1.963479e+01    8.573140e+01    5.018194e+10    1.127715e-09    2.951679e-12    8.844285e-10    8.995730e-11    1.150000e+00    7.781879e-01    2.473785e-01
    4.032539e+00    1.919450e+01    8.931010e+01    5.076028e+10    1.129212e-09    3.113552e-12    8.864885e-10    9.011210e-11    1.160000e+00    7.781879e-01    2.512922e-01
    3.922805e+00    1.876242e+01    9.293380e+01    5.131722e+10    1.130648e-09    3.283560e-12    8.884680e-10    9.026250e-11    1.170000e+00    7.781879e-01    2.551514e-01
    3.817992e+00    1.833858e+01    9.660080e+01    5.185346e+10    1.132031e-09    3.462178e-12    8.903720e-10    9.040900e-11    1.180000e+00    7.781879e-01    2.589575e-01
    3.717803e+00    1.792302e+01    1.003097e+02    5.236981e+10    1.133362e-09    3.649908e-12    8.922050e-10    9.055205e-11    1.190000e+00    7.781879e-01    2.627119e-01
    3.621966e+00    1.751573e+01    1.040589e+02    5.286687e+10    1.134646e-09    3.847280e-12    8.939700e-10    9.069200e-11    1.200000e+00    7.781879e-01    2.664160e-01
    3.530224e+00    1.711668e+01    1.078472e+02    5.334527e+10    1.135888e-09    4.054858e-12    8.956725e-10    9.082930e-11    1.210000e+00    7.781879e-01    2.700712e-01
    3.442341e+00    1.672582e+01    1.116730e+02    5.380564e+10    1.137089e-09    4.273236e-12    8.973150e-10    9.096435e-11    1.220000e+00    7.781879e-01    2.736789e-01
    3.358096e+00    1.634308e+01    1.155351e+02    5.424855e+10    1.138254e-09    4.503046e-12    8.989005e-10    9.109740e-11    1.230000e+00    7.781879e-01    2.772404e-01
    3.277282e+00    1.596838e+01    1.194322e+02    5.467450e+10    1.139385e-09    4.744956e-12    9.004330e-10    9.122890e-11    1.240000e+00    7.781879e-01    2.807572e-01
    3.199707e+00    1.560165e+01    1.233629e+02    5.508402e+10    1.140484e-09    4.999676e-12    9.019140e-10    9.135910e-11    1.250000e+00    7.781879e-01    2.842304e-01
    3.125192e+00    1.524276e+01    1.273263e+02    5.547757e+10    1.141557e-09    5.267955e-12    9.033470e-10    9.148835e-11    1.260000e+00    7.781879e-01    2.876615e-01
    3.053570e+00    1.489163e+01    1.313210e+02    5.585559e+10    1.142603e-09    5.550590e-12    9.047340e-10    9.161690e-11    1.270000e+00    7.781879e-01    2.910517e-01
    2.984686e+00    1.454814e+01    1.353459e+02    5.621855e+10    1.143626e-09    5.848420e-12    9.060770e-10    9.174500e-11    1.280000e+00    7.781879e-01    2.944023e-01
    2.918393e+00    1.421217e+01    1.393999e+02    5.656681e+10    1.144629e-09    6.162340e-12    9.073780e-10    9.187300e-11    1.290000e+00    7.781879e-01    2.977143e-01
    2.854555e+00    1.388360e+01    1.434819e+02    5.690076e+10    1.145613e-09    6.493295e-12    9.086385e-10    9.200115e-11    1.300000e+00    7.781879e-01    3.009892e-01
    2.793046e+00    1.356229e+01    1.475910e+02    5.722079e+10    1.146580e-09    6.842285e-12    9.098600e-10    9.212965e-11    1.310000e+00    7.781879e-01    3.042279e-01
    2.733745e+00    1.324813e+01    1.517262e+02    5.752727e+10    1.147533e-09    7.210375e-12    9.110440e-10    9.225875e-11    1.320000e+00    7.781879e-01    3.074316e-01
    2.676543e+00    1.294098e+01    1.558864e+02    5.782047e+10    1.148473e-09    7.598680e-12    9.121915e-10    9.238875e-11    1.330000e+00    7.781879e-01    3.106015e-01
    2.621334e+00    1.264072e+01    1.600706e+02    5.810077e+10    1.149403e-09    8.008390e-12    9.133040e-10    9.251980e-11    1.340000e+00    7.781879e-01    3.137385e-01
    2.568020e+00    1.234720e+01    1.642781e+02    5.836843e+10    1.150324e-09    8.440760e-12    9.143820e-10    9.265225e-11    1.350000e+00    7.781879e-01    3.168438e-01
    2.516510e+00    1.206030e+01    1.685077e+02    5.862374e+10    1.151238e-09    8.897115e-12    9.154260e-10    9.278620e-11    1.360000e+00    7.781879e-01    3.199184e-01
    2.466716e+00    1.177989e+01    1.727588e+02    5.886697e+10    1.152147e-09    9.378865e-12    9.164375e-10    9.292195e-11    1.370000e+00    7.781879e-01    3.229632e-01
    2.418560e+00    1.150583e+01    1.770303e+02    5.909843e+10    1.153052e-09    9.887485e-12    9.174165e-10    9.305970e-11    1.380000e+00    7.781879e-01    3.259792e-01
    2.371962e+00    1.123798e+01    1.813217e+02    5.931830e+10    1.153955e-09    1.042454e-11    9.183635e-10    9.319965e-11    1.390000e+00    7.781879e-01    3.289673e-01
    2.326853e+00    1.097623e+01    1.856319e+02    5.952686e+10    1.154858e-09    1.099168e-11    9.192785e-10    9.334210e-11    1.400000e+00    7.781879e-01    3.319285e-01
    2.283164e+00    1.072043e+01    1.899601e+02    5.972430e+10    1.155763e-09    1.159064e-11    9.201620e-10    9.348720e-11    1.410000e+00    7.781879e-01    3.348636e-01
