# sky130 nfet_01v8 gm/ID Processed Lookup Table
# Corner: fs
# Temperature: 25C
# W = 2.0 um
# L = 4 um (4000 nm)
# Columns: gm/id [1/V]  gm/gds [V/V]  id/W [A/m]  ft [Hz]  Cgg/W [F/m]  Cgd/W [F/m]  Cgs/W [F/m]  Cdb/W [F/m]  vgs [V]  vth [V]  vdsat [V]
# vdsat = BSIM4 saturation voltage (|VDS|_sat, positive); use for headroom / saturation / cascode-bias calculations
#           gm/id          gm/gds            id/W              ft           Cgg/W           Cgd/W           Cgs/W           Cdb/W             vgs             vth           vdsat
    2.756311e+01    2.042982e+02    3.880165e-05    1.724244e+04    9.871875e-09    1.269921e-12    3.893754e-09    5.420105e-10    3.000000e-01    5.764508e-01    3.734469e-02
    2.755555e+01    2.038857e+02    5.111480e-05    2.223928e+04    1.007987e-08    1.379096e-12    4.198505e-09    5.774360e-10    3.100000e-01    5.764508e-01    3.735173e-02
    2.752723e+01    2.034252e+02    6.732315e-05    2.863404e+04    1.030065e-08    1.497435e-12    4.518672e-09    6.142305e-10    3.200000e-01    5.764508e-01    3.736100e-02
    2.748042e+01    2.029135e+02    8.863770e-05    3.680229e+04    1.053385e-08    1.625621e-12    4.853793e-09    6.523175e-10    3.300000e-01    5.764508e-01    3.737318e-02
    2.741662e+01    2.023484e+02    1.166358e-04    4.721568e+04    1.077903e-08    1.764373e-12    5.203245e-09    6.916065e-10    3.400000e-01    5.764508e-01    3.738918e-02
    2.733678e+01    2.017287e+02    1.533674e-04    6.046511e+04    1.103560e-08    1.914450e-12    5.566245e-09    7.319915e-10    3.500000e-01    5.764508e-01    3.741014e-02
    2.724144e+01    2.010547e+02    2.014901e-04    7.728872e+04    1.130285e-08    2.076651e-12    5.941850e-09    7.733535e-10    3.600000e-01    5.764508e-01    3.743757e-02
    2.713091e+01    2.003296e+02    2.644400e-04    9.860644e+04    1.157995e-08    2.251818e-12    6.328985e-09    8.155610e-10    3.700000e-01    5.764508e-01    3.747339e-02
    2.700531e+01    1.995588e+02    3.466474e-04    1.255609e+05    1.186596e-08    2.440836e-12    6.726425e-09    8.584715e-10    3.800000e-01    5.764508e-01    3.752008e-02
    2.686481e+01    1.987524e+02    4.538066e-04    1.595680e+05    1.215987e-08    2.644633e-12    7.132835e-09    9.019355e-10    3.900000e-01    5.764508e-01    3.758078e-02
    2.670969e+01    1.979251e+02    5.932140e-04    2.023778e+05    1.246056e-08    2.864186e-12    7.546780e-09    9.457955e-10    4.000000e-01    5.764508e-01    3.765948e-02
    2.654035e+01    1.970982e+02    7.741900e-04    2.561479e+05    1.276685e-08    3.100522e-12    7.966750e-09    9.898900e-10    4.100000e-01    5.764508e-01    3.776120e-02
    2.635761e+01    1.963004e+02    1.008600e-03    3.235338e+05    1.307752e-08    3.354715e-12    8.391170e-09    1.034056e-09    4.200000e-01    5.764508e-01    3.789220e-02
    2.616258e+01    1.955686e+02    1.311502e-03    4.077993e+05    1.339132e-08    3.627898e-12    8.818450e-09    1.078131e-09    4.300000e-01    5.764508e-01    3.806028e-02
    2.595680e+01    1.949499e+02    1.701956e-03    5.129535e+05    1.370698e-08    3.921259e-12    9.246985e-09    1.121957e-09    4.400000e-01    5.764508e-01    3.827495e-02
    2.574216e+01    1.945008e+02    2.204013e-03    6.439180e+05    1.402325e-08    4.236044e-12    9.675180e-09    1.165378e-09    4.500000e-01    5.764508e-01    3.854782e-02
    2.552088e+01    1.942883e+02    2.847950e-03    8.067374e+05    1.433891e-08    4.573568e-12    1.010150e-08    1.208249e-09    4.600000e-01    5.764508e-01    3.889279e-02
    2.529518e+01    1.943876e+02    3.671802e-03    1.008829e+06    1.465276e-08    4.935211e-12    1.052445e-08    1.250432e-09    4.700000e-01    5.764508e-01    3.932632e-02
    2.506707e+01    1.948805e+02    4.723241e-03    1.259288e+06    1.496369e-08    5.322425e-12    1.094263e-08    1.291800e-09    4.800000e-01    5.764508e-01    3.986758e-02
    2.483788e+01    1.958516e+02    6.061885e-03    1.569224e+06    1.527064e-08    5.736745e-12    1.135473e-08    1.332238e-09    4.900000e-01    5.764508e-01    4.053857e-02
    2.460776e+01    1.973819e+02    7.762075e-03    1.952126e+06    1.557263e-08    6.179790e-12    1.175955e-08    1.371645e-09    5.000000e-01    5.764508e-01    4.136397e-02
    2.437517e+01    1.995427e+02    9.916180e-03    2.424199e+06    1.586879e-08    6.653255e-12    1.215600e-08    1.409934e-09    5.100000e-01    5.764508e-01    4.237095e-02
    2.413656e+01    2.023868e+02    1.263832e-02    3.004612e+06    1.615833e-08    7.158955e-12    1.254313e-08    1.447028e-09    5.200000e-01    5.764508e-01    4.358864e-02
    2.388614e+01    2.059404e+02    1.606848e-02    3.715561e+06    1.644056e-08    7.698790e-12    1.292011e-08    1.482869e-09    5.300000e-01    5.764508e-01    4.504741e-02
    2.361608e+01    2.101944e+02    2.037668e-02    4.582031e+06    1.671488e-08    8.274780e-12    1.328624e-08    1.517408e-09    5.400000e-01    5.764508e-01    4.677793e-02
    2.331717e+01    2.150990e+02    2.576676e-02    5.631149e+06    1.698083e-08    8.889070e-12    1.364096e-08    1.550611e-09    5.500000e-01    5.764508e-01    4.881001e-02
    2.297970e+01    2.205597e+02    3.247939e-02    6.891052e+06    1.723800e-08    9.543925e-12    1.398381e-08    1.582457e-09    5.600000e-01    5.764508e-01    5.117128e-02
    2.259468e+01    2.264385e+02    4.079341e-02    8.389257e+06    1.748609e-08    1.024176e-11    1.431448e-08    1.612938e-09    5.700000e-01    5.764508e-01    5.388588e-02
    2.215511e+01    2.325597e+02    5.102505e-02    1.015063e+07    1.772493e-08    1.098513e-11    1.463275e-08    1.642051e-09    5.800000e-01    5.764508e-01    5.697320e-02
    2.165682e+01    2.387187e+02    6.352455e-02    1.219513e+07    1.795436e-08    1.177677e-11    1.493851e-08    1.669807e-09    5.900000e-01    5.764508e-01    6.044683e-02
    2.109926e+01    2.446963e+02    7.866950e-02    1.453567e+07    1.817433e-08    1.261958e-11    1.523174e-08    1.696224e-09    6.000000e-01    5.764508e-01    6.431379e-02
    2.048541e+01    2.502722e+02    9.685585e-02    1.717630e+07    1.838489e-08    1.351665e-11    1.551250e-08    1.721330e-09    6.100000e-01    5.764508e-01    6.857415e-02
    1.982153e+01    2.552416e+02    1.184863e-01    2.011116e+07    1.858609e-08    1.447127e-11    1.578095e-08    1.745155e-09    6.200000e-01    5.764508e-01    7.322105e-02
    1.911638e+01    2.594273e+02    1.439573e-01    2.332428e+07    1.877809e-08    1.548698e-11    1.603730e-08    1.767736e-09    6.300000e-01    5.764508e-01    7.824118e-02
    1.838036e+01    2.626905e+02    1.736465e-01    2.679032e+07    1.896103e-08    1.656753e-11    1.628179e-08    1.789116e-09    6.400000e-01    5.764508e-01    8.361549e-02
    1.762455e+01    2.649360e+02    2.079002e-01    3.047620e+07    1.913517e-08    1.771693e-11    1.651474e-08    1.809338e-09    6.500000e-01    5.764508e-01    8.932025e-02
    1.685997e+01    2.661146e+02    2.470235e-01    3.434326e+07    1.930072e-08    1.893948e-11    1.673650e-08    1.828452e-09    6.600000e-01    5.764508e-01    9.532824e-02
    1.609682e+01    2.662202e+02    2.912733e-01    3.834981e+07    1.945798e-08    2.023978e-11    1.694743e-08    1.846505e-09    6.700000e-01    5.764508e-01    1.016100e-01
    1.534416e+01    2.652849e+02    3.408542e-01    4.245368e+07    1.960724e-08    2.162273e-11    1.714795e-08    1.863549e-09    6.800000e-01    5.764508e-01    1.081349e-01
    1.460953e+01    2.633713e+02    3.959173e-01    4.661439e+07    1.974880e-08    2.309361e-11    1.733847e-08    1.879634e-09    6.900000e-01    5.764508e-01    1.148723e-01
    1.389901e+01    2.605655e+02    4.565627e-01    5.079517e+07    1.988301e-08    2.465805e-11    1.751940e-08    1.894811e-09    7.000000e-01    5.764508e-01    1.217926e-01
    1.321712e+01    2.569673e+02    5.228430e-01    5.496394e+07    2.001015e-08    2.632212e-11    1.769119e-08    1.909131e-09    7.100000e-01    5.764508e-01    1.288675e-01
    1.256704e+01    2.526847e+02    5.947700e-01    5.909431e+07    2.013060e-08    2.809230e-11    1.785426e-08    1.922644e-09    7.200000e-01    5.764508e-01    1.360711e-01
    1.195074e+01    2.478267e+02    6.723205e-01    6.316565e+07    2.024465e-08    2.997555e-11    1.800904e-08    1.935398e-09    7.300000e-01    5.764508e-01    1.433796e-01
    1.136914e+01    2.424983e+02    7.554435e-01    6.716281e+07    2.035264e-08    3.197934e-11    1.815596e-08    1.947440e-09    7.400000e-01    5.764508e-01    1.507720e-01
    1.082234e+01    2.367975e+02    8.440685e-01    7.107583e+07    2.045489e-08    3.411172e-11    1.829542e-08    1.958818e-09    7.500000e-01    5.764508e-01    1.582298e-01
    1.030985e+01    2.308134e+02    9.381090e-01    7.489925e+07    2.055173e-08    3.638129e-11    1.842783e-08    1.969574e-09    7.600000e-01    5.764508e-01    1.657371e-01
    9.830622e+00    2.246243e+02    1.037472e+00    7.863122e+07    2.064345e-08    3.879732e-11    1.855358e-08    1.979751e-09    7.700000e-01    5.764508e-01    1.732804e-01
    9.383305e+00    2.182976e+02    1.142056e+00    8.227289e+07    2.073035e-08    4.136979e-11    1.867306e-08    1.989391e-09    7.800000e-01    5.764508e-01    1.808483e-01
    8.966294e+00    2.118901e+02    1.251764e+00    8.582750e+07    2.081273e-08    4.410941e-11    1.878660e-08    1.998531e-09    7.900000e-01    5.764508e-01    1.884316e-01
    8.577846e+00    2.054491e+02    1.366498e+00    8.930001e+07    2.089084e-08    4.702771e-11    1.889457e-08    2.007211e-09    8.000000e-01    5.764508e-01    1.960226e-01
    8.216165e+00    1.990126e+02    1.486166e+00    9.269629e+07    2.096497e-08    5.013710e-11    1.899729e-08    2.015464e-09    8.100000e-01    5.764508e-01    2.036155e-01
    7.879420e+00    1.926105e+02    1.610682e+00    9.602273e+07    2.103537e-08    5.345095e-11    1.909509e-08    2.023324e-09    8.200000e-01    5.764508e-01    2.112055e-01
    7.565828e+00    1.862665e+02    1.739966e+00    9.928599e+07    2.110228e-08    5.698365e-11    1.918824e-08    2.030824e-09    8.300000e-01    5.764508e-01    2.187890e-01
    7.273655e+00    1.799982e+02    1.873945e+00    1.024925e+08    2.116593e-08    6.075065e-11    1.927704e-08    2.037993e-09    8.400000e-01    5.764508e-01    2.263636e-01
    7.001247e+00    1.738185e+02    2.012554e+00    1.056486e+08    2.122654e-08    6.476870e-11    1.936176e-08    2.044860e-09    8.500000e-01    5.764508e-01    2.339273e-01
    6.747050e+00    1.677366e+02    2.155734e+00    1.087600e+08    2.128434e-08    6.905575e-11    1.944264e-08    2.051452e-09    8.600000e-01    5.764508e-01    2.414790e-01
    6.509594e+00    1.617586e+02    2.303434e+00    1.118318e+08    2.133951e-08    7.363120e-11    1.951992e-08    2.057796e-09    8.700000e-01    5.764508e-01    2.490181e-01
    6.287524e+00    1.558883e+02    2.455608e+00    1.148689e+08    2.139225e-08    7.851595e-11    1.959382e-08    2.063915e-09    8.800000e-01    5.764508e-01    2.565442e-01
    6.079582e+00    1.501278e+02    2.612215e+00    1.178752e+08    2.144274e-08    8.373255e-11    1.966455e-08    2.069834e-09    8.900000e-01    5.764508e-01    2.640574e-01
    5.884602e+00    1.444777e+02    2.773220e+00    1.208542e+08    2.149116e-08    8.930525e-11    1.973229e-08    2.075573e-09    9.000000e-01    5.764508e-01    2.715580e-01
    5.701523e+00    1.389379e+02    2.938591e+00    1.238089e+08    2.153765e-08    9.526025e-11    1.979725e-08    2.081154e-09    9.100000e-01    5.764508e-01    2.790466e-01
    5.529367e+00    1.335078e+02    3.108300e+00    1.267415e+08    2.158240e-08    1.016258e-10    1.985956e-08    2.086598e-09    9.200000e-01    5.764508e-01    2.865237e-01
    5.367240e+00    1.281863e+02    3.282322e+00    1.296539e+08    2.162553e-08    1.084323e-10    1.991940e-08    2.091923e-09    9.300000e-01    5.764508e-01    2.939900e-01
    5.214332e+00    1.229723e+02    3.460633e+00    1.325475e+08    2.166720e-08    1.157126e-10    1.997693e-08    2.097149e-09    9.400000e-01    5.764508e-01    3.014463e-01
    5.069896e+00    1.178648e+02    3.643213e+00    1.354232e+08    2.170755e-08    1.235020e-10    2.003225e-08    2.102291e-09    9.500000e-01    5.764508e-01    3.088934e-01
    4.933256e+00    1.128627e+02    3.830040e+00    1.382815e+08    2.174669e-08    1.318387e-10    2.008549e-08    2.107369e-09    9.600000e-01    5.764508e-01    3.163321e-01
    4.803796e+00    1.079654e+02    4.021098e+00    1.411226e+08    2.178477e-08    1.407637e-10    2.013679e-08    2.112398e-09    9.700000e-01    5.764508e-01    3.237633e-01
    4.680956e+00    1.031724e+02    4.216365e+00    1.439463e+08    2.182189e-08    1.503211e-10    2.018624e-08    2.117395e-09    9.800000e-01    5.764508e-01    3.311876e-01
    4.564223e+00    9.848366e+01    4.415824e+00    1.467522e+08    2.185818e-08    1.605585e-10    2.023392e-08    2.122374e-09    9.900000e-01    5.764508e-01    3.386059e-01
    4.453131e+00    9.389936e+01    4.619455e+00    1.495396e+08    2.189375e-08    1.715271e-10    2.027994e-08    2.127352e-09    1.000000e+00    5.764508e-01    3.460189e-01
    4.347256e+00    8.942001e+01    4.827238e+00    1.523074e+08    2.192871e-08    1.832818e-10    2.032438e-08    2.132343e-09    1.010000e+00    5.764508e-01    3.534273e-01
    4.246211e+00    8.504643e+01    5.039150e+00    1.550544e+08    2.196316e-08    1.958817e-10    2.036729e-08    2.137364e-09    1.020000e+00    5.764508e-01    3.608318e-01
    4.149635e+00    8.077974e+01    5.255175e+00    1.577791e+08    2.199722e-08    2.093900e-10    2.040875e-08    2.142426e-09    1.030000e+00    5.764508e-01    3.682329e-01
    4.057210e+00    7.662138e+01    5.475285e+00    1.604799e+08    2.203098e-08    2.238746e-10    2.044882e-08    2.147548e-09    1.040000e+00    5.764508e-01    3.756313e-01
    3.968635e+00    7.257295e+01    5.699455e+00    1.631546e+08    2.206455e-08    2.394083e-10    2.048753e-08    2.152740e-09    1.050000e+00    5.764508e-01    3.830274e-01
    3.883639e+00    6.863629e+01    5.927655e+00    1.658014e+08    2.209803e-08    2.560687e-10    2.052495e-08    2.158020e-09    1.060000e+00    5.764508e-01    3.904219e-01
    3.801965e+00    6.481338e+01    6.159860e+00    1.684178e+08    2.213152e-08    2.739385e-10    2.056110e-08    2.163401e-09    1.070000e+00    5.764508e-01    3.978151e-01
    3.723386e+00    6.110630e+01    6.396035e+00    1.710011e+08    2.216512e-08    2.931062e-10    2.059601e-08    2.168898e-09    1.080000e+00    5.764508e-01    4.052076e-01
    3.647681e+00    5.751722e+01    6.636150e+00    1.735486e+08    2.219893e-08    3.136655e-10    2.062970e-08    2.174525e-09    1.090000e+00    5.764508e-01    4.125996e-01
    3.574657e+00    5.404833e+01    6.880155e+00    1.760572e+08    2.223304e-08    3.357157e-10    2.066221e-08    2.180297e-09    1.100000e+00    5.764508e-01    4.199917e-01
    3.504125e+00    5.070174e+01    7.128015e+00    1.785236e+08    2.226756e-08    3.593624e-10    2.069353e-08    2.186229e-09    1.110000e+00    5.764508e-01    4.273841e-01
    3.435909e+00    4.747952e+01    7.379690e+00    1.809441e+08    2.230260e-08    3.847165e-10    2.072367e-08    2.192334e-09    1.120000e+00    5.764508e-01    4.347771e-01
    3.369850e+00    4.438359e+01    7.635120e+00    1.833148e+08    2.233824e-08    4.118947e-10    2.075264e-08    2.198630e-09    1.130000e+00    5.764508e-01    4.421711e-01
    3.305795e+00    4.141565e+01    7.894255e+00    1.856316e+08    2.237460e-08    4.410192e-10    2.078043e-08    2.205130e-09    1.140000e+00    5.764508e-01    4.495664e-01
    3.243598e+00    3.857718e+01    8.157035e+00    1.878898e+08    2.241177e-08    4.722174e-10    2.080702e-08    2.211848e-09    1.150000e+00    5.764508e-01    4.569631e-01
    3.183125e+00    3.586937e+01    8.423395e+00    1.900848e+08    2.244986e-08    5.056220e-10    2.083241e-08    2.218800e-09    1.160000e+00    5.764508e-01    4.643615e-01
    3.124244e+00    3.329300e+01    8.693265e+00    1.922111e+08    2.248897e-08    5.413695e-10    2.085656e-08    2.226000e-09    1.170000e+00    5.764508e-01    4.717619e-01
    3.066836e+00    3.084852e+01    8.966565e+00    1.942635e+08    2.252920e-08    5.796010e-10    2.087947e-08    2.233462e-09    1.180000e+00    5.764508e-01    4.791645e-01
    3.010782e+00    2.853587e+01    9.243215e+00    1.962359e+08    2.257065e-08    6.204595e-10    2.090109e-08    2.241201e-09    1.190000e+00    5.764508e-01    4.865694e-01
    2.955973e+00    2.635454e+01    9.523120e+00    1.981224e+08    2.261342e-08    6.640900e-10    2.092140e-08    2.249229e-09    1.200000e+00    5.764508e-01    4.939768e-01
    2.902304e+00    2.430349e+01    9.806180e+00    1.999166e+08    2.265761e-08    7.106390e-10    2.094035e-08    2.257560e-09    1.210000e+00    5.764508e-01    5.013869e-01
    2.849676e+00    2.238111e+01    1.009229e+01    2.016119e+08    2.270331e-08    7.602510e-10    2.095791e-08    2.266205e-09    1.220000e+00    5.764508e-01    5.087999e-01
    2.797996e+00    2.058523e+01    1.038134e+01    2.032017e+08    2.275062e-08    8.130695e-10    2.097404e-08    2.275177e-09    1.230000e+00    5.764508e-01    5.162159e-01
    2.747181e+00    1.891311e+01    1.067319e+01    2.046794e+08    2.279961e-08    8.692330e-10    2.098867e-08    2.284485e-09    1.240000e+00    5.764508e-01    5.236351e-01
    2.697150e+00    1.736143e+01    1.096772e+01    2.060385e+08    2.285036e-08    9.288740e-10    2.100178e-08    2.294139e-09    1.250000e+00    5.764508e-01    5.310575e-01
    2.647839e+00    1.592632e+01    1.126477e+01    2.072729e+08    2.290295e-08    9.921170e-10    2.101331e-08    2.304145e-09    1.260000e+00    5.764508e-01    5.384834e-01
    2.599185e+00    1.460341e+01    1.156421e+01    2.083770e+08    2.295744e-08    1.059076e-09    2.102322e-08    2.314512e-09    1.270000e+00    5.764508e-01    5.459128e-01
    2.551139e+00    1.338782e+01    1.186587e+01    2.093456e+08    2.301388e-08    1.129852e-09    2.103145e-08    2.325243e-09    1.280000e+00    5.764508e-01    5.533459e-01
    2.503664e+00    1.227431e+01    1.216958e+01    2.101749e+08    2.307231e-08    1.204530e-09    2.103798e-08    2.336340e-09    1.290000e+00    5.764508e-01    5.607828e-01
    2.456734e+00    1.125726e+01    1.247518e+01    2.108617e+08    2.313276e-08    1.283180e-09    2.104274e-08    2.347806e-09    1.300000e+00    5.764508e-01    5.682236e-01
    2.410335e+00    1.033083e+01    1.278249e+01    2.114043e+08    2.319524e-08    1.365850e-09    2.104572e-08    2.359639e-09    1.310000e+00    5.764508e-01    5.756685e-01
    2.364463e+00    9.489006e+00    1.309132e+01    2.118024e+08    2.325977e-08    1.452568e-09    2.104686e-08    2.371835e-09    1.320000e+00    5.764508e-01    5.831174e-01
    2.319128e+00    8.725693e+00    1.340151e+01    2.120569e+08    2.332631e-08    1.543338e-09    2.104618e-08    2.384390e-09    1.330000e+00    5.764508e-01    5.905706e-01
    2.274348e+00    8.034819e+00    1.371286e+01    2.121705e+08    2.339483e-08    1.638138e-09    2.104362e-08    2.397296e-09    1.340000e+00    5.764508e-01    5.980281e-01
    2.230150e+00    7.410415e+00    1.402520e+01    2.121470e+08    2.346531e-08    1.736921e-09    2.103918e-08    2.410545e-09    1.350000e+00    5.764508e-01    6.054900e-01
    2.186566e+00    6.846692e+00    1.433837e+01    2.119917e+08    2.353767e-08    1.839614e-09    2.103287e-08    2.424124e-09    1.360000e+00    5.764508e-01    6.129565e-01
    2.143634e+00    6.338097e+00    1.465218e+01    2.117111e+08    2.361182e-08    1.946117e-09    2.102470e-08    2.438020e-09    1.370000e+00    5.764508e-01    6.204276e-01
    2.101393e+00    5.879379e+00    1.496649e+01    2.113124e+08    2.368768e-08    2.056302e-09    2.101467e-08    2.452221e-09    1.380000e+00    5.764508e-01    6.279035e-01
