# sky130 nfet_01v8 gm/ID Processed Lookup Table
# Corner: ss
# Temperature: 25C
# W = 2.0 um
# L = 1.44 um (1440 nm)
# Columns: gm/id [1/V]  gm/gds [V/V]  id/W [A/m]  ft [Hz]  Cgg/W [F/m]  Cgd/W [F/m]  Cgs/W [F/m]  Vov [V]
#         gm/id          gm/gds            id/W              ft           Cgg/W           Cgd/W           Cgs/W             Vov
    2.716479e+01    1.484935e+02    3.064847e-08    4.398203e+01    3.012728e-09    4.192245e-14    1.112558e-10   -5.934287e-01
    2.716430e+01    1.484908e+02    3.510717e-08    5.048714e+01    3.006309e-09    4.344373e-14    1.154200e-10   -5.884287e-01
    2.716377e+01    1.484879e+02    4.021441e-08    5.794964e+01    3.000137e-09    4.502361e-14    1.197808e-10   -5.834287e-01
    2.716322e+01    1.484849e+02    4.606452e-08    6.650958e+01    2.994220e-09    4.666459e-14    1.243484e-10   -5.784287e-01
    2.716262e+01    1.484816e+02    5.276550e-08    7.632722e+01    2.988563e-09    4.836925e-14    1.291334e-10   -5.734287e-01
    2.716197e+01    1.484781e+02    6.044110e-08    8.758612e+01    2.983174e-09    5.014030e-14    1.341469e-10   -5.684287e-01
    2.716130e+01    1.484744e+02    6.923295e-08    1.004963e+02    2.978060e-09    5.198065e-14    1.394003e-10   -5.634287e-01
    2.716056e+01    1.484704e+02    7.930345e-08    1.152982e+02    2.973230e-09    5.389320e-14    1.449061e-10   -5.584287e-01
    2.715978e+01    1.484661e+02    9.083845e-08    1.322668e+02    2.968692e-09    5.588110e-14    1.506768e-10   -5.534287e-01
    2.715894e+01    1.484615e+02    1.040508e-07    1.517168e+02    2.964456e-09    5.794755e-14    1.567256e-10   -5.484287e-01
    2.715805e+01    1.484566e+02    1.191844e-07    1.740078e+02    2.960530e-09    6.009600e-14    1.630665e-10   -5.434287e-01
    2.715708e+01    1.484514e+02    1.365184e-07    1.995511e+02    2.956926e-09    6.232995e-14    1.697138e-10   -5.384287e-01
    2.715606e+01    1.484458e+02    1.563727e-07    2.288172e+02    2.953652e-09    6.465315e-14    1.766822e-10   -5.334287e-01
    2.715495e+01    1.484397e+02    1.791136e-07    2.623431e+02    2.950720e-09    6.706945e-14    1.839878e-10   -5.284287e-01
    2.715375e+01    1.484332e+02    2.051604e-07    3.007427e+02    2.948143e-09    6.958290e-14    1.916469e-10   -5.234287e-01
    2.715250e+01    1.484264e+02    2.349935e-07    3.447173e+02    2.945932e-09    7.219770e-14    1.996765e-10   -5.184287e-01
    2.715116e+01    1.484190e+02    2.691630e-07    3.950675e+02    2.944099e-09    7.491835e-14    2.080944e-10   -5.134287e-01
    2.714971e+01    1.484112e+02    3.082987e-07    4.527069e+02    2.942658e-09    7.774940e-14    2.169189e-10   -5.084287e-01
    2.714816e+01    1.484027e+02    3.531221e-07    5.186785e+02    2.941624e-09    8.069570e-14    2.261689e-10   -5.034287e-01
    2.714650e+01    1.483937e+02    4.044591e-07    5.941719e+02    2.941010e-09    8.376230e-14    2.358643e-10   -4.984287e-01
    2.714474e+01    1.483841e+02    4.632555e-07    6.805442e+02    2.940831e-09    8.695440e-14    2.460254e-10   -4.934287e-01
    2.714284e+01    1.483738e+02    5.305945e-07    7.793416e+02    2.941103e-09    9.027750e-14    2.566734e-10   -4.884287e-01
    2.714082e+01    1.483627e+02    6.077155e-07    8.923274e+02    2.941841e-09    9.373740e-14    2.678301e-10   -4.834287e-01
    2.713866e+01    1.483510e+02    6.960390e-07    1.021509e+03    2.943064e-09    9.733995e-14    2.795180e-10   -4.784287e-01
    2.713635e+01    1.483384e+02    7.971900e-07    1.169175e+03    2.944787e-09    1.010915e-13    2.917604e-10   -4.734287e-01
    2.713387e+01    1.483249e+02    9.130300e-07    1.337927e+03    2.947030e-09    1.049985e-13    3.045811e-10   -4.684287e-01
    2.713122e+01    1.483105e+02    1.045690e-06    1.530729e+03    2.949809e-09    1.090677e-13    3.180047e-10   -4.634287e-01
    2.712839e+01    1.482952e+02    1.197607e-06    1.750951e+03    2.953144e-09    1.133062e-13    3.320565e-10   -4.584287e-01
    2.712536e+01    1.482787e+02    1.371575e-06    2.002424e+03    2.957055e-09    1.177214e-13    3.467622e-10   -4.534287e-01
    2.712213e+01    1.482611e+02    1.570790e-06    2.289503e+03    2.961562e-09    1.223210e-13    3.621483e-10   -4.484287e-01
    2.711866e+01    1.482423e+02    1.798910e-06    2.617138e+03    2.966684e-09    1.271129e-13    3.782419e-10   -4.434287e-01
    2.711497e+01    1.482223e+02    2.060122e-06    2.990946e+03    2.972444e-09    1.321054e-13    3.950705e-10   -4.384287e-01
    2.711100e+01    1.482007e+02    2.359218e-06    3.417301e+03    2.978862e-09    1.373074e-13    4.126621e-10   -4.334287e-01
    2.710678e+01    1.481778e+02    2.701683e-06    3.903447e+03    2.985960e-09    1.427276e-13    4.310453e-10   -4.284287e-01
    2.710226e+01    1.481534e+02    3.093792e-06    4.457585e+03    2.993761e-09    1.483758e-13    4.502489e-10   -4.234287e-01
    2.709742e+01    1.481271e+02    3.542727e-06    5.089013e+03    3.002287e-09    1.542614e-13    4.703021e-10   -4.184287e-01
    2.709226e+01    1.480993e+02    4.056705e-06    5.808276e+03    3.011560e-09    1.603947e-13    4.912344e-10   -4.134287e-01
    2.708674e+01    1.480695e+02    4.645127e-06    6.627306e+03    3.021604e-09    1.667864e-13    5.130755e-10   -4.084287e-01
    2.708085e+01    1.480375e+02    5.318745e-06    7.559609e+03    3.032441e-09    1.734472e-13    5.358555e-10   -4.034287e-01
    2.707453e+01    1.480035e+02    6.089870e-06    8.620469e+03    3.044095e-09    1.803887e-13    5.596035e-10   -3.984287e-01
    2.706780e+01    1.479672e+02    6.972560e-06    9.827167e+03    3.056589e-09    1.876227e-13    5.843500e-10   -3.934287e-01
    2.706060e+01    1.479284e+02    7.982915e-06    1.119924e+04    3.069946e-09    1.951615e-13    6.101240e-10   -3.884287e-01
    2.705292e+01    1.478871e+02    9.139335e-06    1.275875e+04    3.084188e-09    2.030178e-13    6.369550e-10   -3.834287e-01
    2.704472e+01    1.478430e+02    1.046286e-05    1.453061e+04    3.099340e-09    2.112049e-13    6.648720e-10   -3.784287e-01
    2.703594e+01    1.477959e+02    1.197755e-05    1.654294e+04    3.115422e-09    2.197363e-13    6.939035e-10   -3.734287e-01
    2.702659e+01    1.477458e+02    1.371089e-05    1.882747e+04    3.132457e-09    2.286264e-13    7.240775e-10   -3.684287e-01
    2.701660e+01    1.476923e+02    1.569432e-05    2.141995e+04    3.150466e-09    2.378900e-13    7.554205e-10   -3.634287e-01
    2.700595e+01    1.476353e+02    1.796374e-05    2.436068e+04    3.169471e-09    2.475420e-13    7.879595e-10   -3.584287e-01
    2.699456e+01    1.475746e+02    2.056020e-05    2.769505e+04    3.189492e-09    2.575986e-13    8.217190e-10   -3.534287e-01
    2.698243e+01    1.475099e+02    2.353056e-05    3.147417e+04    3.210547e-09    2.680757e-13    8.567230e-10   -3.484287e-01
    2.696948e+01    1.474411e+02    2.692836e-05    3.575554e+04    3.232655e-09    2.789904e-13    8.929940e-10   -3.434287e-01
    2.695569e+01    1.473679e+02    3.081474e-05    4.060383e+04    3.255832e-09    2.903600e-13    9.305540e-10   -3.384287e-01
    2.694096e+01    1.472898e+02    3.525951e-05    4.609172e+04    3.280096e-09    3.022026e-13    9.694220e-10   -3.334287e-01
    2.692528e+01    1.472070e+02    4.034232e-05    5.230092e+04    3.305461e-09    3.145368e-13    1.009616e-09   -3.284287e-01
    2.690856e+01    1.471189e+02    4.615412e-05    5.932313e+04    3.331939e-09    3.273818e-13    1.051152e-09   -3.234287e-01
    2.689077e+01    1.470253e+02    5.279860e-05    6.726134e+04    3.359544e-09    3.407574e-13    1.094044e-09   -3.184287e-01
    2.687179e+01    1.469259e+02    6.039415e-05    7.623105e+04    3.388284e-09    3.546839e-13    1.138303e-09   -3.134287e-01
    2.685163e+01    1.468205e+02    6.907555e-05    8.636182e+04    3.418168e-09    3.691825e-13    1.183939e-09   -3.084287e-01
    2.683015e+01    1.467086e+02    7.899670e-05    9.779879e+04    3.449202e-09    3.842749e-13    1.230959e-09   -3.034287e-01
    2.680732e+01    1.465902e+02    9.033275e-05    1.107046e+05    3.481392e-09    3.999834e-13    1.279367e-09   -2.984287e-01
    2.678303e+01    1.464646e+02    1.032834e-04    1.252615e+05    3.514738e-09    4.163310e-13    1.329165e-09   -2.934287e-01
    2.675722e+01    1.463318e+02    1.180759e-04    1.416730e+05    3.549242e-09    4.333415e-13    1.380351e-09   -2.884287e-01
    2.672982e+01    1.461914e+02    1.349691e-04    1.601672e+05    3.584900e-09    4.510391e-13    1.432921e-09   -2.834287e-01
    2.670073e+01    1.460431e+02    1.542575e-04    1.809989e+05    3.621710e-09    4.694489e-13    1.486868e-09   -2.784287e-01
    2.666986e+01    1.458866e+02    1.762760e-04    2.044528e+05    3.659662e-09    4.885968e-13    1.542183e-09   -2.734287e-01
    2.663715e+01    1.457216e+02    2.014052e-04    2.308467e+05    3.698749e-09    5.085090e-13    1.598850e-09   -2.684287e-01
    2.660247e+01    1.455479e+02    2.300781e-04    2.605353e+05    3.738959e-09    5.292130e-13    1.656854e-09   -2.634287e-01
    2.656574e+01    1.453651e+02    2.627860e-04    2.939143e+05    3.780277e-09    5.507365e-13    1.716175e-09   -2.584287e-01
    2.652689e+01    1.451733e+02    3.000871e-04    3.314249e+05    3.822685e-09    5.731085e-13    1.776789e-09   -2.534287e-01
    2.648581e+01    1.449720e+02    3.426143e-04    3.735583e+05    3.866165e-09    5.963580e-13    1.838669e-09   -2.484287e-01
    2.644241e+01    1.447613e+02    3.910857e-04    4.208617e+05    3.910694e-09    6.205155e-13    1.901787e-09   -2.434287e-01
    2.639662e+01    1.445411e+02    4.463152e-04    4.739436e+05    3.956246e-09    6.456115e-13    1.966110e-09   -2.384287e-01
    2.634832e+01    1.443112e+02    5.092245e-04    5.334809e+05    4.002796e-09    6.716780e-13    2.031599e-09   -2.334287e-01
    2.629745e+01    1.440719e+02    5.808570e-04    6.002254e+05    4.050314e-09    6.987480e-13    2.098219e-09   -2.284287e-01
    2.624394e+01    1.438233e+02    6.623930e-04    6.750125e+05    4.098767e-09    7.268540e-13    2.165925e-09   -2.234287e-01
    2.618770e+01    1.435658e+02    7.551675e-04    7.587690e+05    4.148119e-09    7.560310e-13    2.234671e-09   -2.184287e-01
    2.612868e+01    1.432995e+02    8.606875e-04    8.525228e+05    4.198336e-09    7.863135e-13    2.304411e-09   -2.134287e-01
    2.606681e+01    1.430251e+02    9.806555e-04    9.574129e+05    4.249377e-09    8.177380e-13    2.375095e-09   -2.084287e-01
    2.600204e+01    1.427433e+02    1.116992e-03    1.074702e+06    4.301202e-09    8.503405e-13    2.446667e-09   -2.034287e-01
    2.593435e+01    1.424549e+02    1.271862e-03    1.205786e+06    4.353767e-09    8.841585e-13    2.519073e-09   -1.984287e-01
    2.586371e+01    1.421610e+02    1.447703e-03    1.352212e+06    4.407027e-09    9.192315e-13    2.592256e-09   -1.934287e-01
    2.579013e+01    1.418627e+02    1.647261e-03    1.515689e+06    4.460938e-09    9.555980e-13    2.666155e-09   -1.884287e-01
    2.571361e+01    1.415616e+02    1.873624e-03    1.698106e+06    4.515449e-09    9.932990e-13    2.740709e-09   -1.834287e-01
    2.563419e+01    1.412593e+02    2.130263e-03    1.901551e+06    4.570513e-09    1.032376e-12    2.815856e-09   -1.784287e-01
    2.555193e+01    1.409582e+02    2.421075e-03    2.128331e+06    4.626078e-09    1.072871e-12    2.891530e-09   -1.734287e-01
    2.546688e+01    1.406600e+02    2.750437e-03    2.380990e+06    4.682093e-09    1.114827e-12    2.967667e-09   -1.684287e-01
    2.537917e+01    1.403678e+02    3.123256e-03    2.662341e+06    4.738506e-09    1.158289e-12    3.044199e-09   -1.634287e-01
    2.528889e+01    1.400843e+02    3.545033e-03    2.975484e+06    4.795264e-09    1.203301e-12    3.121061e-09   -1.584287e-01
    2.519622e+01    1.398128e+02    4.021927e-03    3.323845e+06    4.852314e-09    1.249913e-12    3.198184e-09   -1.534287e-01
    2.510130e+01    1.395569e+02    4.560835e-03    3.711201e+06    4.909603e-09    1.298169e-12    3.275501e-09   -1.484287e-01
    2.500434e+01    1.393207e+02    5.169475e-03    4.141725e+06    4.967075e-09    1.348119e-12    3.352944e-09   -1.434287e-01
    2.490554e+01    1.391083e+02    5.856465e-03    4.620014e+06    5.024680e-09    1.399814e-12    3.430448e-09   -1.384287e-01
    2.480514e+01    1.389244e+02    6.631450e-03    5.151158e+06    5.082360e-09    1.453303e-12    3.507944e-09   -1.334287e-01
    2.470336e+01    1.387741e+02    7.505195e-03    5.740761e+06    5.140065e-09    1.508641e-12    3.585366e-09   -1.284287e-01
    2.460045e+01    1.386626e+02    8.489715e-03    6.395011e+06    5.197745e-09    1.565880e-12    3.662651e-09   -1.234287e-01
    2.449665e+01    1.385952e+02    9.598420e-03    7.120743e+06    5.255345e-09    1.625075e-12    3.739733e-09   -1.184287e-01
    2.439219e+01    1.385777e+02    1.084627e-02    7.925490e+06    5.312820e-09    1.686282e-12    3.816551e-09   -1.134287e-01
    2.428729e+01    1.386157e+02    1.224992e-02    8.817569e+06    5.370115e-09    1.749561e-12    3.893044e-09   -1.084287e-01
    2.418210e+01    1.387152e+02    1.382797e-02    9.806135e+06    5.427185e-09    1.814970e-12    3.969152e-09   -1.034287e-01
    2.407677e+01    1.388818e+02    1.560109e-02    1.090128e+07    5.483980e-09    1.882570e-12    4.044817e-09   -9.842870e-02
    2.397138e+01    1.391209e+02    1.759229e-02    1.211406e+07    5.540460e-09    1.952422e-12    4.119986e-09   -9.342870e-02
    2.386591e+01    1.394379e+02    1.982719e-02    1.345665e+07    5.596575e-09    2.024591e-12    4.194605e-09   -8.842870e-02
    2.376030e+01    1.398374e+02    2.233421e-02    1.494233e+07    5.652290e-09    2.099143e-12    4.268621e-09   -8.342870e-02
    2.365435e+01    1.403236e+02    2.514494e-02    1.658560e+07    5.707560e-09    2.176145e-12    4.341988e-09   -7.842870e-02
    2.354779e+01    1.408998e+02    2.829435e-02    1.840221e+07    5.762355e-09    2.255665e-12    4.414658e-09   -7.342870e-02
    2.344022e+01    1.415685e+02    3.182120e-02    2.040926e+07    5.816625e-09    2.337775e-12    4.486588e-09   -6.842870e-02
    2.333114e+01    1.423311e+02    3.576829e-02    2.262509e+07    5.870350e-09    2.422549e-12    4.557738e-09   -6.342870e-02
    2.321989e+01    1.431874e+02    4.018286e-02    2.506939e+07    5.923485e-09    2.510060e-12    4.628067e-09   -5.842870e-02
    2.310576e+01    1.441366e+02    4.511686e-02    2.776309e+07    5.976010e-09    2.600385e-12    4.697541e-09   -5.342870e-02
    2.298785e+01    1.451754e+02    5.062735e-02    3.072829e+07    6.027890e-09    2.693604e-12    4.766126e-09   -4.842870e-02
    2.286527e+01    1.462998e+02    5.677675e-02    3.398814e+07    6.079105e-09    2.789798e-12    4.833790e-09   -4.342870e-02
    2.273701e+01    1.475036e+02    6.363320e-02    3.756672e+07    6.129625e-09    2.889050e-12    4.900508e-09   -3.842870e-02
    2.260200e+01    1.487788e+02    7.127070e-02    4.148868e+07    6.179430e-09    2.991445e-12    4.966253e-09   -3.342870e-02
    2.245918e+01    1.501164e+02    7.976955e-02    4.577914e+07    6.228500e-09    3.097074e-12    5.031000e-09   -2.842870e-02
    2.230748e+01    1.515049e+02    8.921620e-02    5.046319e+07    6.276820e-09    3.206026e-12    5.094735e-09   -2.342870e-02
    2.214591e+01    1.529319e+02    9.970345e-02    5.556567e+07    6.324370e-09    3.318395e-12    5.157435e-09   -1.842870e-02
    2.197352e+01    1.543833e+02    1.113306e-01    6.111066e+07    6.371140e-09    3.434277e-12    5.219085e-09   -1.342870e-02
    2.178950e+01    1.558439e+02    1.242029e-01    6.712115e+07    6.417110e-09    3.553771e-12    5.279670e-09   -8.428700e-03
    2.159313e+01    1.572974e+02    1.384318e-01    7.361834e+07    6.462280e-09    3.676980e-12    5.339185e-09   -3.428700e-03
    2.138390e+01    1.587269e+02    1.541346e-01    8.062145e+07    6.506635e-09    3.804008e-12    5.397615e-09    1.571300e-03
    2.116143e+01    1.601152e+02    1.714334e-01    8.814715e+07    6.550165e-09    3.934964e-12    5.454960e-09    6.571300e-03
    2.092554e+01    1.614448e+02    1.904554e-01    9.620890e+07    6.592875e-09    4.069959e-12    5.511210e-09    1.157130e-02
    2.067626e+01    1.626984e+02    2.113315e-01    1.048169e+08    6.634755e-09    4.209108e-12    5.566370e-09    1.657130e-02
    2.041378e+01    1.638594e+02    2.341961e-01    1.139777e+08    6.675800e-09    4.352529e-12    5.620430e-09    2.157130e-02
    2.013850e+01    1.649119e+02    2.591856e-01    1.236934e+08    6.716015e-09    4.500346e-12    5.673400e-09    2.657130e-02
    1.985098e+01    1.658410e+02    2.864383e-01    1.339622e+08    6.755395e-09    4.652684e-12    5.725275e-09    3.157130e-02
    1.955195e+01    1.666336e+02    3.160926e-01    1.447778e+08    6.793950e-09    4.809672e-12    5.776065e-09    3.657130e-02
    1.924223e+01    1.672775e+02    3.482863e-01    1.561294e+08    6.831675e-09    4.971445e-12    5.825770e-09    4.157130e-02
    1.892285e+01    1.677629e+02    3.831557e-01    1.680021e+08    6.868580e-09    5.138140e-12    5.874405e-09    4.657130e-02
    1.859484e+01    1.680817e+02    4.208342e-01    1.803769e+08    6.904665e-09    5.309905e-12    5.921975e-09    5.157130e-02
    1.825935e+01    1.682274e+02    4.614516e-01    1.932304e+08    6.939945e-09    5.486875e-12    5.968485e-09    5.657130e-02
    1.791755e+01    1.681960e+02    5.051330e-01    2.065364e+08    6.974415e-09    5.669215e-12    6.013955e-09    6.157130e-02
    1.757064e+01    1.679853e+02    5.519980e-01    2.202649e+08    7.008095e-09    5.857080e-12    6.058390e-09    6.657130e-02
    1.721986e+01    1.675947e+02    6.021590e-01    2.343838e+08    7.040985e-09    6.050625e-12    6.101805e-09    7.157130e-02
    1.686636e+01    1.670261e+02    6.557230e-01    2.488583e+08    7.073100e-09    6.250020e-12    6.144215e-09    7.657130e-02
    1.651133e+01    1.662824e+02    7.127870e-01    2.636524e+08    7.104445e-09    6.455440e-12    6.185635e-09    8.157130e-02
    1.615585e+01    1.653684e+02    7.734420e-01    2.787285e+08    7.135040e-09    6.667060e-12    6.226075e-09    8.657130e-02
    1.580100e+01    1.642902e+02    8.377690e-01    2.940490e+08    7.164885e-09    6.885065e-12    6.265555e-09    9.157130e-02
    1.544776e+01    1.630553e+02    9.058405e-01    3.095757e+08    7.194000e-09    7.109650e-12    6.304085e-09    9.657130e-02
    1.509704e+01    1.616719e+02    9.777210e-01    3.252712e+08    7.222395e-09    7.341005e-12    6.341690e-09    1.015713e-01
    1.474969e+01    1.601491e+02    1.053465e+00    3.410984e+08    7.250085e-09    7.579340e-12    6.378385e-09    1.065713e-01
    1.440646e+01    1.584968e+02    1.133117e+00    3.570225e+08    7.277075e-09    7.824860e-12    6.414185e-09    1.115713e-01
    1.406804e+01    1.567251e+02    1.216718e+00    3.730088e+08    7.303390e-09    8.077785e-12    6.449105e-09    1.165713e-01
    1.373502e+01    1.548444e+02    1.304294e+00    3.890257e+08    7.329035e-09    8.338340e-12    6.483170e-09    1.215713e-01
    1.340793e+01    1.528654e+02    1.395868e+00    4.050432e+08    7.354025e-09    8.606755e-12    6.516390e-09    1.265713e-01
    1.308721e+01    1.507987e+02    1.491455e+00    4.210335e+08    7.378375e-09    8.883270e-12    6.548790e-09    1.315713e-01
    1.277325e+01    1.486546e+02    1.591060e+00    4.369716e+08    7.402095e-09    9.168130e-12    6.580385e-09    1.365713e-01
    1.246633e+01    1.464434e+02    1.694684e+00    4.528338e+08    7.425210e-09    9.461600e-12    6.611195e-09    1.415713e-01
    1.216673e+01    1.441748e+02    1.802322e+00    4.686007e+08    7.447720e-09    9.763945e-12    6.641235e-09    1.465713e-01
    1.187462e+01    1.418584e+02    1.913963e+00    4.842537e+08    7.469650e-09    1.007543e-11    6.670525e-09    1.515713e-01
    1.159013e+01    1.395029e+02    2.029592e+00    4.997777e+08    7.491005e-09    1.039635e-11    6.699085e-09    1.565713e-01
    1.131335e+01    1.371170e+02    2.149188e+00    5.151594e+08    7.511805e-09    1.072699e-11    6.726930e-09    1.615713e-01
