# sky130 nfet_01v8 gm/ID Processed Lookup Table
# Corner: ss
# Temperature: 25C
# W = 2.0 um
# L = 5.4 um (5400 nm)
# Columns: gm/id [1/V]  gm/gds [V/V]  id/W [A/m]  ft [Hz]  Cgg/W [F/m]  Cgd/W [F/m]  Cgs/W [F/m]  Vov [V]
#         gm/id          gm/gds            id/W              ft           Cgg/W           Cgd/W           Cgs/W             Vov
    2.762162e+01    2.446277e+02    1.328281e-08    5.204122e+00    1.122049e-08    1.996987e-13    5.079090e-10   -5.592034e-01
    2.762096e+01    2.446219e+02    1.524997e-08    5.984388e+00    1.120232e-08    2.071728e-13    5.281420e-10   -5.542034e-01
    2.762025e+01    2.446156e+02    1.750839e-08    6.880964e+00    1.118523e-08    2.149456e-13    5.493590e-10   -5.492034e-01
    2.761949e+01    2.446089e+02    2.010120e-08    7.911048e+00    1.116925e-08    2.230301e-13    5.716100e-10   -5.442034e-01
    2.761868e+01    2.446018e+02    2.307790e-08    9.094375e+00    1.115441e-08    2.314401e-13    5.949475e-10   -5.392034e-01
    2.761781e+01    2.445941e+02    2.649528e-08    1.045354e+01    1.114075e-08    2.401898e-13    6.194260e-10   -5.342034e-01
    2.761687e+01    2.445857e+02    3.041856e-08    1.201444e+01    1.112832e-08    2.492941e-13    6.451010e-10   -5.292034e-01
    2.761588e+01    2.445770e+02    3.492263e-08    1.380677e+01    1.111716e-08    2.587686e-13    6.720325e-10   -5.242034e-01
    2.761479e+01    2.445674e+02    4.009340e-08    1.586451e+01    1.110730e-08    2.686296e-13    7.002830e-10   -5.192034e-01
    2.761365e+01    2.445574e+02    4.602952e-08    1.822655e+01    1.109880e-08    2.788942e-13    7.299170e-10   -5.142034e-01
    2.761242e+01    2.445464e+02    5.284420e-08    2.093746e+01    1.109169e-08    2.895803e-13    7.610010e-10   -5.092034e-01
    2.761111e+01    2.445348e+02    6.066740e-08    2.404819e+01    1.108605e-08    3.007064e-13    7.936050e-10   -5.042034e-01
    2.760968e+01    2.445223e+02    6.964835e-08    2.761708e+01    1.108191e-08    3.122920e-13    8.278015e-10   -4.992034e-01
    2.760817e+01    2.445089e+02    7.995815e-08    3.171079e+01    1.107933e-08    3.243575e-13    8.636655e-10   -4.942034e-01
    2.760655e+01    2.444946e+02    9.179340e-08    3.640559e+01    1.107837e-08    3.369241e-13    9.012745e-10   -4.892034e-01
    2.760482e+01    2.444793e+02    1.053796e-07    4.178859e+01    1.107908e-08    3.500141e-13    9.407090e-10   -4.842034e-01
    2.760295e+01    2.444630e+02    1.209756e-07    4.795940e+01    1.108153e-08    3.636506e-13    9.820525e-10   -4.792034e-01
    2.760097e+01    2.444455e+02    1.388783e-07    5.503169e+01    1.108578e-08    3.778580e-13    1.025391e-09   -4.742034e-01
    2.759884e+01    2.444266e+02    1.594289e-07    6.313528e+01    1.109190e-08    3.926614e-13    1.070812e-09   -4.692034e-01
    2.759656e+01    2.444065e+02    1.830183e-07    7.241837e+01    1.109995e-08    4.080873e-13    1.118408e-09   -4.642034e-01
    2.759412e+01    2.443851e+02    2.100957e-07    8.305001e+01    1.111000e-08    4.241631e-13    1.168273e-09   -4.592034e-01
    2.759150e+01    2.443621e+02    2.411761e-07    9.522297e+01    1.112213e-08    4.409178e-13    1.220503e-09   -4.542034e-01
    2.758870e+01    2.443374e+02    2.768505e-07    1.091569e+02    1.113642e-08    4.583812e-13    1.275199e-09   -4.492034e-01
    2.758571e+01    2.443111e+02    3.177973e-07    1.251024e+02    1.115293e-08    4.765846e-13    1.332460e-09   -4.442034e-01
    2.758249e+01    2.442829e+02    3.647946e-07    1.433446e+02    1.117174e-08    4.955606e-13    1.392391e-09   -4.392034e-01
    2.757906e+01    2.442527e+02    4.187351e-07    1.642082e+02    1.119294e-08    5.153430e-13    1.455097e-09   -4.342034e-01
    2.757539e+01    2.442204e+02    4.806430e-07    1.880627e+02    1.121661e-08    5.359680e-13    1.520687e-09   -4.292034e-01
    2.757146e+01    2.441860e+02    5.516930e-07    2.153286e+02    1.124283e-08    5.574715e-13    1.589270e-09   -4.242034e-01
    2.756725e+01    2.441489e+02    6.332330e-07    2.464836e+02    1.127169e-08    5.798920e-13    1.660958e-09   -4.192034e-01
    2.756274e+01    2.441095e+02    7.268090e-07    2.820713e+02    1.130327e-08    6.032700e-13    1.735863e-09   -4.142034e-01
    2.755792e+01    2.440673e+02    8.341935e-07    3.227083e+02    1.133765e-08    6.276470e-13    1.814098e-09   -4.092034e-01
    2.755276e+01    2.440221e+02    9.574200e-07    3.690953e+02    1.137494e-08    6.530660e-13    1.895780e-09   -4.042034e-01
    2.754723e+01    2.439739e+02    1.098821e-06    4.220276e+02    1.141521e-08    6.795725e-13    1.981022e-09   -3.992034e-01
    2.754133e+01    2.439223e+02    1.261067e-06    4.824069e+02    1.145856e-08    7.072130e-13    2.069940e-09   -3.942034e-01
    2.753501e+01    2.438672e+02    1.447228e-06    5.512560e+02    1.150506e-08    7.360360e-13    2.162649e-09   -3.892034e-01
    2.752825e+01    2.438083e+02    1.660815e-06    6.297333e+02    1.155482e-08    7.660920e-13    2.259263e-09   -3.842034e-01
    2.752101e+01    2.437454e+02    1.905857e-06    7.191511e+02    1.160793e-08    7.974340e-13    2.359895e-09   -3.792034e-01
    2.751330e+01    2.436783e+02    2.186971e-06    8.209972e+02    1.166445e-08    8.301165e-13    2.464660e-09   -3.742034e-01
    2.750503e+01    2.436066e+02    2.509450e-06    9.369506e+02    1.172450e-08    8.641955e-13    2.573664e-09   -3.692034e-01
    2.749620e+01    2.435300e+02    2.879357e-06    1.068915e+03    1.178813e-08    8.997295e-13    2.687017e-09   -3.642034e-01
    2.748675e+01    2.434483e+02    3.303639e-06    1.219040e+03    1.185546e-08    9.367800e-13    2.804824e-09   -3.592034e-01
    2.747667e+01    2.433612e+02    3.790255e-06    1.389756e+03    1.192654e-08    9.754095e-13    2.927184e-09   -3.542034e-01
    2.746588e+01    2.432682e+02    4.348322e-06    1.583805e+03    1.200145e-08    1.015684e-12    3.054197e-09   -3.492034e-01
    2.745437e+01    2.431691e+02    4.988279e-06    1.804286e+03    1.208028e-08    1.057670e-12    3.185954e-09   -3.442034e-01
    2.744208e+01    2.430636e+02    5.722080e-06    2.054694e+03    1.216309e-08    1.101438e-12    3.322543e-09   -3.392034e-01
    2.742894e+01    2.429511e+02    6.563410e-06    2.338970e+03    1.224995e-08    1.147061e-12    3.464045e-09   -3.342034e-01
    2.741493e+01    2.428312e+02    7.527930e-06    2.661557e+03    1.234091e-08    1.194613e-12    3.610536e-09   -3.292034e-01
    2.739996e+01    2.427037e+02    8.633570e-06    3.027462e+03    1.243603e-08    1.244171e-12    3.762084e-09   -3.242034e-01
    2.738400e+01    2.425681e+02    9.900825e-06    3.442320e+03    1.253537e-08    1.295817e-12    3.918751e-09   -3.192034e-01
    2.736697e+01    2.424239e+02    1.135316e-05    3.912480e+03    1.263897e-08    1.349631e-12    4.080588e-09   -3.142034e-01
    2.734882e+01    2.422706e+02    1.301739e-05    4.445078e+03    1.274686e-08    1.405701e-12    4.247640e-09   -3.092034e-01
    2.732946e+01    2.421078e+02    1.492418e-05    5.048145e+03    1.285908e-08    1.464112e-12    4.419942e-09   -3.042034e-01
    2.730885e+01    2.419351e+02    1.710856e-05    5.730707e+03    1.297564e-08    1.524957e-12    4.597517e-09   -2.992034e-01
    2.728690e+01    2.417519e+02    1.961057e-05    6.502902e+03    1.309656e-08    1.588330e-12    4.780382e-09   -2.942034e-01
    2.726352e+01    2.415577e+02    2.247593e-05    7.376110e+03    1.322186e-08    1.654325e-12    4.968538e-09   -2.892034e-01
    2.723864e+01    2.413521e+02    2.575687e-05    8.363111e+03    1.335152e-08    1.723044e-12    5.161980e-09   -2.842034e-01
    2.721218e+01    2.411345e+02    2.951294e-05    9.478239e+03    1.348554e-08    1.794588e-12    5.360685e-09   -2.792034e-01
    2.718406e+01    2.409047e+02    3.381216e-05    1.073757e+04    1.362390e-08    1.869062e-12    5.564630e-09   -2.742034e-01
    2.715419e+01    2.406621e+02    3.873202e-05    1.215911e+04    1.376656e-08    1.946576e-12    5.773760e-09   -2.692034e-01
    2.712246e+01    2.404062e+02    4.436092e-05    1.376303e+04    1.391349e-08    2.027241e-12    5.988030e-09   -2.642034e-01
    2.708879e+01    2.401367e+02    5.079960e-05    1.557190e+04    1.406464e-08    2.111172e-12    6.207365e-09   -2.592034e-01
    2.705311e+01    2.398531e+02    5.816265e-05    1.761099e+04    1.421994e-08    2.198487e-12    6.431685e-09   -2.542034e-01
    2.701529e+01    2.395554e+02    6.658075e-05    1.990855e+04    1.437934e-08    2.289307e-12    6.660895e-09   -2.492034e-01
    2.697525e+01    2.392433e+02    7.620240e-05    2.249614e+04    1.454274e-08    2.383757e-12    6.894885e-09   -2.442034e-01
    2.693289e+01    2.389165e+02    8.719650e-05    2.540899e+04    1.471007e-08    2.481966e-12    7.133540e-09   -2.392034e-01
    2.688813e+01    2.385752e+02    9.975505e-05    2.868648e+04    1.488122e-08    2.584064e-12    7.376725e-09   -2.342034e-01
    2.684087e+01    2.382194e+02    1.140962e-04    3.237247e+04    1.505608e-08    2.690188e-12    7.624295e-09   -2.292034e-01
    2.679102e+01    2.378493e+02    1.304673e-04    3.651591e+04    1.523452e-08    2.800475e-12    7.876090e-09   -2.242034e-01
    2.673851e+01    2.374654e+02    1.491492e-04    4.117128e+04    1.541644e-08    2.915068e-12    8.131945e-09   -2.192034e-01
    2.668325e+01    2.370682e+02    1.704604e-04    4.639925e+04    1.560167e-08    3.034113e-12    8.391675e-09   -2.142034e-01
    2.662517e+01    2.366587e+02    1.947614e-04    5.226737e+04    1.579010e-08    3.157762e-12    8.655095e-09   -2.092034e-01
    2.656422e+01    2.362378e+02    2.224605e-04    5.885070e+04    1.598154e-08    3.286166e-12    8.921995e-09   -2.042034e-01
    2.650032e+01    2.358068e+02    2.540198e-04    6.623260e+04    1.617585e-08    3.419484e-12    9.192170e-09   -1.992034e-01
    2.643348e+01    2.353677e+02    2.899614e-04    7.450588e+04    1.637285e-08    3.557878e-12    9.465400e-09   -1.942034e-01
    2.636363e+01    2.349222e+02    3.308754e-04    8.377323e+04    1.657237e-08    3.701515e-12    9.741455e-09   -1.892034e-01
    2.629079e+01    2.344731e+02    3.774278e-04    9.414894e+04    1.677422e-08    3.850563e-12    1.002011e-08   -1.842034e-01
    2.621497e+01    2.340231e+02    4.303698e-04    1.057594e+05    1.697822e-08    4.005198e-12    1.030109e-08   -1.792034e-01
    2.613618e+01    2.335754e+02    4.905484e-04    1.187450e+05    1.718417e-08    4.165599e-12    1.058419e-08   -1.742034e-01
    2.605450e+01    2.331345e+02    5.589175e-04    1.332613e+05    1.739189e-08    4.331951e-12    1.086914e-08   -1.692034e-01
    2.596998e+01    2.327044e+02    6.365510e-04    1.494802e+05    1.760116e-08    4.504440e-12    1.115568e-08   -1.642034e-01
    2.588275e+01    2.322904e+02    7.246560e-04    1.675926e+05    1.781179e-08    4.683261e-12    1.144355e-08   -1.592034e-01
    2.579291e+01    2.318981e+02    8.245910e-04    1.878099e+05    1.802357e-08    4.868611e-12    1.173250e-08   -1.542034e-01
    2.570065e+01    2.315343e+02    9.378800e-04    2.103658e+05    1.823629e-08    5.060695e-12    1.202225e-08   -1.492034e-01
    2.560611e+01    2.312058e+02    1.066236e-03    2.355193e+05    1.844976e-08    5.259720e-12    1.231256e-08   -1.442034e-01
    2.550952e+01    2.309209e+02    1.211579e-03    2.635574e+05    1.866375e-08    5.465895e-12    1.260316e-08   -1.392034e-01
    2.541108e+01    2.306879e+02    1.376064e-03    2.947976e+05    1.887808e-08    5.679450e-12    1.289379e-08   -1.342034e-01
    2.531106e+01    2.305164e+02    1.562103e-03    3.295920e+05    1.909253e-08    5.900605e-12    1.318420e-08   -1.292034e-01
    2.520972e+01    2.304165e+02    1.772402e-03    3.683302e+05    1.930691e-08    6.129590e-12    1.347413e-08   -1.242034e-01
    2.510730e+01    2.303989e+02    2.009987e-03    4.114442e+05    1.952102e-08    6.366645e-12    1.376333e-08   -1.192034e-01
    2.500408e+01    2.304752e+02    2.278249e-03    4.594121e+05    1.973466e-08    6.612010e-12    1.405157e-08   -1.142034e-01
    2.490031e+01    2.306575e+02    2.580978e-03    5.127640e+05    1.994765e-08    6.865935e-12    1.433860e-08   -1.092034e-01
    2.479622e+01    2.309579e+02    2.922413e-03    5.720859e+05    2.015979e-08    7.128680e-12    1.462420e-08   -1.042034e-01
    2.469203e+01    2.313897e+02    3.307294e-03    6.380272e+05    2.037092e-08    7.400510e-12    1.490814e-08   -9.920340e-02
    2.458784e+01    2.319652e+02    3.740914e-03    7.113037e+05    2.058085e-08    7.681695e-12    1.519021e-08   -9.420340e-02
    2.448377e+01    2.326976e+02    4.229183e-03    7.927069e+05    2.078942e-08    7.972510e-12    1.547019e-08   -8.920340e-02
    2.437982e+01    2.335997e+02    4.778697e-03    8.831081e+05    2.099647e-08    8.273245e-12    1.574791e-08   -8.420340e-02
    2.427589e+01    2.346834e+02    5.396805e-03    9.834640e+05    2.120184e-08    8.584195e-12    1.602316e-08   -7.920340e-02
    2.417180e+01    2.359605e+02    6.091695e-03    1.094823e+06    2.140539e-08    8.905660e-12    1.629576e-08   -7.420340e-02
    2.406722e+01    2.374408e+02    6.872475e-03    1.218330e+06    2.160699e-08    9.237955e-12    1.656555e-08   -6.920340e-02
    2.396170e+01    2.391338e+02    7.749260e-03    1.355227e+06    2.180650e-08    9.581400e-12    1.683237e-08   -6.420340e-02
    2.385468e+01    2.410465e+02    8.733260e-03    1.506860e+06    2.200379e-08    9.936320e-12    1.709607e-08   -5.920340e-02
    2.374544e+01    2.431846e+02    9.836895e-03    1.674673e+06    2.219875e-08    1.030306e-11    1.735650e-08   -5.420340e-02
    2.363312e+01    2.455512e+02    1.107387e-02    1.860210e+06    2.239127e-08    1.068196e-11    1.761356e-08   -4.920340e-02
    2.351678e+01    2.481470e+02    1.245927e-02    2.065107e+06    2.258125e-08    1.107340e-11    1.786711e-08   -4.420340e-02
    2.339536e+01    2.509697e+02    1.400967e-02    2.291084e+06    2.276861e-08    1.147773e-11    1.811704e-08   -3.920340e-02
    2.326770e+01    2.540142e+02    1.574319e-02    2.539931e+06    2.295326e-08    1.189534e-11    1.836326e-08   -3.420340e-02
    2.313261e+01    2.572723e+02    1.767961e-02    2.813492e+06    2.313512e-08    1.232662e-11    1.860569e-08   -2.920340e-02
    2.298889e+01    2.607325e+02    1.984039e-02    3.113645e+06    2.331413e-08    1.277197e-11    1.884424e-08   -2.420340e-02
    2.283533e+01    2.643799e+02    2.224873e-02    3.442273e+06    2.349023e-08    1.323184e-11    1.907884e-08   -1.920340e-02
    2.267082e+01    2.681968e+02    2.492957e-02    3.801245e+06    2.366336e-08    1.370662e-11    1.930946e-08   -1.420340e-02
    2.249429e+01    2.721618e+02    2.790966e-02    4.192369e+06    2.383348e-08    1.419677e-11    1.953602e-08   -9.203400e-03
    2.230484e+01    2.762514e+02    3.121742e-02    4.617373e+06    2.400056e-08    1.470276e-11    1.975849e-08   -4.203400e-03
    2.210168e+01    2.804387e+02    3.488296e-02    5.077852e+06    2.416455e-08    1.522506e-11    1.997685e-08    7.966000e-04
    2.188426e+01    2.846953e+02    3.893795e-02    5.575249e+06    2.432544e-08    1.576414e-11    2.019107e-08    5.796600e-03
    2.165218e+01    2.889905e+02    4.341549e-02    6.110801e+06    2.448321e-08    1.632052e-11    2.040113e-08    1.079660e-02
    2.140528e+01    2.932923e+02    4.835000e-02    6.685515e+06    2.463785e-08    1.689472e-11    2.060702e-08    1.579660e-02
    2.114363e+01    2.975681e+02    5.377695e-02    7.300134e+06    2.478934e-08    1.748727e-11    2.080875e-08    2.079660e-02
    2.086752e+01    3.017849e+02    5.973265e-02    7.955111e+06    2.493770e-08    1.809874e-11    2.100633e-08    2.579660e-02
    2.057742e+01    3.059098e+02    6.625405e-02    8.650584e+06    2.508292e-08    1.872968e-11    2.119976e-08    3.079660e-02
    2.027402e+01    3.099105e+02    7.337845e-02    9.386357e+06    2.522502e-08    1.938070e-11    2.138907e-08    3.579660e-02
    1.995815e+01    3.137563e+02    8.114325e-02    1.016190e+07    2.536399e-08    2.005241e-11    2.157428e-08    4.079660e-02
    1.963084e+01    3.174179e+02    8.958545e-02    1.097636e+07    2.549989e-08    2.074544e-11    2.175541e-08    4.579660e-02
    1.929322e+01    3.208683e+02    9.874170e-02    1.182854e+07    2.563270e-08    2.146044e-11    2.193252e-08    5.079660e-02
    1.894651e+01    3.240829e+02    1.086476e-01    1.271692e+07    2.576248e-08    2.219809e-11    2.210562e-08    5.579660e-02
    1.859199e+01    3.270399e+02    1.193380e-01    1.363972e+07    2.588923e-08    2.295909e-11    2.227478e-08    6.079660e-02
    1.823102e+01    3.297202e+02    1.308458e-01    1.459487e+07    2.601300e-08    2.374417e-11    2.244003e-08    6.579660e-02
    1.786493e+01    3.321080e+02    1.432026e-01    1.558008e+07    2.613383e-08    2.455406e-11    2.260142e-08    7.079660e-02
    1.749508e+01    3.341910e+02    1.564384e-01    1.659286e+07    2.625175e-08    2.538955e-11    2.275903e-08    7.579660e-02
    1.712279e+01    3.359598e+02    1.705805e-01    1.763059e+07    2.636680e-08    2.625144e-11    2.291288e-08    8.079660e-02
    1.674932e+01    3.374077e+02    1.856547e-01    1.869051e+07    2.647902e-08    2.714054e-11    2.306305e-08    8.579660e-02
    1.637589e+01    3.385319e+02    2.016837e-01    1.976982e+07    2.658846e-08    2.805773e-11    2.320960e-08    9.079660e-02
    1.600365e+01    3.393318e+02    2.186887e-01    2.086568e+07    2.669518e-08    2.900388e-11    2.335259e-08    9.579660e-02
    1.563365e+01    3.398099e+02    2.366876e-01    2.197527e+07    2.679920e-08    2.997992e-11    2.349208e-08    1.007966e-01
    1.526688e+01    3.399707e+02    2.556964e-01    2.309581e+07    2.690059e-08    3.098680e-11    2.362815e-08    1.057966e-01
    1.490421e+01    3.398209e+02    2.757285e-01    2.422461e+07    2.699940e-08    3.202550e-11    2.376086e-08    1.107966e-01
    1.454646e+01    3.393696e+02    2.967949e-01    2.535910e+07    2.709567e-08    3.309705e-11    2.389028e-08    1.157966e-01
    1.419430e+01    3.386272e+02    3.189041e-01    2.649682e+07    2.718946e-08    3.420249e-11    2.401648e-08    1.207966e-01
    1.384838e+01    3.376053e+02    3.420629e-01    2.763551e+07    2.728083e-08    3.534292e-11    2.413953e-08    1.257966e-01
    1.350920e+01    3.363168e+02    3.662755e-01    2.877303e+07    2.736982e-08    3.651949e-11    2.425949e-08    1.307966e-01
    1.317722e+01    3.347755e+02    3.915442e-01    2.990749e+07    2.745648e-08    3.773335e-11    2.437644e-08    1.357966e-01
    1.285279e+01    3.329954e+02    4.178700e-01    3.103708e+07    2.754088e-08    3.898573e-11    2.449045e-08    1.407966e-01
    1.253621e+01    3.309914e+02    4.452516e-01    3.216031e+07    2.762307e-08    4.027790e-11    2.460160e-08    1.457966e-01
    1.222772e+01    3.287787e+02    4.736867e-01    3.327581e+07    2.770310e-08    4.161115e-11    2.470994e-08    1.507966e-01
    1.192747e+01    3.263717e+02    5.031715e-01    3.438243e+07    2.778102e-08    4.298684e-11    2.481554e-08    1.557966e-01
    1.163557e+01    3.237851e+02    5.337005e-01    3.547912e+07    2.785689e-08    4.440638e-11    2.491849e-08    1.607966e-01
    1.135208e+01    3.210334e+02    5.652680e-01    3.656513e+07    2.793076e-08    4.587123e-11    2.501884e-08    1.657966e-01
    1.107699e+01    3.181306e+02    5.978675e-01    3.763979e+07    2.800267e-08    4.738289e-11    2.511667e-08    1.707966e-01
    1.081027e+01    3.150903e+02    6.314915e-01    3.870259e+07    2.807271e-08    4.894292e-11    2.521204e-08    1.757966e-01
    1.055189e+01    3.119255e+02    6.661310e-01    3.975320e+07    2.814089e-08    5.055295e-11    2.530501e-08    1.807966e-01
    1.030173e+01    3.086484e+02    7.017775e-01    4.079140e+07    2.820729e-08    5.221470e-11    2.539565e-08    1.857966e-01
    1.005967e+01    3.052709e+02    7.384230e-01    4.181708e+07    2.827194e-08    5.392990e-11    2.548402e-08    1.907966e-01
    9.825567e+00    3.018035e+02    7.760575e-01    4.283018e+07    2.833491e-08    5.570030e-11    2.557020e-08    1.957966e-01
