# sky130 nfet_01v8 gm/ID Processed Lookup Table
# Corner: ss
# Temperature: 25C
# W = 2.0 um
# L = 5.22 um (5220 nm)
# Columns: gm/id [1/V]  gm/gds [V/V]  id/W [A/m]  ft [Hz]  Cgg/W [F/m]  Cgd/W [F/m]  Cgs/W [F/m]  Vov [V]
#         gm/id          gm/gds            id/W              ft           Cgg/W           Cgd/W           Cgs/W             Vov
    2.763422e+01    2.400254e+02    1.337035e-08    5.419682e+00    1.085016e-08    1.916804e-13    4.874079e-10   -5.599636e-01
    2.763357e+01    2.400198e+02    1.535143e-08    6.232755e+00    1.083244e-08    1.988545e-13    5.067995e-10   -5.549636e-01
    2.763287e+01    2.400138e+02    1.762600e-08    7.167104e+00    1.081574e-08    2.063152e-13    5.271340e-10   -5.499636e-01
    2.763214e+01    2.400074e+02    2.023751e-08    8.240683e+00    1.080012e-08    2.140751e-13    5.484595e-10   -5.449636e-01
    2.763133e+01    2.400004e+02    2.323585e-08    9.474075e+00    1.078559e-08    2.221473e-13    5.708260e-10   -5.399636e-01
    2.763046e+01    2.399929e+02    2.667831e-08    1.089086e+01    1.077220e-08    2.305454e-13    5.942860e-10   -5.349636e-01
    2.762956e+01    2.399850e+02    3.063064e-08    1.251810e+01    1.075999e-08    2.392838e-13    6.188930e-10   -5.299636e-01
    2.762856e+01    2.399764e+02    3.516834e-08    1.438675e+01    1.074898e-08    2.483775e-13    6.447045e-10   -5.249636e-01
    2.762750e+01    2.399672e+02    4.037805e-08    1.653230e+01    1.073925e-08    2.578421e-13    6.717800e-10   -5.199636e-01
    2.762637e+01    2.399574e+02    4.635926e-08    1.899539e+01    1.073081e-08    2.676940e-13    7.001825e-10   -5.149636e-01
    2.762515e+01    2.399468e+02    5.322615e-08    2.182251e+01    1.072372e-08    2.779503e-13    7.299755e-10   -5.099636e-01
    2.762385e+01    2.399355e+02    6.110980e-08    2.506690e+01    1.071802e-08    2.886288e-13    7.612255e-10   -5.049636e-01
    2.762245e+01    2.399235e+02    7.016070e-08    2.878949e+01    1.071377e-08    2.997484e-13    7.940030e-10   -4.999636e-01
    2.762096e+01    2.399105e+02    8.055150e-08    3.305990e+01    1.071103e-08    3.113285e-13    8.283800e-10   -4.949636e-01
    2.761936e+01    2.398967e+02    9.248050e-08    3.795783e+01    1.070983e-08    3.233895e-13    8.644300e-10   -4.899636e-01
    2.761766e+01    2.398820e+02    1.061751e-07    4.357430e+01    1.071024e-08    3.359527e-13    9.022320e-10   -4.849636e-01
    2.761582e+01    2.398661e+02    1.218967e-07    5.001339e+01    1.071233e-08    3.490405e-13    9.418650e-10   -4.799636e-01
    2.761386e+01    2.398491e+02    1.399449e-07    5.739390e+01    1.071614e-08    3.626760e-13    9.834120e-10   -4.749636e-01
    2.761176e+01    2.398310e+02    1.606635e-07    6.585153e+01    1.072175e-08    3.768836e-13    1.026958e-09   -4.699636e-01
    2.760951e+01    2.398116e+02    1.844477e-07    7.554123e+01    1.072922e-08    3.916886e-13    1.072592e-09   -4.649636e-01
    2.760710e+01    2.397908e+02    2.117502e-07    8.663966e+01    1.073861e-08    4.071175e-13    1.120402e-09   -4.599636e-01
    2.760453e+01    2.397685e+02    2.430911e-07    9.934844e+01    1.075000e-08    4.231978e-13    1.170485e-09   -4.549636e-01
    2.760177e+01    2.397447e+02    2.790671e-07    1.138974e+02    1.076345e-08    4.399583e-13    1.222933e-09   -4.499636e-01
    2.759880e+01    2.397191e+02    3.203626e-07    1.305485e+02    1.077905e-08    4.574291e-13    1.277845e-09   -4.449636e-01
    2.759564e+01    2.396918e+02    3.677634e-07    1.495999e+02    1.079687e-08    4.756415e-13    1.335321e-09   -4.399636e-01
    2.759225e+01    2.396627e+02    4.221707e-07    1.713917e+02    1.081697e-08    4.946282e-13    1.395463e-09   -4.349636e-01
    2.758863e+01    2.396314e+02    4.846185e-07    1.963103e+02    1.083945e-08    5.144230e-13    1.458375e-09   -4.299636e-01
    2.758475e+01    2.395981e+02    5.562930e-07    2.247955e+02    1.086439e-08    5.350615e-13    1.524164e-09   -4.249636e-01
    2.758058e+01    2.395623e+02    6.385560e-07    2.573479e+02    1.089186e-08    5.565805e-13    1.592935e-09   -4.199636e-01
    2.757615e+01    2.395241e+02    7.329670e-07    2.945360e+02    1.092194e-08    5.790185e-13    1.664799e-09   -4.149636e-01
    2.757139e+01    2.394832e+02    8.413180e-07    3.370058e+02    1.095473e-08    6.024155e-13    1.739865e-09   -4.099636e-01
    2.756629e+01    2.394396e+02    9.656625e-07    3.854909e+02    1.099030e-08    6.268130e-13    1.818243e-09   -4.049636e-01
    2.756085e+01    2.393928e+02    1.108355e-06    4.408239e+02    1.102876e-08    6.522545e-13    1.900046e-09   -3.999636e-01
    2.755502e+01    2.393429e+02    1.272097e-06    5.039497e+02    1.107016e-08    6.787845e-13    1.985384e-09   -3.949636e-01
    2.754878e+01    2.392896e+02    1.459985e-06    5.759394e+02    1.111461e-08    7.064505e-13    2.074369e-09   -3.899636e-01
    2.754211e+01    2.392325e+02    1.675571e-06    6.580071e+02    1.116220e-08    7.353000e-13    2.167113e-09   -3.849636e-01
    2.753497e+01    2.391716e+02    1.922924e-06    7.515280e+02    1.121300e-08    7.653845e-13    2.263724e-09   -3.799636e-01
    2.752735e+01    2.391066e+02    2.206710e-06    8.580607e+02    1.126709e-08    7.967560e-13    2.364310e-09   -3.749636e-01
    2.751919e+01    2.390371e+02    2.532279e-06    9.793662e+02    1.132458e-08    8.294690e-13    2.468981e-09   -3.699636e-01
    2.751048e+01    2.389630e+02    2.905756e-06    1.117440e+03    1.138553e-08    8.635795e-13    2.577840e-09   -3.649636e-01
    2.750115e+01    2.388838e+02    3.334168e-06    1.274536e+03    1.145002e-08    8.991460e-13    2.690988e-09   -3.599636e-01
    2.749118e+01    2.387994e+02    3.825557e-06    1.453201e+03    1.151815e-08    9.362295e-13    2.808524e-09   -3.549636e-01
    2.748054e+01    2.387093e+02    4.389142e-06    1.656315e+03    1.158997e-08    9.748920e-13    2.930543e-09   -3.499636e-01
    2.746916e+01    2.386135e+02    5.035480e-06    1.887125e+03    1.166556e-08    1.015200e-12    3.057137e-09   -3.449636e-01
    2.745703e+01    2.385109e+02    5.776650e-06    2.149300e+03    1.174499e-08    1.057219e-12    3.188389e-09   -3.399636e-01
    2.744404e+01    2.384019e+02    6.626505e-06    2.446976e+03    1.182832e-08    1.101020e-12    3.324380e-09   -3.349636e-01
    2.743020e+01    2.382858e+02    7.600875e-06    2.784813e+03    1.191562e-08    1.146674e-12    3.465185e-09   -3.299636e-01
    2.741543e+01    2.381623e+02    8.717895e-06    3.168069e+03    1.200694e-08    1.194256e-12    3.610870e-09   -3.249636e-01
    2.739965e+01    2.380308e+02    9.998310e-06    3.602659e+03    1.210232e-08    1.243844e-12    3.761495e-09   -3.199636e-01
    2.738283e+01    2.378909e+02    1.146584e-05    4.095247e+03    1.220181e-08    1.295515e-12    3.917114e-09   -3.149636e-01
    2.736490e+01    2.377422e+02    1.314764e-05    4.653332e+03    1.230545e-08    1.349353e-12    4.077769e-09   -3.099636e-01
    2.734577e+01    2.375842e+02    1.507472e-05    5.285344e+03    1.241328e-08    1.405442e-12    4.243495e-09   -3.049636e-01
    2.732539e+01    2.374166e+02    1.728256e-05    6.000763e+03    1.252530e-08    1.463870e-12    4.414321e-09   -2.999636e-01
    2.730368e+01    2.372387e+02    1.981167e-05    6.810237e+03    1.264155e-08    1.524727e-12    4.590259e-09   -2.949636e-01
    2.728059e+01    2.370504e+02    2.270835e-05    7.725743e+03    1.276201e-08    1.588105e-12    4.771316e-09   -2.899636e-01
    2.725598e+01    2.368507e+02    2.602544e-05    8.760688e+03    1.288671e-08    1.654100e-12    4.957486e-09   -2.849636e-01
    2.722982e+01    2.366394e+02    2.982330e-05    9.930151e+03    1.301562e-08    1.722811e-12    5.148755e-09   -2.799636e-01
    2.720201e+01    2.364161e+02    3.417075e-05    1.125102e+04    1.314873e-08    1.794339e-12    5.345090e-09   -2.749636e-01
    2.717246e+01    2.361804e+02    3.914634e-05    1.274224e+04    1.328601e-08    1.868790e-12    5.546455e-09   -2.699636e-01
    2.714107e+01    2.359317e+02    4.483960e-05    1.442501e+04    1.342742e-08    1.946270e-12    5.752795e-09   -2.649636e-01
    2.710777e+01    2.356696e+02    5.135255e-05    1.632309e+04    1.357292e-08    2.026890e-12    5.964045e-09   -2.599636e-01
    2.707245e+01    2.353939e+02    5.880140e-05    1.846305e+04    1.372246e-08    2.110763e-12    6.180130e-09   -2.549636e-01
    2.703502e+01    2.351042e+02    6.731850e-05    2.087460e+04    1.387597e-08    2.198007e-12    6.400960e-09   -2.499636e-01
    2.699537e+01    2.348003e+02    7.705445e-05    2.359095e+04    1.403336e-08    2.288742e-12    6.626435e-09   -2.449636e-01
    2.695343e+01    2.344821e+02    8.818045e-05    2.664922e+04    1.419457e-08    2.383092e-12    6.856440e-09   -2.399636e-01
    2.690910e+01    2.341496e+02    1.008912e-04    3.009081e+04    1.435948e-08    2.481182e-12    7.090850e-09   -2.349636e-01
    2.686229e+01    2.338028e+02    1.154078e-04    3.396194e+04    1.452800e-08    2.583143e-12    7.329520e-09   -2.299636e-01
    2.681289e+01    2.334418e+02    1.319814e-04    3.831411e+04    1.470002e-08    2.689109e-12    7.572300e-09   -2.249636e-01
    2.676084e+01    2.330671e+02    1.508968e-04    4.320474e+04    1.487540e-08    2.799217e-12    7.819040e-09   -2.199636e-01
    2.670605e+01    2.326793e+02    1.724772e-04    4.869774e+04    1.505403e-08    2.913608e-12    8.069550e-09   -2.149636e-01
    2.664845e+01    2.322789e+02    1.970884e-04    5.486423e+04    1.523575e-08    3.032426e-12    8.323660e-09   -2.099636e-01
    2.658798e+01    2.318671e+02    2.251450e-04    6.178334e+04    1.542043e-08    3.155819e-12    8.581170e-09   -2.049636e-01
    2.652458e+01    2.314453e+02    2.571160e-04    6.954303e+04    1.560789e-08    3.283941e-12    8.841880e-09   -1.999636e-01
    2.645822e+01    2.310148e+02    2.935317e-04    7.824088e+04    1.579800e-08    3.416946e-12    9.105580e-09   -1.949636e-01
    2.638886e+01    2.305778e+02    3.349913e-04    8.798544e+04    1.599056e-08    3.554993e-12    9.372045e-09   -1.899636e-01
    2.631650e+01    2.301364e+02    3.821714e-04    9.889696e+04    1.618540e-08    3.698249e-12    9.641050e-09   -1.849636e-01
    2.624115e+01    2.296935e+02    4.358354e-04    1.111089e+05    1.638236e-08    3.846880e-12    9.912365e-09   -1.799636e-01
    2.616282e+01    2.292521e+02    4.968439e-04    1.247693e+05    1.658124e-08    4.001060e-12    1.018575e-08   -1.749636e-01
    2.608156e+01    2.288164e+02    5.661665e-04    1.400420e+05    1.678184e-08    4.160964e-12    1.046096e-08   -1.699636e-01
    2.599746e+01    2.283902e+02    6.448945e-04    1.571087e+05    1.698399e-08    4.326776e-12    1.073775e-08   -1.649636e-01
    2.591062e+01    2.279785e+02    7.342560e-04    1.761706e+05    1.718747e-08    4.498680e-12    1.101587e-08   -1.599636e-01
    2.582113e+01    2.275871e+02    8.356320e-04    1.974506e+05    1.739210e-08    4.676868e-12    1.129506e-08   -1.549636e-01
    2.572917e+01    2.272219e+02    9.505730e-04    2.211954e+05    1.759768e-08    4.861536e-12    1.157508e-08   -1.499636e-01
    2.563488e+01    2.268899e+02    1.080821e-03    2.476782e+05    1.780400e-08    5.052885e-12    1.185568e-08   -1.449636e-01
    2.553851e+01    2.265988e+02    1.228330e-03    2.772018e+05    1.801086e-08    5.251120e-12    1.213658e-08   -1.399636e-01
    2.544024e+01    2.263567e+02    1.395291e-03    3.101012e+05    1.821808e-08    5.456450e-12    1.241756e-08   -1.349636e-01
    2.534032e+01    2.261728e+02    1.584161e-03    3.467477e+05    1.842544e-08    5.669095e-12    1.269836e-08   -1.299636e-01
    2.523901e+01    2.260570e+02    1.797692e-03    3.875526e+05    1.863276e-08    5.889280e-12    1.297873e-08   -1.249636e-01
    2.513658e+01    2.260195e+02    2.038967e-03    4.329713e+05    1.883985e-08    6.117230e-12    1.325844e-08   -1.199636e-01
    2.503329e+01    2.260716e+02    2.311434e-03    4.835086e+05    1.904651e-08    6.353180e-12    1.353724e-08   -1.149636e-01
    2.492940e+01    2.262249e+02    2.618954e-03    5.397232e+05    1.925257e-08    6.597375e-12    1.381492e-08   -1.099636e-01
    2.482513e+01    2.264914e+02    2.965843e-03    6.022340e+05    1.945784e-08    6.850055e-12    1.409124e-08   -1.049636e-01
    2.472070e+01    2.268837e+02    3.356927e-03    6.717257e+05    1.966215e-08    7.111480e-12    1.436599e-08   -9.996360e-02
    2.461627e+01    2.274142e+02    3.797597e-03    7.489546e+05    1.986533e-08    7.381910e-12    1.463895e-08   -9.496360e-02
    2.451192e+01    2.280957e+02    4.293872e-03    8.347560e+05    2.006721e-08    7.661610e-12    1.490993e-08   -8.996360e-02
    2.440769e+01    2.289406e+02    4.852470e-03    9.300501e+05    2.026765e-08    7.950860e-12    1.517875e-08   -8.496360e-02
    2.430351e+01    2.299607e+02    5.480880e-03    1.035848e+06    2.046649e-08    8.249940e-12    1.544520e-08   -7.996360e-02
    2.419917e+01    2.311674e+02    6.187450e-03    1.153258e+06    2.066358e-08    8.559145e-12    1.570912e-08   -7.496360e-02
    2.409444e+01    2.325709e+02    6.981450e-03    1.283492e+06    2.085880e-08    8.878770e-12    1.597034e-08   -6.996360e-02
    2.398881e+01    2.341803e+02    7.873210e-03    1.427864e+06    2.105202e-08    9.209130e-12    1.622871e-08   -6.496360e-02
    2.388181e+01    2.360029e+02    8.874155e-03    1.587802e+06    2.124311e-08    9.550540e-12    1.648408e-08   -5.996360e-02
    2.377271e+01    2.380445e+02    9.996950e-03    1.764836e+06    2.143196e-08    9.903325e-12    1.673632e-08   -5.496360e-02
    2.366069e+01    2.403081e+02    1.125559e-02    1.960608e+06    2.161847e-08    1.026783e-11    1.698529e-08   -4.996360e-02
    2.354481e+01    2.427951e+02    1.266549e-02    2.176858e+06    2.180254e-08    1.064438e-11    1.723089e-08   -4.496360e-02
    2.342403e+01    2.455035e+02    1.424356e-02    2.415417e+06    2.198408e-08    1.103335e-11    1.747301e-08   -3.996360e-02
    2.329722e+01    2.484286e+02    1.600836e-02    2.678195e+06    2.216300e-08    1.143511e-11    1.771156e-08   -3.496360e-02
    2.316318e+01    2.515628e+02    1.798009e-02    2.967165e+06    2.233925e-08    1.185002e-11    1.794644e-08   -2.996360e-02
    2.302071e+01    2.548951e+02    2.018074e-02    3.284337e+06    2.251273e-08    1.227849e-11    1.817759e-08   -2.496360e-02
    2.286863e+01    2.584115e+02    2.263407e-02    3.631737e+06    2.268342e-08    1.272092e-11    1.840493e-08   -1.996360e-02
    2.270575e+01    2.620946e+02    2.536567e-02    4.011369e+06    2.285124e-08    1.317771e-11    1.862841e-08   -1.496360e-02
    2.253101e+01    2.659240e+02    2.840297e-02    4.425189e+06    2.301615e-08    1.364930e-11    1.884798e-08   -9.963600e-03
    2.234349e+01    2.698770e+02    3.177519e-02    4.875072e+06    2.317812e-08    1.413613e-11    1.906361e-08   -4.963600e-03
    2.214239e+01    2.739276e+02    3.551326e-02    5.362757e+06    2.333711e-08    1.463865e-11    1.927525e-08    3.640000e-05
    2.192710e+01    2.780478e+02    3.964980e-02    5.889818e+06    2.349311e-08    1.515734e-11    1.948289e-08    5.036400e-03
    2.169718e+01    2.822078e+02    4.421892e-02    6.457618e+06    2.364609e-08    1.569268e-11    1.968651e-08    1.003640e-02
    2.145247e+01    2.863765e+02    4.925609e-02    7.067291e+06    2.379603e-08    1.624516e-11    1.988610e-08    1.503640e-02
    2.119297e+01    2.905219e+02    5.479795e-02    7.719672e+06    2.394294e-08    1.681531e-11    2.008167e-08    2.003640e-02
    2.091892e+01    2.946112e+02    6.088205e-02    8.415296e+06    2.408682e-08    1.740367e-11    2.027321e-08    2.503640e-02
    2.063078e+01    2.986122e+02    6.754665e-02    9.154366e+06    2.422765e-08    1.801078e-11    2.046075e-08    3.003640e-02
    2.032919e+01    3.024935e+02    7.483040e-02    9.936732e+06    2.436547e-08    1.863721e-11    2.064429e-08    3.503640e-02
    2.001501e+01    3.062246e+02    8.277195e-02    1.076188e+07    2.450026e-08    1.928355e-11    2.082386e-08    4.003640e-02
    1.968917e+01    3.097763e+02    9.140995e-02    1.162894e+07    2.463206e-08    1.995042e-11    2.099949e-08    4.503640e-02
    1.935282e+01    3.131222e+02    1.007824e-01    1.253669e+07    2.476090e-08    2.063843e-11    2.117122e-08    5.003640e-02
    1.900717e+01    3.162376e+02    1.109265e-01    1.348354e+07    2.488678e-08    2.134824e-11    2.133907e-08    5.503640e-02
    1.865350e+01    3.191011e+02    1.218781e-01    1.446762e+07    2.500973e-08    2.208052e-11    2.150309e-08    6.003640e-02
    1.829313e+01    3.216936e+02    1.336722e-01    1.548675e+07    2.512980e-08    2.283598e-11    2.166333e-08    6.503640e-02
    1.792743e+01    3.239996e+02    1.463417e-01    1.653850e+07    2.524701e-08    2.361532e-11    2.181983e-08    7.003640e-02
    1.755774e+01    3.260063e+02    1.599176e-01    1.762023e+07    2.536141e-08    2.441929e-11    2.197266e-08    7.503640e-02
    1.718540e+01    3.277046e+02    1.744289e-01    1.872914e+07    2.547302e-08    2.524867e-11    2.212186e-08    8.003640e-02
    1.681168e+01    3.290879e+02    1.899024e-01    1.986227e+07    2.558189e-08    2.610424e-11    2.226749e-08    8.503640e-02
    1.643781e+01    3.301531e+02    2.063624e-01    2.101663e+07    2.568807e-08    2.698684e-11    2.240960e-08    9.003640e-02
    1.606495e+01    3.308996e+02    2.238307e-01    2.218915e+07    2.579161e-08    2.789731e-11    2.254826e-08    9.503640e-02
    1.569417e+01    3.313296e+02    2.423267e-01    2.337681e+07    2.589253e-08    2.883654e-11    2.268354e-08    1.000364e-01
    1.532648e+01    3.314476e+02    2.618670e-01    2.457661e+07    2.599090e-08    2.980546e-11    2.281549e-08    1.050364e-01
    1.496277e+01    3.312607e+02    2.824660e-01    2.578564e+07    2.608677e-08    3.080500e-11    2.294418e-08    1.100364e-01
    1.460385e+01    3.307771e+02    3.041353e-01    2.700111e+07    2.618017e-08    3.183613e-11    2.306969e-08    1.150364e-01
    1.425044e+01    3.300074e+02    3.268841e-01    2.822037e+07    2.627117e-08    3.289989e-11    2.319207e-08    1.200364e-01
    1.390317e+01    3.289630e+02    3.507197e-01    2.944095e+07    2.635981e-08    3.399732e-11    2.331139e-08    1.250364e-01
    1.356259e+01    3.276570e+02    3.756466e-01    3.066053e+07    2.644616e-08    3.512951e-11    2.342772e-08    1.300364e-01
    1.322915e+01    3.261025e+02    4.016677e-01    3.187701e+07    2.653024e-08    3.629761e-11    2.354113e-08    1.350364e-01
    1.290323e+01    3.243143e+02    4.287838e-01    3.308851e+07    2.661213e-08    3.750276e-11    2.365169e-08    1.400364e-01
    1.258513e+01    3.223066e+02    4.569940e-01    3.429331e+07    2.669187e-08    3.874618e-11    2.375946e-08    1.450364e-01
    1.227510e+01    3.200941e+02    4.862960e-01    3.548994e+07    2.676952e-08    4.002915e-11    2.386451e-08    1.500364e-01
    1.197329e+01    3.176916e+02    5.166860e-01    3.667710e+07    2.684512e-08    4.135295e-11    2.396692e-08    1.550364e-01
    1.167983e+01    3.151139e+02    5.481585e-01    3.785371e+07    2.691872e-08    4.271894e-11    2.406674e-08    1.600364e-01
    1.139479e+01    3.123752e+02    5.807075e-01    3.901887e+07    2.699039e-08    4.412851e-11    2.416404e-08    1.650364e-01
    1.111818e+01    3.094896e+02    6.143265e-01    4.017189e+07    2.706018e-08    4.558313e-11    2.425889e-08    1.700364e-01
    1.084996e+01    3.064703e+02    6.490070e-01    4.131217e+07    2.712812e-08    4.708430e-11    2.435135e-08    1.750364e-01
    1.059009e+01    3.033302e+02    6.847405e-01    4.243933e+07    2.719427e-08    4.863357e-11    2.444148e-08    1.800364e-01
    1.033848e+01    3.000819e+02    7.215185e-01    4.355314e+07    2.725868e-08    5.023260e-11    2.452937e-08    1.850364e-01
    1.009500e+01    2.967366e+02    7.593315e-01    4.465343e+07    2.732140e-08    5.188300e-11    2.461505e-08    1.900364e-01
    9.859510e+00    2.933052e+02    7.981695e-01    4.574017e+07    2.738248e-08    5.358660e-11    2.469859e-08    1.950364e-01
