# sky130 nfet_01v8 gm/ID Processed Lookup Table
# Corner: ss
# Temperature: 25C
# W = 2.0 um
# L = 3.06 um (3060 nm)
# Columns: gm/id [1/V]  gm/gds [V/V]  id/W [A/m]  ft [Hz]  Cgg/W [F/m]  Cgd/W [F/m]  Cgs/W [F/m]  Vov [V]
#         gm/id          gm/gds            id/W              ft           Cgg/W           Cgd/W           Cgs/W             Vov
    2.741666e+01    1.796560e+02    1.877599e-08    1.275438e+01    6.423595e-09    1.062142e-13    2.786150e-10   -5.688752e-01
    2.741609e+01    1.796522e+02    2.153460e-08    1.465301e+01    6.412620e-09    1.101537e-13    2.895248e-10   -5.638752e-01
    2.741548e+01    1.796483e+02    2.469844e-08    1.683272e+01    6.402230e-09    1.142489e-13    3.009573e-10   -5.588752e-01
    2.741485e+01    1.796441e+02    2.832701e-08    1.933481e+01    6.392440e-09    1.185065e-13    3.129387e-10   -5.538752e-01
    2.741415e+01    1.796395e+02    3.248857e-08    2.220661e+01    6.383270e-09    1.229334e-13    3.254965e-10   -5.488752e-01
    2.741341e+01    1.796346e+02    3.726136e-08    2.550229e+01    6.374745e-09    1.275371e-13    3.386596e-10   -5.438752e-01
    2.741261e+01    1.796295e+02    4.273517e-08    2.928390e+01    6.366885e-09    1.323250e-13    3.524571e-10   -5.388752e-01
    2.741176e+01    1.796239e+02    4.901288e-08    3.362254e+01    6.359700e-09    1.373055e-13    3.669204e-10   -5.338752e-01
    2.741085e+01    1.796179e+02    5.621250e-08    3.859944e+01    6.353230e-09    1.424867e-13    3.820828e-10   -5.288752e-01
    2.740986e+01    1.796115e+02    6.446945e-08    4.430770e+01    6.347485e-09    1.478774e-13    3.979781e-10   -5.238752e-01
    2.740882e+01    1.796047e+02    7.393880e-08    5.085369e+01    6.342500e-09    1.534868e-13    4.146418e-10   -5.188752e-01
    2.740768e+01    1.795973e+02    8.479865e-08    5.835915e+01    6.338295e-09    1.593244e-13    4.321104e-10   -5.138752e-01
    2.740649e+01    1.795895e+02    9.725290e-08    6.696323e+01    6.334900e-09    1.654002e-13    4.504222e-10   -5.088752e-01
    2.740521e+01    1.795811e+02    1.115357e-07    7.682496e+01    6.332345e-09    1.717248e-13    4.696169e-10   -5.038752e-01
    2.740383e+01    1.795721e+02    1.279151e-07    8.812611e+01    6.330655e-09    1.783088e-13    4.897355e-10   -4.988752e-01
    2.740237e+01    1.795625e+02    1.466989e-07    1.010742e+02    6.329870e-09    1.851638e-13    5.108210e-10   -4.938752e-01
    2.740078e+01    1.795522e+02    1.682398e-07    1.159064e+02    6.330010e-09    1.923016e-13    5.329165e-10   -4.888752e-01
    2.739911e+01    1.795412e+02    1.929421e-07    1.328932e+02    6.331120e-09    1.997346e-13    5.560690e-10   -4.838752e-01
    2.739730e+01    1.795294e+02    2.212694e-07    1.523435e+02    6.333230e-09    2.074758e-13    5.803245e-10   -4.788752e-01
    2.739536e+01    1.795168e+02    2.537534e-07    1.746096e+02    6.336375e-09    2.155386e-13    6.057320e-10   -4.738752e-01
    2.739330e+01    1.795033e+02    2.910032e-07    2.000932e+02    6.340595e-09    2.239370e-13    6.323415e-10   -4.688752e-01
    2.739109e+01    1.794888e+02    3.337177e-07    2.292523e+02    6.345925e-09    2.326860e-13    6.602050e-10   -4.638752e-01
    2.738871e+01    1.794735e+02    3.826976e-07    2.626088e+02    6.352405e-09    2.418008e-13    6.893750e-10   -4.588752e-01
    2.738619e+01    1.794569e+02    4.388609e-07    3.007571e+02    6.360080e-09    2.512973e-13    7.199055e-10   -4.538752e-01
    2.738347e+01    1.794394e+02    5.032600e-07    3.443743e+02    6.368985e-09    2.611923e-13    7.518530e-10   -4.488752e-01
    2.738056e+01    1.794204e+02    5.771010e-07    3.942304e+02    6.379170e-09    2.715030e-13    7.852745e-10   -4.438752e-01
    2.737748e+01    1.794003e+02    6.617660e-07    4.512020e+02    6.390680e-09    2.822476e-13    8.202270e-10   -4.388752e-01
    2.737416e+01    1.793787e+02    7.588400e-07    5.162861e+02    6.403550e-09    2.934449e-13    8.567715e-10   -4.338752e-01
    2.737059e+01    1.793556e+02    8.701395e-07    5.906153e+02    6.417835e-09    3.051145e-13    8.949670e-10   -4.288752e-01
    2.736681e+01    1.793310e+02    9.977440e-07    6.754772e+02    6.433580e-09    3.172769e-13    9.348750e-10   -4.238752e-01
    2.736274e+01    1.793046e+02    1.144040e-06    7.723341e+02    6.450830e-09    3.299534e-13    9.765580e-10   -4.188752e-01
    2.735839e+01    1.792764e+02    1.311759e-06    8.828463e+02    6.469630e-09    3.431660e-13    1.020079e-09   -4.138752e-01
    2.735374e+01    1.792462e+02    1.504031e-06    1.008896e+03    6.490040e-09    3.569377e-13    1.065501e-09   -4.088752e-01
    2.734877e+01    1.792140e+02    1.724445e-06    1.152621e+03    6.512095e-09    3.712925e-13    1.112887e-09   -4.038752e-01
    2.734345e+01    1.791796e+02    1.977110e-06    1.316442e+03    6.535855e-09    3.862552e-13    1.162301e-09   -3.988752e-01
    2.733777e+01    1.791429e+02    2.266732e-06    1.503103e+03    6.561370e-09    4.018516e-13    1.213807e-09   -3.938752e-01
    2.733168e+01    1.791035e+02    2.598705e-06    1.715714e+03    6.588680e-09    4.181086e-13    1.267470e-09   -3.888752e-01
    2.732517e+01    1.790616e+02    2.979202e-06    1.957793e+03    6.617840e-09    4.350540e-13    1.323352e-09   -3.838752e-01
    2.731824e+01    1.790169e+02    3.415296e-06    2.233323e+03    6.648895e-09    4.527166e-13    1.381515e-09   -3.788752e-01
    2.731081e+01    1.789691e+02    3.915084e-06    2.546805e+03    6.681900e-09    4.711265e-13    1.442021e-09   -3.738752e-01
    2.730287e+01    1.789180e+02    4.487838e-06    2.903334e+03    6.716895e-09    4.903147e-13    1.504931e-09   -3.688752e-01
    2.729437e+01    1.788636e+02    5.144175e-06    3.308659e+03    6.753935e-09    5.103135e-13    1.570303e-09   -3.638752e-01
    2.728532e+01    1.788054e+02    5.896235e-06    3.769284e+03    6.793055e-09    5.311560e-13    1.638195e-09   -3.588752e-01
    2.727565e+01    1.787436e+02    6.757930e-06    4.292541e+03    6.834305e-09    5.528770e-13    1.708663e-09   -3.538752e-01
    2.726530e+01    1.786775e+02    7.745170e-06    4.886710e+03    6.877725e-09    5.755125e-13    1.781758e-09   -3.488752e-01
    2.725427e+01    1.786071e+02    8.876155e-06    5.561124e+03    6.923360e-09    5.990990e-13    1.857532e-09   -3.438752e-01
    2.724248e+01    1.785321e+02    1.017172e-05    6.326317e+03    6.971240e-09    6.236750e-13    1.936031e-09   -3.388752e-01
    2.722991e+01    1.784523e+02    1.165566e-05    7.194146e+03    7.021405e-09    6.492805e-13    2.017299e-09   -3.338752e-01
    2.721648e+01    1.783673e+02    1.335524e-05    8.177968e+03    7.073890e-09    6.759560e-13    2.101378e-09   -3.288752e-01
    2.720217e+01    1.782768e+02    1.530157e-05    9.292833e+03    7.128720e-09    7.037435e-13    2.188302e-09   -3.238752e-01
    2.718690e+01    1.781806e+02    1.753026e-05    1.055566e+04    7.185925e-09    7.326875e-13    2.278105e-09   -3.188752e-01
    2.717063e+01    1.780784e+02    2.008198e-05    1.198550e+04    7.245530e-09    7.628320e-13    2.370814e-09   -3.138752e-01
    2.715328e+01    1.779697e+02    2.300319e-05    1.360376e+04    7.307545e-09    7.942245e-13    2.466451e-09   -3.088752e-01
    2.713478e+01    1.778542e+02    2.634698e-05    1.543449e+04    7.371995e-09    8.269125e-13    2.565035e-09   -3.038752e-01
    2.711510e+01    1.777318e+02    3.017395e-05    1.750472e+04    7.438890e-09    8.609450e-13    2.666576e-09   -2.988752e-01
    2.709413e+01    1.776019e+02    3.455328e-05    1.984480e+04    7.508235e-09    8.963740e-13    2.771080e-09   -2.938752e-01
    2.707182e+01    1.774642e+02    3.956393e-05    2.248877e+04    7.580035e-09    9.332505e-13    2.878549e-09   -2.888752e-01
    2.704808e+01    1.773185e+02    4.529598e-05    2.547487e+04    7.654280e-09    9.716300e-13    2.988975e-09   -2.838752e-01
    2.702284e+01    1.771643e+02    5.185215e-05    2.884587e+04    7.730975e-09    1.011567e-12    3.102347e-09   -2.788752e-01
    2.699602e+01    1.770013e+02    5.934955e-05    3.264983e+04    7.810095e-09    1.053119e-12    3.218645e-09   -2.738752e-01
    2.696754e+01    1.768292e+02    6.792160e-05    3.694049e+04    7.891630e-09    1.096344e-12    3.337842e-09   -2.688752e-01
    2.693731e+01    1.766476e+02    7.772030e-05    4.177806e+04    7.975550e-09    1.141305e-12    3.459906e-09   -2.638752e-01
    2.690524e+01    1.764564e+02    8.891880e-05    4.722986e+04    8.061835e-09    1.188061e-12    3.584796e-09   -2.588752e-01
    2.687122e+01    1.762551e+02    1.017141e-04    5.337127e+04    8.150440e-09    1.236679e-12    3.712465e-09   -2.538752e-01
    2.683519e+01    1.760437e+02    1.163302e-04    6.028646e+04    8.241335e-09    1.287221e-12    3.842860e-09   -2.488752e-01
    2.679705e+01    1.758218e+02    1.330220e-04    6.806949e+04    8.334470e-09    1.339757e-12    3.975917e-09   -2.438752e-01
    2.675671e+01    1.755893e+02    1.520789e-04    7.682540e+04    8.429795e-09    1.394356e-12    4.111569e-09   -2.388752e-01
    2.671408e+01    1.753463e+02    1.738299e-04    8.667142e+04    8.527250e-09    1.451088e-12    4.249742e-09   -2.338752e-01
    2.666905e+01    1.750926e+02    1.986484e-04    9.773820e+04    8.626775e-09    1.510025e-12    4.390351e-09   -2.288752e-01
    2.662158e+01    1.748285e+02    2.269578e-04    1.101715e+05    8.728305e-09    1.571244e-12    4.533308e-09   -2.238752e-01
    2.657157e+01    1.745543e+02    2.592384e-04    1.241335e+05    8.831765e-09    1.634820e-12    4.678518e-09   -2.188752e-01
    2.651891e+01    1.742699e+02    2.960343e-04    1.398048e+05    8.937080e-09    1.700832e-12    4.825879e-09   -2.138752e-01
    2.646358e+01    1.739762e+02    3.379617e-04    1.573866e+05    9.044165e-09    1.769360e-12    4.975284e-09   -2.088752e-01
    2.640548e+01    1.736736e+02    3.857179e-04    1.771021e+05    9.152930e-09    1.840486e-12    5.126620e-09   -2.038752e-01
    2.634456e+01    1.733631e+02    4.400915e-04    1.991997e+05    9.263290e-09    1.914297e-12    5.279765e-09   -1.988752e-01
    2.628080e+01    1.730457e+02    5.019735e-04    2.239553e+05    9.375150e-09    1.990878e-12    5.434605e-09   -1.938752e-01
    2.621417e+01    1.727226e+02    5.723700e-04    2.516748e+05    9.488410e-09    2.070318e-12    5.591000e-09   -1.888752e-01
    2.614464e+01    1.723955e+02    6.524170e-04    2.826979e+05    9.602965e-09    2.152708e-12    5.748830e-09   -1.838752e-01
    2.607220e+01    1.720662e+02    7.433950e-04    3.174014e+05    9.718710e-09    2.238141e-12    5.907950e-09   -1.788752e-01
    2.599691e+01    1.717367e+02    8.467465e-04    3.562024e+05    9.835545e-09    2.326714e-12    6.068230e-09   -1.738752e-01
    2.591878e+01    1.714098e+02    9.640970e-04    3.995638e+05    9.953350e-09    2.418523e-12    6.229530e-09   -1.688752e-01
    2.583789e+01    1.710882e+02    1.097275e-03    4.479978e+05    1.007202e-08    2.513669e-12    6.391695e-09   -1.638752e-01
    2.575432e+01    1.707753e+02    1.248336e-03    5.020720e+05    1.019144e-08    2.612256e-12    6.554595e-09   -1.588752e-01
    2.566819e+01    1.704749e+02    1.419590e-03    5.624145e+05    1.031150e-08    2.714387e-12    6.718080e-09   -1.538752e-01
    2.557962e+01    1.701912e+02    1.613634e-03    6.297215e+05    1.043207e-08    2.820173e-12    6.882000e-09   -1.488752e-01
    2.548878e+01    1.699288e+02    1.833379e-03    7.047628e+05    1.055306e-08    2.929723e-12    7.046210e-09   -1.438752e-01
    2.539585e+01    1.696930e+02    2.082092e-03    7.883913e+05    1.067434e-08    3.043150e-12    7.210575e-09   -1.388752e-01
    2.530106e+01    1.694896e+02    2.363435e-03    8.815521e+05    1.079579e-08    3.160571e-12    7.374940e-09   -1.338752e-01
    2.520459e+01    1.693245e+02    2.681512e-03    9.852894e+05    1.091731e-08    3.282105e-12    7.539165e-09   -1.288752e-01
    2.510674e+01    1.692049e+02    3.040918e-03    1.100764e+06    1.103878e-08    3.407874e-12    7.703110e-09   -1.238752e-01
    2.500772e+01    1.691376e+02    3.446800e-03    1.229256e+06    1.116010e-08    3.538005e-12    7.866640e-09   -1.188752e-01
    2.490781e+01    1.691305e+02    3.904913e-03    1.372189e+06    1.128114e-08    3.672624e-12    8.029620e-09   -1.138752e-01
    2.480726e+01    1.691915e+02    4.421696e-03    1.531136e+06    1.140182e-08    3.811864e-12    8.191910e-09   -1.088752e-01
    2.470630e+01    1.693290e+02    5.004350e-03    1.707839e+06    1.152202e-08    3.955862e-12    8.353390e-09   -1.038752e-01
    2.460516e+01    1.695517e+02    5.660915e-03    1.904226e+06    1.164165e-08    4.104754e-12    8.513935e-09   -9.887520e-02
    2.450397e+01    1.698682e+02    6.400390e-03    2.122431e+06    1.176060e-08    4.258684e-12    8.673425e-09   -9.387520e-02
    2.440290e+01    1.702874e+02    7.232795e-03    2.364806e+06    1.187879e-08    4.417800e-12    8.831745e-09   -8.887520e-02
    2.430195e+01    1.708178e+02    8.169340e-03    2.633948e+06    1.199613e-08    4.582249e-12    8.988780e-09   -8.387520e-02
    2.420114e+01    1.714677e+02    9.222495e-03    2.932715e+06    1.211252e-08    4.752188e-12    9.144430e-09   -7.887520e-02
    2.410030e+01    1.722451e+02    1.040618e-02    3.264239e+06    1.222790e-08    4.927775e-12    9.298595e-09   -7.387520e-02
    2.399920e+01    1.731570e+02    1.173585e-02    3.631951e+06    1.234217e-08    5.109175e-12    9.451180e-09   -6.887520e-02
    2.389749e+01    1.742096e+02    1.322872e-02    4.039589e+06    1.245527e-08    5.296550e-12    9.602090e-09   -6.387520e-02
    2.379467e+01    1.754080e+02    1.490387e-02    4.491206e+06    1.256713e-08    5.490075e-12    9.751255e-09   -5.887520e-02
    2.369013e+01    1.767559e+02    1.678246e-02    4.991181e+06    1.267768e-08    5.689930e-12    9.898585e-09   -5.387520e-02
    2.358310e+01    1.782556e+02    1.888784e-02    5.544204e+06    1.278687e-08    5.896295e-12    1.004402e-08   -4.887520e-02
    2.347271e+01    1.799074e+02    2.124581e-02    6.155280e+06    1.289463e-08    6.109355e-12    1.018748e-08   -4.387520e-02
    2.335796e+01    1.817097e+02    2.388471e-02    6.829693e+06    1.300091e-08    6.329305e-12    1.032891e-08   -3.887520e-02
    2.323779e+01    1.836589e+02    2.683562e-02    7.572987e+06    1.310568e-08    6.556345e-12    1.046826e-08   -3.387520e-02
    2.311104e+01    1.857489e+02    3.013253e-02    8.390915e+06    1.320888e-08    6.790680e-12    1.060548e-08   -2.887520e-02
    2.297649e+01    1.879713e+02    3.381240e-02    9.289367e+06    1.331048e-08    7.032515e-12    1.074052e-08   -2.387520e-02
    2.283295e+01    1.903155e+02    3.791531e-02    1.027434e+07    1.341044e-08    7.282070e-12    1.087335e-08   -1.887520e-02
    2.267925e+01    1.927684e+02    4.248454e-02    1.135181e+07    1.350874e-08    7.539570e-12    1.100394e-08   -1.387520e-02
    2.251427e+01    1.953147e+02    4.756651e-02    1.252765e+07    1.360535e-08    7.805245e-12    1.113225e-08   -8.875200e-03
    2.233700e+01    1.979369e+02    5.321085e-02    1.380756e+07    1.370024e-08    8.079325e-12    1.125827e-08   -3.875200e-03
    2.214655e+01    2.006155e+02    5.947030e-02    1.519690e+07    1.379340e-08    8.362065e-12    1.138197e-08    1.124800e-03
    2.194221e+01    2.033295e+02    6.640050e-02    1.670058e+07    1.388482e-08    8.653710e-12    1.150334e-08    6.124800e-03
    2.172346e+01    2.060564e+02    7.405995e-02    1.832301e+07    1.397448e-08    8.954520e-12    1.162238e-08    1.112480e-02
    2.148994e+01    2.087725e+02    8.250960e-02    2.006785e+07    1.406238e-08    9.264765e-12    1.173907e-08    1.612480e-02
    2.124156e+01    2.114540e+02    9.181260e-02    2.193805e+07    1.414852e-08    9.584720e-12    1.185343e-08    2.112480e-02
    2.097842e+01    2.140761e+02    1.020340e-01    2.393563e+07    1.423288e-08    9.914675e-12    1.196544e-08    2.612480e-02
    2.070085e+01    2.166149e+02    1.132400e-01    2.606168e+07    1.431548e-08    1.025492e-11    1.207512e-08    3.112480e-02
    2.040938e+01    2.190467e+02    1.254982e-01    2.831625e+07    1.439632e-08    1.060575e-11    1.218249e-08    3.612480e-02
    2.010470e+01    2.213487e+02    1.388760e-01    3.069830e+07    1.447540e-08    1.096750e-11    1.228753e-08    4.112480e-02
    1.978771e+01    2.234998e+02    1.534412e-01    3.320572e+07    1.455274e-08    1.134048e-11    1.239030e-08    4.612480e-02
    1.945943e+01    2.254802e+02    1.692607e-01    3.583530e+07    1.462835e-08    1.172501e-11    1.249079e-08    5.112480e-02
    1.912102e+01    2.272723e+02    1.864000e-01    3.858278e+07    1.470224e-08    1.212147e-11    1.258902e-08    5.612480e-02
    1.877370e+01    2.288607e+02    2.049231e-01    4.144294e+07    1.477443e-08    1.253020e-11    1.268503e-08    6.112480e-02
    1.841878e+01    2.302323e+02    2.248918e-01    4.440955e+07    1.484493e-08    1.295156e-11    1.277884e-08    6.612480e-02
    1.805759e+01    2.313764e+02    2.463646e-01    4.747565e+07    1.491377e-08    1.338594e-11    1.287047e-08    7.112480e-02
    1.769149e+01    2.322852e+02    2.693973e-01    5.063350e+07    1.498096e-08    1.383373e-11    1.295996e-08    7.612480e-02
    1.732181e+01    2.329529e+02    2.940417e-01    5.387481e+07    1.504654e-08    1.429534e-11    1.304734e-08    8.112480e-02
    1.694988e+01    2.333767e+02    3.203459e-01    5.719087e+07    1.511051e-08    1.477119e-11    1.313263e-08    8.612480e-02
    1.657694e+01    2.335560e+02    3.483538e-01    6.057255e+07    1.517292e-08    1.526172e-11    1.321588e-08    9.112480e-02
    1.620420e+01    2.334924e+02    3.781047e-01    6.401064e+07    1.523378e-08    1.576737e-11    1.329712e-08    9.612480e-02
    1.583279e+01    2.331893e+02    4.096335e-01    6.749584e+07    1.529312e-08    1.628861e-11    1.337639e-08    1.011248e-01
    1.546377e+01    2.326530e+02    4.429705e-01    7.101905e+07    1.535096e-08    1.682592e-11    1.345372e-08    1.061248e-01
    1.509810e+01    2.318904e+02    4.781412e-01    7.457118e+07    1.540734e-08    1.737980e-11    1.352914e-08    1.111248e-01
    1.473665e+01    2.309101e+02    5.151670e-01    7.814356e+07    1.546229e-08    1.795077e-11    1.360271e-08    1.161248e-01
    1.438020e+01    2.297223e+02    5.540645e-01    8.172798e+07    1.551582e-08    1.853936e-11    1.367445e-08    1.211248e-01
    1.402945e+01    2.283377e+02    5.948460e-01    8.531653e+07    1.556798e-08    1.914611e-11    1.374441e-08    1.261248e-01
    1.368501e+01    2.267683e+02    6.375200e-01    8.890205e+07    1.561879e-08    1.977160e-11    1.381262e-08    1.311248e-01
    1.334738e+01    2.250259e+02    6.820915e-01    9.247777e+07    1.566828e-08    2.041643e-11    1.387912e-08    1.361248e-01
    1.301699e+01    2.231233e+02    7.285615e-01    9.603764e+07    1.571649e-08    2.108120e-11    1.394396e-08    1.411248e-01
    1.269424e+01    2.210734e+02    7.769270e-01    9.957632e+07    1.576343e-08    2.176654e-11    1.400717e-08    1.461248e-01
    1.237936e+01    2.188886e+02    8.271840e-01    1.030888e+08    1.580915e-08    2.247312e-11    1.406879e-08    1.511248e-01
    1.207259e+01    2.165819e+02    8.793245e-01    1.065712e+08    1.585368e-08    2.320161e-11    1.412887e-08    1.561248e-01
    1.177411e+01    2.141655e+02    9.333375e-01    1.100198e+08    1.589703e-08    2.395270e-11    1.418743e-08    1.611248e-01
    1.148398e+01    2.116511e+02    9.892120e-01    1.134317e+08    1.593924e-08    2.472715e-11    1.424452e-08    1.661248e-01
    1.120228e+01    2.090507e+02    1.046934e+00    1.168045e+08    1.598034e-08    2.552569e-11    1.430018e-08    1.711248e-01
    1.092900e+01    2.063748e+02    1.106487e+00    1.201363e+08    1.602038e-08    2.634910e-11    1.435443e-08    1.761248e-01
    1.066411e+01    2.036344e+02    1.167856e+00    1.234259e+08    1.605935e-08    2.719821e-11    1.440733e-08    1.811248e-01
    1.040755e+01    2.008391e+02    1.231023e+00    1.266723e+08    1.609730e-08    2.807384e-11    1.445890e-08    1.861248e-01
