# sky130 nfet_01v8 gm/ID Processed Lookup Table
# Corner: ss
# Temperature: 25C
# W = 2.0 um
# L = 2.52 um (2520 nm)
# Columns: gm/id [1/V]  gm/gds [V/V]  id/W [A/m]  ft [Hz]  Cgg/W [F/m]  Cgd/W [F/m]  Cgs/W [F/m]  Vov [V]
#         gm/id          gm/gds            id/W              ft           Cgg/W           Cgd/W           Cgs/W             Vov
    2.711962e+01    1.618857e+02    2.395778e-08    1.943030e+01    5.321950e-09    8.820780e-14    2.378769e-10   -5.706775e-01
    2.711906e+01    1.618823e+02    2.743693e-08    2.228848e+01    5.313120e-09    9.145230e-14    2.471554e-10   -5.656775e-01
    2.711847e+01    1.618789e+02    3.142123e-08    2.556477e+01    5.304770e-09    9.482390e-14    2.568731e-10   -5.606775e-01
    2.711782e+01    1.618750e+02    3.598400e-08    2.931976e+01    5.296925e-09    9.832810e-14    2.670516e-10   -5.556775e-01
    2.711714e+01    1.618709e+02    4.120921e-08    3.362293e+01    5.289600e-09    1.019705e-13    2.777137e-10   -5.506775e-01
    2.711640e+01    1.618665e+02    4.719301e-08    3.855363e+01    5.282805e-09    1.057571e-13    2.888826e-10   -5.456775e-01
    2.711563e+01    1.618619e+02    5.404545e-08    4.420259e+01    5.276565e-09    1.096940e-13    3.005825e-10   -5.406775e-01
    2.711478e+01    1.618568e+02    6.189265e-08    5.067355e+01    5.270890e-09    1.137877e-13    3.128400e-10   -5.356775e-01
    2.711387e+01    1.618514e+02    7.087895e-08    5.808502e+01    5.265805e-09    1.180449e-13    3.256817e-10   -5.306775e-01
    2.711291e+01    1.618457e+02    8.116955e-08    6.657242e+01    5.261325e-09    1.224728e-13    3.391353e-10   -5.256775e-01
    2.711188e+01    1.618395e+02    9.295375e-08    7.629040e+01    5.257470e-09    1.270787e-13    3.532297e-10   -5.206775e-01
    2.711077e+01    1.618330e+02    1.064483e-07    8.741545e+01    5.254270e-09    1.318702e-13    3.679951e-10   -5.156775e-01
    2.710959e+01    1.618259e+02    1.219011e-07    1.001492e+02    5.251740e-09    1.368554e-13    3.834626e-10   -5.106775e-01
    2.710833e+01    1.618184e+02    1.395963e-07    1.147217e+02    5.249905e-09    1.420426e-13    3.996645e-10   -5.056775e-01
    2.710698e+01    1.618104e+02    1.598592e-07    1.313953e+02    5.248785e-09    1.474406e-13    4.166343e-10   -5.006775e-01
    2.710554e+01    1.618018e+02    1.830619e-07    1.504693e+02    5.248415e-09    1.530586e-13    4.344069e-10   -4.956775e-01
    2.710400e+01    1.617927e+02    2.096309e-07    1.722850e+02    5.248815e-09    1.589060e-13    4.530178e-10   -4.906775e-01
    2.710233e+01    1.617828e+02    2.400541e-07    1.972313e+02    5.250010e-09    1.649928e-13    4.725044e-10   -4.856775e-01
    2.710057e+01    1.617723e+02    2.748902e-07    2.257512e+02    5.252035e-09    1.713294e-13    4.929047e-10   -4.806775e-01
    2.709869e+01    1.617611e+02    3.147786e-07    2.583498e+02    5.254915e-09    1.779265e-13    5.142580e-10   -4.756775e-01
    2.709666e+01    1.617491e+02    3.604518e-07    2.956013e+02    5.258680e-09    1.847954e-13    5.366055e-10   -4.706775e-01
    2.709450e+01    1.617363e+02    4.127475e-07    3.381604e+02    5.263360e-09    1.919478e-13    5.599885e-10   -4.656775e-01
    2.709220e+01    1.617226e+02    4.726254e-07    3.867711e+02    5.268990e-09    1.993961e-13    5.844495e-10   -4.606775e-01
    2.708974e+01    1.617079e+02    5.411830e-07    4.422795e+02    5.275605e-09    2.071529e-13    6.100330e-10   -4.556775e-01
    2.708709e+01    1.616923e+02    6.196780e-07    5.056484e+02    5.283235e-09    2.152315e-13    6.367835e-10   -4.506775e-01
    2.708427e+01    1.616755e+02    7.095480e-07    5.779717e+02    5.291910e-09    2.236458e-13    6.647475e-10   -4.456775e-01
    2.708126e+01    1.616576e+02    8.124400e-07    6.604913e+02    5.301675e-09    2.324102e-13    6.939710e-10   -4.406775e-01
    2.707802e+01    1.616385e+02    9.302380e-07    7.546182e+02    5.312560e-09    2.415396e-13    7.245030e-10   -4.356775e-01
    2.707457e+01    1.616181e+02    1.065098e-06    8.619536e+02    5.324605e-09    2.510497e-13    7.563905e-10   -4.306775e-01
    2.707088e+01    1.615963e+02    1.219488e-06    9.843135e+02    5.337850e-09    2.609567e-13    7.896840e-10   -4.256775e-01
    2.706693e+01    1.615729e+02    1.396229e-06    1.123760e+03    5.352325e-09    2.712774e-13    8.244330e-10   -4.206775e-01
    2.706272e+01    1.615480e+02    1.598554e-06    1.282628e+03    5.368070e-09    2.820296e-13    8.606875e-10   -4.156775e-01
    2.705821e+01    1.615214e+02    1.830158e-06    1.463562e+03    5.385135e-09    2.932312e-13    8.984985e-10   -4.106775e-01
    2.705340e+01    1.614930e+02    2.095267e-06    1.669562e+03    5.403545e-09    3.049015e-13    9.379170e-10   -4.056775e-01
    2.704825e+01    1.614627e+02    2.398721e-06    1.904021e+03    5.423345e-09    3.170599e-13    9.789935e-10   -4.006775e-01
    2.704276e+01    1.614304e+02    2.746049e-06    2.170776e+03    5.444580e-09    3.297270e-13    1.021780e-09   -3.956775e-01
    2.703689e+01    1.613958e+02    3.143581e-06    2.474174e+03    5.467280e-09    3.429239e-13    1.066327e-09   -3.906775e-01
    2.703061e+01    1.613590e+02    3.598551e-06    2.819117e+03    5.491495e-09    3.566728e-13    1.112684e-09   -3.856775e-01
    2.702392e+01    1.613197e+02    4.119237e-06    3.211164e+03    5.517250e-09    3.709963e-13    1.160904e-09   -3.806775e-01
    2.701676e+01    1.612776e+02    4.715098e-06    3.656573e+03    5.544595e-09    3.859182e-13    1.211031e-09   -3.756775e-01
    2.700910e+01    1.612328e+02    5.396955e-06    4.162421e+03    5.573565e-09    4.014630e-13    1.263118e-09   -3.706775e-01
    2.700094e+01    1.611852e+02    6.177170e-06    4.736694e+03    5.604195e-09    4.176561e-13    1.317210e-09   -3.656775e-01
    2.699225e+01    1.611343e+02    7.069875e-06    5.388395e+03    5.636525e-09    4.345238e-13    1.373352e-09   -3.606775e-01
    2.698293e+01    1.610801e+02    8.091235e-06    6.127688e+03    5.670580e-09    4.520934e-13    1.431588e-09   -3.556775e-01
    2.697300e+01    1.610223e+02    9.259700e-06    6.966004e+03    5.706405e-09    4.703929e-13    1.491962e-09   -3.506775e-01
    2.696242e+01    1.609607e+02    1.059636e-05    7.916243e+03    5.744025e-09    4.894515e-13    1.554512e-09   -3.456775e-01
    2.695112e+01    1.608952e+02    1.212530e-05    8.992916e+03    5.783475e-09    5.092995e-13    1.619276e-09   -3.406775e-01
    2.693906e+01    1.608255e+02    1.387405e-05    1.021237e+04    5.824780e-09    5.299675e-13    1.686289e-09   -3.356775e-01
    2.692621e+01    1.607513e+02    1.587402e-05    1.159297e+04    5.867965e-09    5.514885e-13    1.755583e-09   -3.306775e-01
    2.691251e+01    1.606724e+02    1.816108e-05    1.315540e+04    5.913055e-09    5.738950e-13    1.827187e-09   -3.256775e-01
    2.689791e+01    1.605886e+02    2.077619e-05    1.492288e+04    5.960075e-09    5.972210e-13    1.901126e-09   -3.206775e-01
    2.688235e+01    1.604995e+02    2.376605e-05    1.692152e+04    6.009040e-09    6.215030e-13    1.977422e-09   -3.156775e-01
    2.686579e+01    1.604049e+02    2.718402e-05    1.918066e+04    6.059960e-09    6.467760e-13    2.056093e-09   -3.106775e-01
    2.684813e+01    1.603045e+02    3.109088e-05    2.173315e+04    6.112860e-09    6.730785e-13    2.137153e-09   -3.056775e-01
    2.682935e+01    1.601980e+02    3.555599e-05    2.461597e+04    6.167740e-09    7.004490e-13    2.220612e-09   -3.006775e-01
    2.680937e+01    1.600851e+02    4.065842e-05    2.787054e+04    6.224605e-09    7.289275e-13    2.306473e-09   -2.956775e-01
    2.678811e+01    1.599656e+02    4.648827e-05    3.154325e+04    6.283465e-09    7.585545e-13    2.394737e-09   -2.906775e-01
    2.676550e+01    1.598390e+02    5.314825e-05    3.568618e+04    6.344310e-09    7.893720e-13    2.485399e-09   -2.856775e-01
    2.674151e+01    1.597052e+02    6.075520e-05    4.035762e+04    6.407135e-09    8.214245e-13    2.578450e-09   -2.806775e-01
    2.671598e+01    1.595638e+02    6.944240e-05    4.562279e+04    6.471935e-09    8.547560e-13    2.673874e-09   -2.756775e-01
    2.668892e+01    1.594146e+02    7.936125e-05    5.155477e+04    6.538690e-09    8.894120e-13    2.771649e-09   -2.706775e-01
    2.666019e+01    1.592572e+02    9.068425e-05    5.823521e+04    6.607385e-09    9.254405e-13    2.871751e-09   -2.656775e-01
    2.662973e+01    1.590915e+02    1.036075e-04    6.575540e+04    6.678000e-09    9.628890e-13    2.974146e-09   -2.606775e-01
    2.659745e+01    1.589172e+02    1.183537e-04    7.421747e+04    6.750500e-09    1.001808e-12    3.078799e-09   -2.556775e-01
    2.656326e+01    1.587340e+02    1.351764e-04    8.373526e+04    6.824865e-09    1.042248e-12    3.185665e-09   -2.506775e-01
    2.652710e+01    1.585418e+02    1.543630e-04    9.443616e+04    6.901045e-09    1.084262e-12    3.294696e-09   -2.456775e-01
    2.648885e+01    1.583406e+02    1.762403e-04    1.064620e+05    6.979010e-09    1.127903e-12    3.405838e-09   -2.406775e-01
    2.644846e+01    1.581301e+02    2.011785e-04    1.199710e+05    7.058715e-09    1.173227e-12    3.519031e-09   -2.356775e-01
    2.640581e+01    1.579104e+02    2.295978e-04    1.351396e+05    7.140105e-09    1.220290e-12    3.634208e-09   -2.306775e-01
    2.636085e+01    1.576817e+02    2.619743e-04    1.521643e+05    7.223130e-09    1.269150e-12    3.751302e-09   -2.256775e-01
    2.631348e+01    1.574439e+02    2.988475e-04    1.712637e+05    7.307730e-09    1.319866e-12    3.870234e-09   -2.206775e-01
    2.626365e+01    1.571976e+02    3.408278e-04    1.926813e+05    7.393850e-09    1.372500e-12    3.990927e-09   -2.156775e-01
    2.621127e+01    1.569427e+02    3.886058e-04    2.166874e+05    7.481415e-09    1.427113e-12    4.113291e-09   -2.106775e-01
    2.615628e+01    1.566801e+02    4.429627e-04    2.435827e+05    7.570365e-09    1.483770e-12    4.237240e-09   -2.056775e-01
    2.609865e+01    1.564104e+02    5.047805e-04    2.737011e+05    7.660625e-09    1.542536e-12    4.362677e-09   -2.006775e-01
    2.603831e+01    1.561343e+02    5.750560e-04    3.074132e+05    7.752120e-09    1.603478e-12    4.489507e-09   -1.956775e-01
    2.597524e+01    1.558529e+02    6.549130e-04    3.451303e+05    7.844770e-09    1.666665e-12    4.617626e-09   -1.906775e-01
    2.590942e+01    1.555676e+02    7.456195e-04    3.873084e+05    7.938495e-09    1.732167e-12    4.746931e-09   -1.856775e-01
    2.584087e+01    1.552797e+02    8.486035e-04    4.344534e+05    8.033205e-09    1.800056e-12    4.877312e-09   -1.806775e-01
    2.576957e+01    1.549911e+02    9.654740e-04    4.871247e+05    8.128825e-09    1.870406e-12    5.008660e-09   -1.756775e-01
    2.569556e+01    1.547038e+02    1.098042e-03    5.459428e+05    8.225265e-09    1.943292e-12    5.140865e-09   -1.706775e-01
    2.561891e+01    1.544202e+02    1.248341e-03    6.115950e+05    8.322430e-09    2.018792e-12    5.273810e-09   -1.656775e-01
    2.553970e+01    1.541429e+02    1.418660e-03    6.848413e+05    8.420235e-09    2.096984e-12    5.407380e-09   -1.606775e-01
    2.545799e+01    1.538752e+02    1.611569e-03    7.665238e+05    8.518585e-09    2.177950e-12    5.541460e-09   -1.556775e-01
    2.537393e+01    1.536205e+02    1.829951e-03    8.575742e+05    8.617385e-09    2.261773e-12    5.675930e-09   -1.506775e-01
    2.528767e+01    1.533827e+02    2.077040e-03    9.590228e+05    8.716555e-09    2.348538e-12    5.810675e-09   -1.456775e-01
    2.519935e+01    1.531660e+02    2.356463e-03    1.072011e+06    8.815990e-09    2.438331e-12    5.945585e-09   -1.406775e-01
    2.510918e+01    1.529753e+02    2.672286e-03    1.197801e+06    8.915605e-09    2.531242e-12    6.080530e-09   -1.356775e-01
    2.501738e+01    1.528158e+02    3.029057e-03    1.337792e+06    9.015310e-09    2.627363e-12    6.215405e-09   -1.306775e-01
    2.492415e+01    1.526931e+02    3.431870e-03    1.493531e+06    9.115010e-09    2.726786e-12    6.350095e-09   -1.256775e-01
    2.482976e+01    1.526132e+02    3.886429e-03    1.666734e+06    9.214615e-09    2.829608e-12    6.484490e-09   -1.206775e-01
    2.473446e+01    1.525829e+02    4.399107e-03    1.859297e+06    9.314045e-09    2.935927e-12    6.618475e-09   -1.156775e-01
    2.463848e+01    1.526087e+02    4.977034e-03    2.073323e+06    9.413210e-09    3.045844e-12    6.751950e-09   -1.106775e-01
    2.454208e+01    1.526977e+02    5.628175e-03    2.311140e+06    9.512020e-09    3.159461e-12    6.884805e-09   -1.056775e-01
    2.444545e+01    1.528578e+02    6.361440e-03    2.575324e+06    9.610405e-09    3.276886e-12    7.016945e-09   -1.006775e-01
    2.434882e+01    1.530962e+02    7.186760e-03    2.868725e+06    9.708280e-09    3.398225e-12    7.148265e-09   -9.567750e-02
    2.425234e+01    1.534208e+02    8.115235e-03    3.194493e+06    9.805570e-09    3.523593e-12    7.278675e-09   -9.067750e-02
    2.415608e+01    1.538392e+02    9.159245e-03    3.556106e+06    9.902200e-09    3.653101e-12    7.408090e-09   -8.567750e-02
    2.406007e+01    1.543589e+02    1.033261e-02    3.957396e+06    9.998100e-09    3.786867e-12    7.536410e-09   -8.067750e-02
    2.396427e+01    1.549870e+02    1.165069e-02    4.402577e+06    1.009320e-08    3.925013e-12    7.663565e-09   -7.567750e-02
    2.386850e+01    1.557303e+02    1.313062e-02    4.896269e+06    1.018745e-08    4.067661e-12    7.789470e-09   -7.067750e-02
    2.377250e+01    1.565948e+02    1.479146e-02    5.443527e+06    1.028076e-08    4.214938e-12    7.914060e-09   -6.567750e-02
    2.367587e+01    1.575856e+02    1.665434e-02    6.049852e+06    1.037311e-08    4.366975e-12    8.037255e-09   -6.067750e-02
    2.357810e+01    1.587069e+02    1.874274e-02    6.721208e+06    1.046441e-08    4.523906e-12    8.158995e-09   -5.567750e-02
    2.347855e+01    1.599615e+02    2.108262e-02    7.464021e+06    1.055464e-08    4.685869e-12    8.279220e-09   -5.067750e-02
    2.337646e+01    1.613510e+02    2.370267e-02    8.285186e+06    1.064373e-08    4.853004e-12    8.397880e-09   -4.567750e-02
    2.327090e+01    1.628749e+02    2.663451e-02    9.192032e+06    1.073165e-08    5.025460e-12    8.514915e-09   -4.067750e-02
    2.316091e+01    1.645316e+02    2.991289e-02    1.019231e+07    1.081836e-08    5.203380e-12    8.630280e-09   -3.567750e-02
    2.304539e+01    1.663170e+02    3.357587e-02    1.129414e+07    1.090381e-08    5.386925e-12    8.743935e-09   -3.067750e-02
    2.292319e+01    1.682252e+02    3.766503e-02    1.250591e+07    1.098799e-08    5.576245e-12    8.855850e-09   -2.567750e-02
    2.279311e+01    1.702482e+02    4.222559e-02    1.383626e+07    1.107085e-08    5.771515e-12    8.965980e-09   -2.067750e-02
    2.265398e+01    1.723759e+02    4.730652e-02    1.529391e+07    1.115237e-08    5.972890e-12    9.074300e-09   -1.567750e-02
    2.250464e+01    1.745961e+02    5.296065e-02    1.688759e+07    1.123253e-08    6.180550e-12    9.180785e-09   -1.067750e-02
    2.234399e+01    1.768947e+02    5.924465e-02    1.862589e+07    1.131132e-08    6.394670e-12    9.285420e-09   -5.677500e-03
    2.217104e+01    1.792553e+02    6.621910e-02    2.051706e+07    1.138871e-08    6.615435e-12    9.388180e-09   -6.775000e-04
    2.198494e+01    1.816604e+02    7.394815e-02    2.256892e+07    1.146468e-08    6.843035e-12    9.489055e-09    4.322500e-03
    2.178498e+01    1.840906e+02    8.249970e-02    2.478864e+07    1.153924e-08    7.077655e-12    9.588040e-09    9.322500e-03
    2.157065e+01    1.865254e+02    9.194495e-02    2.718257e+07    1.161237e-08    7.319510e-12    9.685120e-09    1.432250e-02
    2.134163e+01    1.889438e+02    1.023581e-01    2.975609e+07    1.168406e-08    7.568790e-12    9.780300e-09    1.932250e-02
    2.109782e+01    1.913237e+02    1.138159e-01    3.251344e+07    1.175432e-08    7.825720e-12    9.873575e-09    2.432250e-02
    2.083934e+01    1.936433e+02    1.263973e-01    3.545759e+07    1.182314e-08    8.090515e-12    9.964955e-09    2.932250e-02
    2.056649e+01    1.958807e+02    1.401834e-01    3.859007e+07    1.189053e-08    8.363400e-12    1.005444e-08    3.432250e-02
    2.027980e+01    1.980149e+02    1.552556e-01    4.191093e+07    1.195649e-08    8.644605e-12    1.014204e-08    3.932250e-02
    1.997997e+01    2.000256e+02    1.716963e-01    4.541866e+07    1.202103e-08    8.934380e-12    1.022777e-08    4.432250e-02
    1.966786e+01    2.018938e+02    1.895877e-01    4.911016e+07    1.208415e-08    9.232965e-12    1.031164e-08    4.932250e-02
    1.934447e+01    2.036022e+02    2.090110e-01    5.298073e+07    1.214586e-08    9.540620e-12    1.039367e-08    5.432250e-02
    1.901094e+01    2.051351e+02    2.300461e-01    5.702413e+07    1.220618e-08    9.857610e-12    1.047386e-08    5.932250e-02
    1.866847e+01    2.064790e+02    2.527704e-01    6.123263e+07    1.226513e-08    1.018421e-11    1.055226e-08    6.432250e-02
    1.831834e+01    2.076226e+02    2.772588e-01    6.559725e+07    1.232270e-08    1.052068e-11    1.062888e-08    6.932250e-02
    1.796184e+01    2.085564e+02    3.035827e-01    7.010761e+07    1.237893e-08    1.086735e-11    1.070372e-08    7.432250e-02
    1.760033e+01    2.092740e+02    3.318096e-01    7.475245e+07    1.243382e-08    1.122449e-11    1.077683e-08    7.932250e-02
    1.723511e+01    2.097707e+02    3.620026e-01    7.951958e+07    1.248739e-08    1.159242e-11    1.084824e-08    8.432250e-02
    1.686747e+01    2.100442e+02    3.942197e-01    8.439603e+07    1.253968e-08    1.197146e-11    1.091795e-08    8.932250e-02
    1.649867e+01    2.100948e+02    4.285142e-01    8.936857e+07    1.259069e-08    1.236195e-11    1.098601e-08    9.432250e-02
    1.612988e+01    2.099240e+02    4.649339e-01    9.442347e+07    1.264045e-08    1.276421e-11    1.105243e-08    9.932250e-02
    1.576223e+01    2.095360e+02    5.035205e-01    9.954712e+07    1.268896e-08    1.317862e-11    1.111725e-08    1.043225e-01
    1.539677e+01    2.089364e+02    5.443110e-01    1.047260e+08    1.273628e-08    1.360552e-11    1.118051e-08    1.093225e-01
    1.503442e+01    2.081319e+02    5.873365e-01    1.099466e+08    1.278240e-08    1.404531e-11    1.124222e-08    1.143225e-01
    1.467611e+01    2.071313e+02    6.326215e-01    1.151962e+08    1.282735e-08    1.449837e-11    1.130243e-08    1.193225e-01
    1.432260e+01    2.059438e+02    6.801860e-01    1.204625e+08    1.287116e-08    1.496510e-11    1.136116e-08    1.243225e-01
    1.397456e+01    2.045797e+02    7.300455e-01    1.257338e+08    1.291386e-08    1.544593e-11    1.141843e-08    1.293225e-01
    1.363262e+01    2.030500e+02    7.822095e-01    1.309995e+08    1.295546e-08    1.594128e-11    1.147430e-08    1.343225e-01
    1.329731e+01    2.013663e+02    8.366820e-01    1.362495e+08    1.299599e-08    1.645160e-11    1.152878e-08    1.393225e-01
    1.296905e+01    1.995401e+02    8.934650e-01    1.414749e+08    1.303547e-08    1.697736e-11    1.158190e-08    1.443225e-01
    1.264823e+01    1.975834e+02    9.525545e-01    1.466673e+08    1.307393e-08    1.751903e-11    1.163371e-08    1.493225e-01
    1.233512e+01    1.955080e+02    1.013944e+00    1.518198e+08    1.311140e-08    1.807710e-11    1.168422e-08    1.543225e-01
    1.202997e+01    1.933257e+02    1.077622e+00    1.569261e+08    1.314788e-08    1.865208e-11    1.173348e-08    1.593225e-01
    1.173294e+01    1.910478e+02    1.143576e+00    1.619809e+08    1.318342e-08    1.924452e-11    1.178151e-08    1.643225e-01
    1.144413e+01    1.886855e+02    1.211791e+00    1.669797e+08    1.321803e-08    1.985495e-11    1.182834e-08    1.693225e-01
    1.116361e+01    1.862492e+02    1.282249e+00    1.719192e+08    1.325174e-08    2.048393e-11    1.187401e-08    1.743225e-01
    1.089140e+01    1.837494e+02    1.354930e+00    1.767963e+08    1.328456e-08    2.113208e-11    1.191853e-08    1.793225e-01
    1.062747e+01    1.811955e+02    1.429813e+00    1.816092e+08    1.331654e-08    2.179997e-11    1.196196e-08    1.843225e-01
