# sky130 nfet_01v8 gm/ID Processed Lookup Table
# Corner: ss
# Temperature: 25C
# W = 2.0 um
# L = 2.34 um (2340 nm)
# Columns: gm/id [1/V]  gm/gds [V/V]  id/W [A/m]  ft [Hz]  Cgg/W [F/m]  Cgd/W [F/m]  Cgs/W [F/m]  Vov [V]
#         gm/id          gm/gds            id/W              ft           Cgg/W           Cgd/W           Cgs/W             Vov
    2.699216e+01    1.551582e+02    2.634962e-08    2.284623e+01    4.954702e-09    8.223205e-14    2.242683e-10   -5.714692e-01
    2.699160e+01    1.551550e+02    3.015688e-08    2.618968e+01    4.946579e-09    8.524580e-14    2.330002e-10   -5.664692e-01
    2.699100e+01    1.551515e+02    3.451416e-08    3.001961e+01    4.938912e-09    8.837720e-14    2.421433e-10   -5.614692e-01
    2.699036e+01    1.551479e+02    3.950088e-08    3.440629e+01    4.931713e-09    9.163130e-14    2.517176e-10   -5.564692e-01
    2.698968e+01    1.551440e+02    4.520796e-08    3.943001e+01    4.924996e-09    9.501330e-14    2.617443e-10   -5.514692e-01
    2.698895e+01    1.551398e+02    5.173940e-08    4.518251e+01    4.918777e-09    9.852865e-14    2.722445e-10   -5.464692e-01
    2.698817e+01    1.551353e+02    5.921425e-08    5.176864e+01    4.913071e-09    1.021830e-13    2.832416e-10   -5.414692e-01
    2.698733e+01    1.551305e+02    6.776875e-08    5.930812e+01    4.907895e-09    1.059824e-13    2.947595e-10   -5.364692e-01
    2.698643e+01    1.551253e+02    7.755875e-08    6.793768e+01    4.903268e-09    1.099330e-13    3.068230e-10   -5.314692e-01
    2.698548e+01    1.551198e+02    8.876260e-08    7.781343e+01    4.899206e-09    1.140413e-13    3.194579e-10   -5.264692e-01
    2.698444e+01    1.551139e+02    1.015845e-07    8.911350e+01    4.895728e-09    1.183140e-13    3.326908e-10   -5.214692e-01
    2.698335e+01    1.551077e+02    1.162578e-07    1.020412e+02    4.892855e-09    1.227582e-13    3.465496e-10   -5.164692e-01
    2.698218e+01    1.551009e+02    1.330498e-07    1.168284e+02    4.890608e-09    1.273815e-13    3.610632e-10   -5.114692e-01
    2.698092e+01    1.550938e+02    1.522664e-07    1.337397e+02    4.889007e-09    1.321912e-13    3.762615e-10   -5.064692e-01
    2.697959e+01    1.550861e+02    1.742573e-07    1.530764e+02    4.888077e-09    1.371956e-13    3.921753e-10   -5.014692e-01
    2.697816e+01    1.550779e+02    1.994228e-07    1.751824e+02    4.887838e-09    1.424030e-13    4.088367e-10   -4.964692e-01
    2.697662e+01    1.550691e+02    2.282210e-07    2.004489e+02    4.888318e-09    1.478222e-13    4.262789e-10   -4.914692e-01
    2.697499e+01    1.550597e+02    2.611757e-07    2.293223e+02    4.889538e-09    1.534622e-13    4.445359e-10   -4.864692e-01
    2.697323e+01    1.550497e+02    2.988865e-07    2.623100e+02    4.891527e-09    1.593327e-13    4.636432e-10   -4.814692e-01
    2.697137e+01    1.550390e+02    3.420392e-07    2.999904e+02    4.894312e-09    1.654434e-13    4.836371e-10   -4.764692e-01
    2.696937e+01    1.550276e+02    3.914185e-07    3.430209e+02    4.897920e-09    1.718047e-13    5.045550e-10   -4.714692e-01
    2.696723e+01    1.550154e+02    4.479218e-07    3.921497e+02    4.902378e-09    1.784273e-13    5.264350e-10   -4.664692e-01
    2.696495e+01    1.550023e+02    5.125760e-07    4.482274e+02    4.907718e-09    1.853226e-13    5.493170e-10   -4.614692e-01
    2.696249e+01    1.549883e+02    5.865560e-07    5.122208e+02    4.913969e-09    1.925021e-13    5.732415e-10   -4.564692e-01
    2.695989e+01    1.549734e+02    6.712045e-07    5.852284e+02    4.921163e-09    1.999782e-13    5.982490e-10   -4.514692e-01
    2.695709e+01    1.549575e+02    7.680590e-07    6.684975e+02    4.929331e-09    2.077633e-13    6.243830e-10   -4.464692e-01
    2.695412e+01    1.549404e+02    8.788765e-07    7.634447e+02    4.938505e-09    2.158707e-13    6.516855e-10   -4.414692e-01
    2.695092e+01    1.549222e+02    1.005668e-06    8.716767e+02    4.948720e-09    2.243142e-13    6.802015e-10   -4.364692e-01
    2.694751e+01    1.549028e+02    1.150732e-06    9.950169e+02    4.960009e-09    2.331080e-13    7.099745e-10   -4.314692e-01
    2.694387e+01    1.548821e+02    1.316698e-06    1.135532e+03    4.972407e-09    2.422669e-13    7.410500e-10   -4.264692e-01
    2.693997e+01    1.548599e+02    1.506572e-06    1.295565e+03    4.985948e-09    2.518064e-13    7.734745e-10   -4.214692e-01
    2.693582e+01    1.548362e+02    1.723791e-06    1.477770e+03    5.000670e-09    2.617426e-13    8.072930e-10   -4.164692e-01
    2.693137e+01    1.548109e+02    1.972288e-06    1.685153e+03    5.016600e-09    2.720920e-13    8.425535e-10   -4.114692e-01
    2.692662e+01    1.547840e+02    2.256555e-06    1.921113e+03    5.033790e-09    2.828721e-13    8.793015e-10   -4.064692e-01
    2.692156e+01    1.547553e+02    2.581730e-06    2.189503e+03    5.052260e-09    2.941008e-13    9.175840e-10   -4.014692e-01
    2.691614e+01    1.547245e+02    2.953687e-06    2.494672e+03    5.072055e-09    3.057968e-13    9.574485e-10   -3.964692e-01
    2.691034e+01    1.546917e+02    3.379138e-06    2.841539e+03    5.093210e-09    3.179794e-13    9.989410e-10   -3.914692e-01
    2.690416e+01    1.546568e+02    3.865755e-06    3.235667e+03    5.115760e-09    3.306687e-13    1.042108e-09   -3.864692e-01
    2.689757e+01    1.546195e+02    4.422307e-06    3.683332e+03    5.139740e-09    3.438856e-13    1.086996e-09   -3.814692e-01
    2.689051e+01    1.545796e+02    5.058815e-06    4.191621e+03    5.165185e-09    3.576516e-13    1.133648e-09   -3.764692e-01
    2.688300e+01    1.545372e+02    5.786720e-06    4.768533e+03    5.192130e-09    3.719892e-13    1.182109e-09   -3.714692e-01
    2.687497e+01    1.544920e+02    6.619110e-06    5.423085e+03    5.220610e-09    3.869214e-13    1.232422e-09   -3.664692e-01
    2.686640e+01    1.544438e+02    7.570920e-06    6.165444e+03    5.250660e-09    4.024722e-13    1.284630e-09   -3.614692e-01
    2.685724e+01    1.543924e+02    8.659215e-06    7.007073e+03    5.282305e-09    4.186665e-13    1.338771e-09   -3.564692e-01
    2.684749e+01    1.543378e+02    9.903480e-06    7.960870e+03    5.315585e-09    4.355300e-13    1.394886e-09   -3.514692e-01
    2.683708e+01    1.542795e+02    1.132597e-05    9.041378e+03    5.350520e-09    4.530891e-13    1.453009e-09   -3.464692e-01
    2.682599e+01    1.542176e+02    1.295207e-05    1.026494e+04    5.387145e-09    4.713713e-13    1.513175e-09   -3.414692e-01
    2.681415e+01    1.541516e+02    1.481079e-05    1.164996e+04    5.425480e-09    4.904049e-13    1.575417e-09   -3.364692e-01
    2.680153e+01    1.540815e+02    1.693523e-05    1.321712e+04    5.465550e-09    5.102190e-13    1.639763e-09   -3.314692e-01
    2.678809e+01    1.540069e+02    1.936312e-05    1.498967e+04    5.507380e-09    5.308445e-13    1.706240e-09   -3.264692e-01
    2.677376e+01    1.539277e+02    2.213755e-05    1.699373e+04    5.550990e-09    5.523115e-13    1.774871e-09   -3.214692e-01
    2.675850e+01    1.538435e+02    2.530764e-05    1.925864e+04    5.596390e-09    5.746530e-13    1.845675e-09   -3.164692e-01
    2.674225e+01    1.537542e+02    2.892941e-05    2.181732e+04    5.643600e-09    5.979015e-13    1.918671e-09   -3.114692e-01
    2.672494e+01    1.536593e+02    3.306671e-05    2.470671e+04    5.692630e-09    6.220915e-13    1.993869e-09   -3.064692e-01
    2.670654e+01    1.535589e+02    3.779233e-05    2.796827e+04    5.743490e-09    6.472585e-13    2.071278e-09   -3.014692e-01
    2.668695e+01    1.534522e+02    4.318920e-05    3.164844e+04    5.796180e-09    6.734380e-13    2.150903e-09   -2.964692e-01
    2.666613e+01    1.533394e+02    4.935178e-05    3.579929e+04    5.850710e-09    7.006675e-13    2.232745e-09   -2.914692e-01
    2.664401e+01    1.532200e+02    5.638760e-05    4.047913e+04    5.907070e-09    7.289850e-13    2.316798e-09   -2.864692e-01
    2.662048e+01    1.530938e+02    6.441920e-05    4.575325e+04    5.965260e-09    7.584310e-13    2.403052e-09   -2.814692e-01
    2.659552e+01    1.529605e+02    7.358580e-05    5.169475e+04    6.025265e-09    7.890450e-13    2.491496e-09   -2.764692e-01
    2.656902e+01    1.528198e+02    8.404600e-05    5.838532e+04    6.087080e-09    8.208690e-13    2.582109e-09   -2.714692e-01
    2.654090e+01    1.526714e+02    9.598000e-05    6.591634e+04    6.150685e-09    8.539455e-13    2.674868e-09   -2.664692e-01
    2.651111e+01    1.525152e+02    1.095927e-04    7.438996e+04    6.216060e-09    8.883190e-13    2.769743e-09   -2.614692e-01
    2.647954e+01    1.523508e+02    1.251168e-04    8.392031e+04    6.283175e-09    9.240345e-13    2.866701e-09   -2.564692e-01
    2.644612e+01    1.521782e+02    1.428168e-04    9.463465e+04    6.352010e-09    9.611375e-13    2.965701e-09   -2.514692e-01
    2.641076e+01    1.519971e+02    1.629927e-04    1.066752e+05    6.422525e-09    9.996765e-13    3.066700e-09   -2.464692e-01
    2.637338e+01    1.518074e+02    1.859851e-04    1.202004e+05    6.494685e-09    1.039700e-12    3.169649e-09   -2.414692e-01
    2.633389e+01    1.516090e+02    2.121802e-04    1.353870e+05    6.568450e-09    1.081258e-12    3.274492e-09   -2.364692e-01
    2.629221e+01    1.514020e+02    2.420156e-04    1.524317e+05    6.643780e-09    1.124401e-12    3.381170e-09   -2.314692e-01
    2.624829e+01    1.511864e+02    2.759872e-04    1.715540e+05    6.720615e-09    1.169183e-12    3.489618e-09   -2.264692e-01
    2.620201e+01    1.509623e+02    3.146564e-04    1.929975e+05    6.798915e-09    1.215656e-12    3.599768e-09   -2.214692e-01
    2.615333e+01    1.507299e+02    3.586584e-04    2.170336e+05    6.878615e-09    1.263876e-12    3.711545e-09   -2.164692e-01
    2.610216e+01    1.504897e+02    4.087118e-04    2.439640e+05    6.959660e-09    1.313899e-12    3.824872e-09   -2.114692e-01
    2.604846e+01    1.502420e+02    4.656284e-04    2.741236e+05    7.041985e-09    1.365784e-12    3.939667e-09   -2.064692e-01
    2.599217e+01    1.499874e+02    5.303250e-04    3.078845e+05    7.125525e-09    1.419589e-12    4.055843e-09   -2.014692e-01
    2.593322e+01    1.497268e+02    6.038375e-04    3.456597e+05    7.210210e-09    1.475376e-12    4.173311e-09   -1.964692e-01
    2.587163e+01    1.494611e+02    6.873325e-04    3.879071e+05    7.295970e-09    1.533205e-12    4.291977e-09   -1.914692e-01
    2.580735e+01    1.491913e+02    7.821265e-04    4.351345e+05    7.382730e-09    1.593142e-12    4.411747e-09   -1.864692e-01
    2.574037e+01    1.489190e+02    8.897025e-04    4.879050e+05    7.470410e-09    1.655249e-12    4.532522e-09   -1.814692e-01
    2.567071e+01    1.486457e+02    1.011729e-03    5.468413e+05    7.558940e-09    1.719596e-12    4.654201e-09   -1.764692e-01
    2.559841e+01    1.483733e+02    1.150084e-03    6.126342e+05    7.648235e-09    1.786249e-12    4.776680e-09   -1.714692e-01
    2.552350e+01    1.481039e+02    1.306877e-03    6.860481e+05    7.738210e-09    1.855279e-12    4.899854e-09   -1.664692e-01
    2.544606e+01    1.478402e+02    1.484481e-03    7.679290e+05    7.828785e-09    1.926757e-12    5.023620e-09   -1.614692e-01
    2.536619e+01    1.475849e+02    1.685559e-03    8.592129e+05    7.919875e-09    2.000755e-12    5.147870e-09   -1.564692e-01
    2.528398e+01    1.473412e+02    1.913097e-03    9.609354e+05    8.011400e-09    2.077349e-12    5.272495e-09   -1.514692e-01
    2.519960e+01    1.471129e+02    2.170447e-03    1.074243e+06    8.103270e-09    2.156617e-12    5.397390e-09   -1.464692e-01
    2.511318e+01    1.469038e+02    2.461365e-03    1.200404e+06    8.195405e-09    2.238634e-12    5.522445e-09   -1.414692e-01
    2.502492e+01    1.467182e+02    2.790057e-03    1.340822e+06    8.287715e-09    2.323484e-12    5.647560e-09   -1.364692e-01
    2.493504e+01    1.465613e+02    3.161234e-03    1.497050e+06    8.380125e-09    2.411247e-12    5.772620e-09   -1.314692e-01
    2.484373e+01    1.464380e+02    3.580169e-03    1.670809e+06    8.472540e-09    2.502008e-12    5.897525e-09   -1.264692e-01
    2.475125e+01    1.463542e+02    4.052759e-03    1.864001e+06    8.564890e-09    2.595853e-12    6.022175e-09   -1.214692e-01
    2.465784e+01    1.463157e+02    4.585600e-03    2.078738e+06    8.657085e-09    2.692871e-12    6.146470e-09   -1.164692e-01
    2.456374e+01    1.463290e+02    5.186065e-03    2.317349e+06    8.749055e-09    2.793152e-12    6.270305e-09   -1.114692e-01
    2.446921e+01    1.464010e+02    5.862390e-03    2.582423e+06    8.840715e-09    2.896790e-12    6.393585e-09   -1.064692e-01
    2.437444e+01    1.465384e+02    6.623785e-03    2.876821e+06    8.931990e-09    3.003879e-12    6.516220e-09   -1.014692e-01
    2.427967e+01    1.467486e+02    7.480520e-03    3.203706e+06    9.022815e-09    3.114517e-12    6.638120e-09   -9.646920e-02
    2.418505e+01    1.470387e+02    8.444065e-03    3.566581e+06    9.113110e-09    3.228805e-12    6.759195e-09   -9.146920e-02
    2.409069e+01    1.474162e+02    9.527220e-03    3.969311e+06    9.202810e-09    3.346845e-12    6.879365e-09   -8.646920e-02
    2.399663e+01    1.478881e+02    1.074426e-02    4.416158e+06    9.291850e-09    3.468741e-12    6.998545e-09   -8.146920e-02
    2.390284e+01    1.484613e+02    1.211107e-02    4.911806e+06    9.380175e-09    3.594604e-12    7.116665e-09   -7.646920e-02
    2.380920e+01    1.491424e+02    1.364536e-02    5.461414e+06    9.467710e-09    3.724542e-12    7.233645e-09   -7.146920e-02
    2.371547e+01    1.499373e+02    1.536684e-02    6.070610e+06    9.554410e-09    3.858671e-12    7.349425e-09   -6.646920e-02
    2.362130e+01    1.508512e+02    1.729736e-02    6.745541e+06    9.640220e-09    3.997106e-12    7.463930e-09   -6.146920e-02
    2.352623e+01    1.518882e+02    1.946121e-02    7.492877e+06    9.725090e-09    4.139969e-12    7.577110e-09   -5.646920e-02
    2.342965e+01    1.530515e+02    2.188527e-02    8.319830e+06    9.808965e-09    4.287383e-12    7.688905e-09   -5.146920e-02
    2.333085e+01    1.543430e+02    2.459925e-02    9.234149e+06    9.891810e-09    4.439473e-12    7.799260e-09   -4.646920e-02
    2.322898e+01    1.557628e+02    2.763594e-02    1.024408e+07    9.973585e-09    4.596371e-12    7.908130e-09   -4.146920e-02
    2.312308e+01    1.573097e+02    3.103138e-02    1.135841e+07    1.005425e-08    4.758211e-12    8.015470e-09   -3.646920e-02
    2.301209e+01    1.589806e+02    3.482513e-02    1.258630e+07    1.013377e-08    4.925129e-12    8.121245e-09   -3.146920e-02
    2.289489e+01    1.607704e+02    3.906042e-02    1.393735e+07    1.021210e-08    5.097270e-12    8.225410e-09   -2.646920e-02
    2.277033e+01    1.626723e+02    4.378432e-02    1.542144e+07    1.028924e-08    5.274775e-12    8.327945e-09   -2.146920e-02
    2.263720e+01    1.646771e+02    4.904796e-02    1.704858e+07    1.036515e-08    5.457795e-12    8.428815e-09   -1.646920e-02
    2.249435e+01    1.667740e+02    5.490650e-02    1.882889e+07    1.043981e-08    5.646485e-12    8.528000e-09   -1.146920e-02
    2.234065e+01    1.689500e+02    6.141930e-02    2.077236e+07    1.051320e-08    5.841005e-12    8.625475e-09   -6.469200e-03
    2.217508e+01    1.711902e+02    6.864980e-02    2.288871e+07    1.058531e-08    6.041520e-12    8.721230e-09   -1.469200e-03
    2.199672e+01    1.734783e+02    7.666565e-02    2.518720e+07    1.065611e-08    6.248190e-12    8.815245e-09    3.530800e-03
    2.180481e+01    1.757962e+02    8.553820e-02    2.767645e+07    1.072561e-08    6.461200e-12    8.907515e-09    8.530800e-03
    2.159877e+01    1.781248e+02    9.534270e-02    3.036424e+07    1.079380e-08    6.680715e-12    8.998035e-09    1.353080e-02
    2.137818e+01    1.804440e+02    1.061578e-01    3.325727e+07    1.086066e-08    6.906930e-12    9.086795e-09    1.853080e-02
    2.114287e+01    1.827330e+02    1.180650e-01    3.636104e+07    1.092619e-08    7.140030e-12    9.173800e-09    2.353080e-02
    2.089285e+01    1.849709e+02    1.311486e-01    3.967963e+07    1.099041e-08    7.380210e-12    9.259055e-09    2.853080e-02
    2.062834e+01    1.871366e+02    1.454947e-01    4.321553e+07    1.105329e-08    7.627675e-12    9.342555e-09    3.353080e-02
    2.034977e+01    1.892096e+02    1.611911e-01    4.696959e+07    1.111486e-08    7.882625e-12    9.424315e-09    3.853080e-02
    2.005776e+01    1.911703e+02    1.783263e-01    5.094085e+07    1.117511e-08    8.145285e-12    9.504345e-09    4.353080e-02
    1.975310e+01    1.929999e+02    1.969889e-01    5.512651e+07    1.123406e-08    8.415865e-12    9.582655e-09    4.853080e-02
    1.943672e+01    1.946811e+02    2.172669e-01    5.952200e+07    1.129169e-08    8.694595e-12    9.659260e-09    5.353080e-02
    1.910969e+01    1.961985e+02    2.392471e-01    6.412086e+07    1.134805e-08    8.981715e-12    9.734170e-09    5.853080e-02
    1.877318e+01    1.975381e+02    2.630140e-01    6.891490e+07    1.140312e-08    9.277465e-12    9.807410e-09    6.353080e-02
    1.842841e+01    1.986883e+02    2.886500e-01    7.389439e+07    1.145693e-08    9.582095e-12    9.878995e-09    6.853080e-02
    1.807668e+01    1.996395e+02    3.162332e-01    7.904792e+07    1.150948e-08    9.895865e-12    9.948945e-09    7.353080e-02
    1.771929e+01    2.003844e+02    3.458386e-01    8.436297e+07    1.156081e-08    1.021904e-11    1.001728e-08    7.853080e-02
    1.735758e+01    2.009178e+02    3.775360e-01    8.982589e+07    1.161091e-08    1.055189e-11    1.008404e-08    8.353080e-02
    1.699282e+01    2.012370e+02    4.113905e-01    9.542205e+07    1.165980e-08    1.089471e-11    1.014923e-08    8.853080e-02
    1.662627e+01    2.013407e+02    4.474617e-01    1.011361e+08    1.170752e-08    1.124778e-11    1.021287e-08    9.353080e-02
    1.625915e+01    2.012307e+02    4.858036e-01    1.069524e+08    1.175407e-08    1.161142e-11    1.027501e-08    9.853080e-02
    1.589260e+01    2.009099e+02    5.264645e-01    1.128552e+08    1.179947e-08    1.198593e-11    1.033565e-08    1.035308e-01
    1.552770e+01    2.003830e+02    5.694855e-01    1.188286e+08    1.184374e-08    1.237164e-11    1.039484e-08    1.085308e-01
    1.516543e+01    1.996564e+02    6.149030e-01    1.248569e+08    1.188692e-08    1.276888e-11    1.045259e-08    1.135308e-01
    1.480670e+01    1.987377e+02    6.627470e-01    1.309248e+08    1.192901e-08    1.317800e-11    1.050894e-08    1.185308e-01
    1.445234e+01    1.976359e+02    7.130410e-01    1.370180e+08    1.197003e-08    1.359936e-11    1.056391e-08    1.235308e-01
    1.410307e+01    1.963605e+02    7.658035e-01    1.431224e+08    1.201001e-08    1.403332e-11    1.061753e-08    1.285308e-01
    1.375956e+01    1.949220e+02    8.210460e-01    1.492251e+08    1.204897e-08    1.448026e-11    1.066984e-08    1.335308e-01
    1.342235e+01    1.933314e+02    8.787770e-01    1.553142e+08    1.208694e-08    1.494059e-11    1.072085e-08    1.385308e-01
    1.309193e+01    1.915997e+02    9.389990e-01    1.613785e+08    1.212393e-08    1.541470e-11    1.077060e-08    1.435308e-01
    1.276870e+01    1.897389e+02    1.001709e+00    1.674080e+08    1.215997e-08    1.590303e-11    1.081913e-08    1.485308e-01
    1.245300e+01    1.877601e+02    1.066902e+00    1.733940e+08    1.219507e-08    1.640600e-11    1.086645e-08    1.535308e-01
    1.214508e+01    1.856749e+02    1.134566e+00    1.793288e+08    1.222926e-08    1.692407e-11    1.091260e-08    1.585308e-01
    1.184513e+01    1.834943e+02    1.204690e+00    1.852055e+08    1.226257e-08    1.745771e-11    1.095760e-08    1.635308e-01
    1.155331e+01    1.812293e+02    1.277258e+00    1.910187e+08    1.229502e-08    1.800739e-11    1.100148e-08    1.685308e-01
    1.126969e+01    1.788905e+02    1.352249e+00    1.967637e+08    1.232661e-08    1.857362e-11    1.104428e-08    1.735308e-01
    1.099432e+01    1.764877e+02    1.429644e+00    2.024370e+08    1.235739e-08    1.915692e-11    1.108602e-08    1.785308e-01
    1.072720e+01    1.740306e+02    1.509421e+00    2.080356e+08    1.238737e-08    1.975781e-11    1.112672e-08    1.835308e-01
