# sky130 nfet_01v8 gm/ID Processed Lookup Table
# Corner: tt
# Temperature: 25C
# W = 2.0 um
# L = 0.72 um (720 nm)
# Columns: gm/id [1/V]  gm/gds [V/V]  id/W [A/m]  ft [Hz]  Cgg/W [F/m]  Cgd/W [F/m]  Cgs/W [F/m]  Vov [V]
#         gm/id          gm/gds            id/W              ft           Cgg/W           Cgd/W           Cgs/W             Vov
    2.783570e+01    1.692695e+02    4.482252e-08    1.315954e+02    1.508961e-09    5.930175e-15    4.385780e-11   -6.164332e-01
    2.783524e+01    1.692674e+02    5.151575e-08    1.516520e+02    1.504898e-09    6.132570e-15    4.540146e-11   -6.114332e-01
    2.783475e+01    1.692650e+02    5.920835e-08    1.747530e+02    1.500949e-09    6.339305e-15    4.701718e-11   -6.064332e-01
    2.783421e+01    1.692625e+02    6.804950e-08    2.013581e+02    1.497114e-09    6.550330e-15    4.870893e-11   -6.014332e-01
    2.783363e+01    1.692597e+02    7.821060e-08    2.319959e+02    1.493397e-09    6.765595e-15    5.048085e-11   -5.964332e-01
    2.783302e+01    1.692567e+02    8.988865e-08    2.672744e+02    1.489800e-09    6.985025e-15    5.233735e-11   -5.914332e-01
    2.783237e+01    1.692534e+02    1.033101e-07    3.078923e+02    1.486327e-09    7.208555e-15    5.428310e-11   -5.864332e-01
    2.783166e+01    1.692499e+02    1.187352e-07    3.546531e+02    1.482978e-09    7.436080e-15    5.632290e-11   -5.814332e-01
    2.783091e+01    1.692461e+02    1.364628e-07    4.084797e+02    1.479760e-09    7.667515e-15    5.846195e-11   -5.764332e-01
    2.783010e+01    1.692420e+02    1.568365e-07    4.704331e+02    1.476673e-09    7.902745e-15    6.070560e-11   -5.714332e-01
    2.782924e+01    1.692376e+02    1.802514e-07    5.417318e+02    1.473723e-09    8.141650e-15    6.305955e-11   -5.664332e-01
    2.782830e+01    1.692327e+02    2.071611e-07    6.237750e+02    1.470913e-09    8.384090e-15    6.552970e-11   -5.614332e-01
    2.782730e+01    1.692275e+02    2.380869e-07    7.181702e+02    1.468248e-09    8.629930e-15    6.812240e-11   -5.564332e-01
    2.782625e+01    1.692219e+02    2.736280e-07    8.267630e+02    1.465731e-09    8.879015e-15    7.084415e-11   -5.514332e-01
    2.782510e+01    1.692159e+02    3.144729e-07    9.516707e+02    1.463368e-09    9.131170e-15    7.370190e-11   -5.464332e-01
    2.782387e+01    1.692093e+02    3.614126e-07    1.095324e+03    1.461163e-09    9.386230e-15    7.670275e-11   -5.414332e-01
    2.782257e+01    1.692023e+02    4.153562e-07    1.260510e+03    1.459122e-09    9.644000e-15    7.985435e-11   -5.364332e-01
    2.782115e+01    1.691947e+02    4.773480e-07    1.450428e+03    1.457251e-09    9.904295e-15    8.316460e-11   -5.314332e-01
    2.781965e+01    1.691866e+02    5.485880e-07    1.668744e+03    1.455554e-09    1.016691e-14    8.664170e-11   -5.264332e-01
    2.781803e+01    1.691778e+02    6.304550e-07    1.919660e+03    1.454039e-09    1.043162e-14    9.029415e-11   -5.214332e-01
    2.781628e+01    1.691683e+02    7.245335e-07    2.207994e+03    1.452713e-09    1.069824e-14    9.413105e-11   -5.164332e-01
    2.781443e+01    1.691581e+02    8.326425e-07    2.539264e+03    1.451580e-09    1.096653e-14    9.816190e-11   -5.114332e-01
    2.781243e+01    1.691472e+02    9.568740e-07    2.919788e+03    1.450649e-09    1.123628e-14    1.023966e-10   -5.064332e-01
    2.781029e+01    1.691354e+02    1.099630e-06    3.356800e+03    1.449929e-09    1.150726e-14    1.068451e-10   -5.014332e-01
    2.780800e+01    1.691228e+02    1.263668e-06    3.858580e+03    1.449425e-09    1.177928e-14    1.115183e-10   -4.964332e-01
    2.780554e+01    1.691093e+02    1.452162e-06    4.434598e+03    1.449146e-09    1.205212e-14    1.164270e-10   -4.914332e-01
    2.780291e+01    1.690947e+02    1.668749e-06    5.095686e+03    1.449101e-09    1.232559e-14    1.215828e-10   -4.864332e-01
    2.780009e+01    1.690790e+02    1.917615e-06    5.854224e+03    1.449300e-09    1.259951e-14    1.269974e-10   -4.814332e-01
    2.779707e+01    1.690622e+02    2.203562e-06    6.724364e+03    1.449750e-09    1.287371e-14    1.326831e-10   -4.764332e-01
    2.779385e+01    1.690443e+02    2.532109e-06    7.722267e+03    1.450462e-09    1.314807e-14    1.386528e-10   -4.714332e-01
    2.779039e+01    1.690250e+02    2.909593e-06    8.866379e+03    1.451445e-09    1.342248e-14    1.449194e-10   -4.664332e-01
    2.778668e+01    1.690043e+02    3.343291e-06    1.017776e+04    1.452710e-09    1.369687e-14    1.514964e-10   -4.614332e-01
    2.778270e+01    1.689820e+02    3.841563e-06    1.168042e+04    1.454268e-09    1.397123e-14    1.583978e-10   -4.564332e-01
    2.777845e+01    1.689582e+02    4.414004e-06    1.340174e+04    1.456128e-09    1.424560e-14    1.656378e-10   -4.514332e-01
    2.777389e+01    1.689326e+02    5.071635e-06    1.537295e+04    1.458303e-09    1.452007e-14    1.732312e-10   -4.464332e-01
    2.776902e+01    1.689052e+02    5.827105e-06    1.762956e+04    1.460804e-09    1.479480e-14    1.811929e-10   -4.414332e-01
    2.776379e+01    1.688758e+02    6.694945e-06    2.021206e+04    1.463644e-09    1.507004e-14    1.895383e-10   -4.364332e-01
    2.775820e+01    1.688444e+02    7.691825e-06    2.316649e+04    1.466832e-09    1.534614e-14    1.982831e-10   -4.314332e-01
    2.775220e+01    1.688107e+02    8.836885e-06    2.654520e+04    1.470384e-09    1.562356e-14    2.074433e-10   -4.264332e-01
    2.774579e+01    1.687746e+02    1.015209e-05    3.040773e+04    1.474310e-09    1.590285e-14    2.170351e-10   -4.214332e-01
    2.773894e+01    1.687359e+02    1.166265e-05    3.482165e+04    1.478624e-09    1.618473e-14    2.270749e-10   -4.164332e-01
    2.773159e+01    1.686945e+02    1.339750e-05    3.986375e+04    1.483340e-09    1.647004e-14    2.375795e-10   -4.114332e-01
    2.772373e+01    1.686502e+02    1.538983e-05    4.562111e+04    1.488469e-09    1.675981e-14    2.485656e-10   -4.064332e-01
    2.771532e+01    1.686028e+02    1.767771e-05    5.219251e+04    1.494025e-09    1.705523e-14    2.600501e-10   -4.014332e-01
    2.770634e+01    1.685521e+02    2.030483e-05    5.968992e+04    1.500022e-09    1.735773e-14    2.720501e-10   -3.964332e-01
    2.769671e+01    1.684977e+02    2.332129e-05    6.824008e+04    1.506473e-09    1.766889e-14    2.845825e-10   -3.914332e-01
    2.768641e+01    1.684396e+02    2.678454e-05    7.798652e+04    1.513392e-09    1.799062e-14    2.976642e-10   -3.864332e-01
    2.767540e+01    1.683775e+02    3.076045e-05    8.909169e+04    1.520791e-09    1.832503e-14    3.113119e-10   -3.814332e-01
    2.766363e+01    1.683112e+02    3.532453e-05    1.017391e+05    1.528684e-09    1.867454e-14    3.255424e-10   -3.764332e-01
    2.765105e+01    1.682402e+02    4.056333e-05    1.161363e+05    1.537083e-09    1.904187e-14    3.403721e-10   -3.714332e-01
    2.763759e+01    1.681644e+02    4.657605e-05    1.325173e+05    1.546003e-09    1.943008e-14    3.558169e-10   -3.664332e-01
    2.762323e+01    1.680835e+02    5.347630e-05    1.511466e+05    1.555455e-09    1.984260e-14    3.718926e-10   -3.614332e-01
    2.760786e+01    1.679971e+02    6.139430e-05    1.723223e+05    1.565452e-09    2.028322e-14    3.886143e-10   -3.564332e-01
    2.759147e+01    1.679048e+02    7.047905e-05    1.963801e+05    1.576004e-09    2.075618e-14    4.059967e-10   -3.514332e-01
    2.757395e+01    1.678064e+02    8.090130e-05    2.236986e+05    1.587126e-09    2.126610e-14    4.240538e-10   -3.464332e-01
    2.755525e+01    1.677015e+02    9.285630e-05    2.547036e+05    1.598825e-09    2.181812e-14    4.427989e-10   -3.414332e-01
    2.753531e+01    1.675896e+02    1.065677e-04    2.898741e+05    1.611113e-09    2.241786e-14    4.622445e-10   -3.364332e-01
    2.751402e+01    1.674704e+02    1.222911e-04    3.297486e+05    1.624000e-09    2.307144e-14    4.824020e-10   -3.314332e-01
    2.749132e+01    1.673434e+02    1.403190e-04    3.749320e+05    1.637493e-09    2.378556e-14    5.032820e-10   -3.264332e-01
    2.746712e+01    1.672083e+02    1.609856e-04    4.261032e+05    1.651602e-09    2.456749e-14    5.248945e-10   -3.214332e-01
    2.744132e+01    1.670644e+02    1.846730e-04    4.840237e+05    1.666333e-09    2.542509e-14    5.472470e-10   -3.164332e-01
    2.741385e+01    1.669116e+02    2.118175e-04    5.495481e+05    1.681692e-09    2.636687e-14    5.703475e-10   -3.114332e-01
    2.738462e+01    1.667492e+02    2.429176e-04    6.236327e+05    1.697684e-09    2.740200e-14    5.942010e-10   -3.064332e-01
    2.735349e+01    1.665767e+02    2.785418e-04    7.073476e+05    1.714314e-09    2.854034e-14    6.188125e-10   -3.014332e-01
    2.732039e+01    1.663937e+02    3.193392e-04    8.018915e+05    1.731584e-09    2.979242e-14    6.441845e-10   -2.964332e-01
    2.728520e+01    1.661997e+02    3.660495e-04    9.086033e+05    1.749496e-09    3.116955e-14    6.703185e-10   -2.914332e-01
    2.724782e+01    1.659941e+02    4.195162e-04    1.028978e+06    1.768050e-09    3.268378e-14    6.972140e-10   -2.864332e-01
    2.720812e+01    1.657764e+02    4.806998e-04    1.164686e+06    1.787244e-09    3.434794e-14    7.248695e-10   -2.814332e-01
    2.716602e+01    1.655464e+02    5.506940e-04    1.317588e+06    1.807078e-09    3.617564e-14    7.532805e-10   -2.764332e-01
    2.712136e+01    1.653034e+02    6.307435e-04    1.489759e+06    1.827547e-09    3.818130e-14    7.824420e-10   -2.714332e-01
    2.707407e+01    1.650469e+02    7.222625e-04    1.683508e+06    1.848646e-09    4.038020e-14    8.123465e-10   -2.664332e-01
    2.702401e+01    1.647767e+02    8.268595e-04    1.901406e+06    1.870367e-09    4.278843e-14    8.429850e-10   -2.614332e-01
    2.697106e+01    1.644923e+02    9.463610e-04    2.146309e+06    1.892704e-09    4.542292e-14    8.743460e-10   -2.564332e-01
    2.691512e+01    1.641933e+02    1.082838e-03    2.421390e+06    1.915645e-09    4.830149e-14    9.064175e-10   -2.514332e-01
    2.685607e+01    1.638796e+02    1.238641e-03    2.730168e+06    1.939182e-09    5.144280e-14    9.391835e-10   -2.464332e-01
    2.679382e+01    1.635508e+02    1.416432e-03    3.076548e+06    1.963299e-09    5.486635e-14    9.726280e-10   -2.414332e-01
    2.672825e+01    1.632070e+02    1.619225e-03    3.464853e+06    1.987984e-09    5.859260e-14    1.006733e-09   -2.364332e-01
    2.665929e+01    1.628480e+02    1.850429e-03    3.899867e+06    2.013220e-09    6.264275e-14    1.041476e-09   -2.314332e-01
    2.658684e+01    1.624739e+02    2.113900e-03    4.386881e+06    2.038991e-09    6.703895e-14    1.076838e-09   -2.264332e-01
    2.651085e+01    1.620851e+02    2.413987e-03    4.931742e+06    2.065278e-09    7.180420e-14    1.112792e-09   -2.214332e-01
    2.643123e+01    1.616817e+02    2.755604e-03    5.540897e+06    2.092061e-09    7.696225e-14    1.149314e-09   -2.164332e-01
    2.634795e+01    1.612645e+02    3.144284e-03    6.221465e+06    2.119318e-09    8.253775e-14    1.186377e-09   -2.114332e-01
    2.626100e+01    1.608341e+02    3.586261e-03    6.981290e+06    2.147028e-09    8.855620e-14    1.223951e-09   -2.064332e-01
    2.617036e+01    1.603913e+02    4.088549e-03    7.829006e+06    2.175166e-09    9.504385e-14    1.262008e-09   -2.014332e-01
    2.607604e+01    1.599373e+02    4.659031e-03    8.774115e+06    2.203708e-09    1.020277e-13    1.300515e-09   -1.964332e-01
    2.597810e+01    1.594737e+02    5.306565e-03    9.827075e+06    2.232629e-09    1.095355e-13    1.339439e-09   -1.914332e-01
    2.587658e+01    1.590020e+02    6.041080e-03    1.099937e+07    2.261902e-09    1.175960e-13    1.378748e-09   -1.864332e-01
    2.577158e+01    1.585240e+02    6.873715e-03    1.230363e+07    2.291498e-09    1.262383e-13    1.418406e-09   -1.814332e-01
    2.566323e+01    1.580421e+02    7.816940e-03    1.375372e+07    2.321390e-09    1.354923e-13    1.458377e-09   -1.764332e-01
    2.555166e+01    1.575586e+02    8.884705e-03    1.536485e+07    2.351549e-09    1.453887e-13    1.498627e-09   -1.714332e-01
    2.543705e+01    1.570764e+02    1.009262e-02    1.715375e+07    2.381945e-09    1.559588e-13    1.539116e-09   -1.664332e-01
    2.531958e+01    1.565985e+02    1.145810e-02    1.913875e+07    2.412548e-09    1.672345e-13    1.579809e-09   -1.614332e-01
    2.519952e+01    1.561282e+02    1.300061e-02    2.133998e+07    2.443329e-09    1.792482e-13    1.620668e-09   -1.564332e-01
    2.507707e+01    1.556692e+02    1.474182e-02    2.377952e+07    2.474257e-09    1.920330e-13    1.661654e-09   -1.514332e-01
    2.495251e+01    1.552252e+02    1.670592e-02    2.648163e+07    2.505302e-09    2.056225e-13    1.702731e-09   -1.464332e-01
    2.482612e+01    1.548003e+02    1.891983e-02    2.947290e+07    2.536432e-09    2.200510e-13    1.743859e-09   -1.414332e-01
    2.469816e+01    1.543985e+02    2.141350e-02    3.278248e+07    2.567619e-09    2.353529e-13    1.785003e-09   -1.364332e-01
    2.456893e+01    1.540240e+02    2.422027e-02    3.644243e+07    2.598830e-09    2.515636e-13    1.826124e-09   -1.314332e-01
    2.443864e+01    1.536809e+02    2.737716e-02    4.048774e+07    2.630038e-09    2.687186e-13    1.867186e-09   -1.264332e-01
    2.430757e+01    1.533732e+02    3.092531e-02    4.495687e+07    2.661213e-09    2.868539e-13    1.908153e-09   -1.214332e-01
    2.417589e+01    1.531049e+02    3.491036e-02    4.989183e+07    2.692325e-09    3.060062e-13    1.948991e-09   -1.164332e-01
    2.404374e+01    1.528790e+02    3.938295e-02    5.533850e+07    2.723348e-09    3.262125e-13    1.989663e-09   -1.114332e-01
    2.391122e+01    1.526989e+02    4.439916e-02    6.134695e+07    2.754252e-09    3.475101e-13    2.030139e-09   -1.064332e-01
    2.377832e+01    1.525666e+02    5.002110e-02    6.797160e+07    2.785012e-09    3.699368e-13    2.070383e-09   -1.014332e-01
    2.364497e+01    1.524839e+02    5.631735e-02    7.527138e+07    2.815602e-09    3.935310e-13    2.110366e-09   -9.643320e-02
    2.351096e+01    1.524514e+02    6.336385e-02    8.331012e+07    2.845996e-09    4.183314e-13    2.150056e-09   -9.143320e-02
    2.337607e+01    1.524688e+02    7.124405e-02    9.215638e+07    2.876172e-09    4.443772e-13    2.189427e-09   -8.643320e-02
    2.323988e+01    1.525347e+02    8.005000e-02    1.018835e+08    2.906105e-09    4.717079e-13    2.228449e-09   -8.143320e-02
    2.310189e+01    1.526464e+02    8.988285e-02    1.125697e+08    2.935776e-09    5.003635e-13    2.267096e-09   -7.643320e-02
    2.296154e+01    1.528000e+02    1.008533e-01    1.242976e+08    2.965161e-09    5.303850e-13    2.305345e-09   -7.143320e-02
    2.281811e+01    1.529903e+02    1.130825e-01    1.371539e+08    2.994243e-09    5.618130e-13    2.343173e-09   -6.643320e-02
    2.267086e+01    1.532105e+02    1.267025e-01    1.512289e+08    3.023002e-09    5.946895e-13    2.380556e-09   -6.143320e-02
    2.251896e+01    1.534530e+02    1.418568e-01    1.666159e+08    3.051421e-09    6.290560e-13    2.417475e-09   -5.643320e-02
    2.236154e+01    1.537084e+02    1.587010e-01    1.834101e+08    3.079485e-09    6.649560e-13    2.453911e-09   -5.143320e-02
    2.219770e+01    1.539666e+02    1.774028e-01    2.017076e+08    3.107179e-09    7.024325e-13    2.489847e-09   -4.643320e-02
    2.202659e+01    1.542164e+02    1.981426e-01    2.216044e+08    3.134489e-09    7.415295e-13    2.525268e-09   -4.143320e-02
    2.184735e+01    1.544458e+02    2.211133e-01    2.431946e+08    3.161402e-09    7.822915e-13    2.560159e-09   -3.643320e-02
    2.165921e+01    1.546425e+02    2.465206e-01    2.665693e+08    3.187908e-09    8.247650e-13    2.594507e-09   -3.143320e-02
    2.146149e+01    1.547936e+02    2.745824e-01    2.918148e+08    3.213995e-09    8.689950e-13    2.628301e-09   -2.643320e-02
    2.125359e+01    1.548863e+02    3.055286e-01    3.190108e+08    3.239656e-09    9.150295e-13    2.661532e-09   -2.143320e-02
    2.103509e+01    1.549081e+02    3.396003e-01    3.482292e+08    3.264882e-09    9.629160e-13    2.694190e-09   -1.643320e-02
    2.080567e+01    1.548471e+02    3.770493e-01    3.795318e+08    3.289667e-09    1.012704e-12    2.726268e-09   -1.143320e-02
    2.056519e+01    1.546918e+02    4.181364e-01    4.129692e+08    3.314005e-09    1.064443e-12    2.757762e-09   -6.433200e-03
    2.031367e+01    1.544324e+02    4.631308e-01    4.485800e+08    3.337892e-09    1.118183e-12    2.788666e-09   -1.433200e-03
    2.005127e+01    1.540595e+02    5.123080e-01    4.863881e+08    3.361323e-09    1.173979e-12    2.818977e-09    3.566800e-03
    1.977828e+01    1.535657e+02    5.659495e-01    5.264027e+08    3.384295e-09    1.231883e-12    2.848692e-09    8.566800e-03
    1.949523e+01    1.529447e+02    6.243385e-01    5.686183e+08    3.406808e-09    1.291948e-12    2.877810e-09    1.356680e-02
    1.920267e+01    1.521922e+02    6.877605e-01    6.130124e+08    3.428861e-09    1.354233e-12    2.906332e-09    1.856680e-02
    1.890132e+01    1.513052e+02    7.565015e-01    6.595475e+08    3.450452e-09    1.418794e-12    2.934259e-09    2.356680e-02
    1.859199e+01    1.502825e+02    8.308430e-01    7.081700e+08    3.471582e-09    1.485689e-12    2.961591e-09    2.856680e-02
    1.827556e+01    1.491247e+02    9.110635e-01    7.588113e+08    3.492254e-09    1.554981e-12    2.988332e-09    3.356680e-02
    1.795298e+01    1.478334e+02    9.974345e-01    8.113882e+08    3.512468e-09    1.626730e-12    3.014486e-09    3.856680e-02
    1.762524e+01    1.464124e+02    1.090219e+00    8.658049e+08    3.532229e-09    1.701001e-12    3.040057e-09    4.356680e-02
    1.729333e+01    1.448662e+02    1.189671e+00    9.219535e+08    3.551538e-09    1.777859e-12    3.065049e-09    4.856680e-02
    1.695827e+01    1.432006e+02    1.296031e+00    9.797157e+08    3.570400e-09    1.857373e-12    3.089469e-09    5.356680e-02
    1.662105e+01    1.414226e+02    1.409529e+00    1.038965e+09    3.588820e-09    1.939612e-12    3.113323e-09    5.856680e-02
    1.628266e+01    1.395397e+02    1.530379e+00    1.099568e+09    3.606801e-09    2.024648e-12    3.136617e-09    6.356680e-02
    1.594404e+01    1.375604e+02    1.658779e+00    1.161387e+09    3.624350e-09    2.112555e-12    3.159359e-09    6.856680e-02
    1.560608e+01    1.354935e+02    1.794913e+00    1.224279e+09    3.641472e-09    2.203409e-12    3.181558e-09    7.356680e-02
    1.526962e+01    1.333481e+02    1.938947e+00    1.288102e+09    3.658172e-09    2.297289e-12    3.203220e-09    7.856680e-02
    1.493545e+01    1.311336e+02    2.091030e+00    1.352712e+09    3.674458e-09    2.394277e-12    3.224354e-09    8.356680e-02
    1.460431e+01    1.288593e+02    2.251293e+00    1.417970e+09    3.690336e-09    2.494456e-12    3.244970e-09    8.856680e-02
    1.427683e+01    1.265345e+02    2.419850e+00    1.483738e+09    3.705813e-09    2.597913e-12    3.265077e-09    9.356680e-02
    1.395363e+01    1.241683e+02    2.596801e+00    1.549881e+09    3.720895e-09    2.704738e-12    3.284684e-09    9.856680e-02
    1.363522e+01    1.217696e+02    2.782223e+00    1.616274e+09    3.735591e-09    2.815021e-12    3.303801e-09    1.035668e-01
    1.332208e+01    1.193467e+02    2.976182e+00    1.682794e+09    3.749907e-09    2.928861e-12    3.322436e-09    1.085668e-01
    1.301460e+01    1.169077e+02    3.178726e+00    1.749329e+09    3.763852e-09    3.046355e-12    3.340602e-09    1.135668e-01
    1.271312e+01    1.144601e+02    3.389889e+00    1.815771e+09    3.777432e-09    3.167603e-12    3.358306e-09    1.185668e-01
    1.241794e+01    1.120109e+02    3.609691e+00    1.882024e+09    3.790656e-09    3.292715e-12    3.375560e-09    1.235668e-01
    1.212928e+01    1.095667e+02    3.838138e+00    1.947998e+09    3.803532e-09    3.421796e-12    3.392373e-09    1.285668e-01
    1.184732e+01    1.071334e+02    4.075225e+00    2.013612e+09    3.816067e-09    3.554961e-12    3.408756e-09    1.335668e-01
    1.157220e+01    1.047164e+02    4.320936e+00    2.078795e+09    3.828269e-09    3.692325e-12    3.424719e-09    1.385668e-01
