# sky130 nfet_01v8 gm/ID Processed Lookup Table
# Corner: tt
# Temperature: 25C
# W = 2.0 um
# L = 1.62 um (1620 nm)
# Columns: gm/id [1/V]  gm/gds [V/V]  id/W [A/m]  ft [Hz]  Cgg/W [F/m]  Cgd/W [F/m]  Cgs/W [F/m]  Vov [V]
#         gm/id          gm/gds            id/W              ft           Cgg/W           Cgd/W           Cgs/W             Vov
    2.726467e+01    1.472541e+02    4.904631e-08    6.160372e+01    3.454775e-09    5.837490e-14    1.564382e-10   -5.671371e-01
    2.726406e+01    1.472508e+02    5.620955e-08    7.072288e+01    3.448743e-09    6.051945e-14    1.625731e-10   -5.621371e-01
    2.726340e+01    1.472473e+02    6.441880e-08    8.118388e+01    3.443047e-09    6.274835e-14    1.690046e-10   -5.571371e-01
    2.726270e+01    1.472435e+02    7.382670e-08    9.318259e+01    3.437697e-09    6.506530e-14    1.757481e-10   -5.521371e-01
    2.726194e+01    1.472394e+02    8.460830e-08    1.069432e+02    3.432706e-09    6.747415e-14    1.828192e-10   -5.471371e-01
    2.726113e+01    1.472350e+02    9.696400e-08    1.227222e+02    3.428083e-09    6.997880e-14    1.902346e-10   -5.421371e-01
    2.726026e+01    1.472304e+02    1.111236e-07    1.408131e+02    3.423841e-09    7.258355e-14    1.980113e-10   -5.371371e-01
    2.725934e+01    1.472254e+02    1.273504e-07    1.615514e+02    3.419992e-09    7.529265e-14    2.061675e-10   -5.321371e-01
    2.725835e+01    1.472200e+02    1.459460e-07    1.853208e+02    3.416550e-09    7.811075e-14    2.147219e-10   -5.271371e-01
    2.725728e+01    1.472143e+02    1.672561e-07    2.125597e+02    3.413529e-09    8.104255e-14    2.236933e-10   -5.221371e-01
    2.725615e+01    1.472082e+02    1.916766e-07    2.437695e+02    3.410941e-09    8.409310e-14    2.331027e-10   -5.171371e-01
    2.725493e+01    1.472016e+02    2.196613e-07    2.795225e+02    3.408805e-09    8.726760e-14    2.429713e-10   -5.121371e-01
    2.725361e+01    1.471945e+02    2.517303e-07    3.204721e+02    3.407136e-09    9.057150e-14    2.533210e-10   -5.071371e-01
    2.725222e+01    1.471870e+02    2.884793e-07    3.673656e+02    3.405949e-09    9.401050e-14    2.641745e-10   -5.021371e-01
    2.725072e+01    1.471789e+02    3.305905e-07    4.210542e+02    3.405262e-09    9.759055e-14    2.755557e-10   -4.971371e-01
    2.724912e+01    1.471703e+02    3.788461e-07    4.825103e+02    3.405093e-09    1.013178e-13    2.874889e-10   -4.921371e-01
    2.724741e+01    1.471611e+02    4.341420e-07    5.528421e+02    3.405462e-09    1.051988e-13    2.999994e-10   -4.871371e-01
    2.724558e+01    1.471513e+02    4.975042e-07    6.333138e+02    3.406387e-09    1.092403e-13    3.131135e-10   -4.821371e-01
    2.724363e+01    1.471408e+02    5.701085e-07    7.253661e+02    3.407889e-09    1.134495e-13    3.268581e-10   -4.771371e-01
    2.724152e+01    1.471295e+02    6.533025e-07    8.306404e+02    3.409988e-09    1.178335e-13    3.412611e-10   -4.721371e-01
    2.723928e+01    1.471175e+02    7.486280e-07    9.510056e+02    3.412706e-09    1.224003e-13    3.563512e-10   -4.671371e-01
    2.723689e+01    1.471046e+02    8.578530e-07    1.088590e+03    3.416065e-09    1.271577e-13    3.721579e-10   -4.621371e-01
    2.723433e+01    1.470908e+02    9.830015e-07    1.245816e+03    3.420087e-09    1.321142e-13    3.887114e-10   -4.571371e-01
    2.723157e+01    1.470761e+02    1.126393e-06    1.425436e+03    3.424798e-09    1.372785e-13    4.060430e-10   -4.521371e-01
    2.722864e+01    1.470603e+02    1.290683e-06    1.630585e+03    3.430220e-09    1.426598e-13    4.241841e-10   -4.471371e-01
    2.722551e+01    1.470435e+02    1.478912e-06    1.864822e+03    3.436379e-09    1.482674e-13    4.431673e-10   -4.421371e-01
    2.722215e+01    1.470255e+02    1.694565e-06    2.132190e+03    3.443299e-09    1.541113e-13    4.630258e-10   -4.371371e-01
    2.721856e+01    1.470062e+02    1.941630e-06    2.437282e+03    3.451006e-09    1.602018e-13    4.837931e-10   -4.321371e-01
    2.721472e+01    1.469856e+02    2.224675e-06    2.785311e+03    3.459528e-09    1.665497e-13    5.055035e-10   -4.271371e-01
    2.721062e+01    1.469637e+02    2.548932e-06    3.182191e+03    3.468889e-09    1.731661e-13    5.281920e-10   -4.221371e-01
    2.720623e+01    1.469402e+02    2.920388e-06    3.634627e+03    3.479118e-09    1.800625e-13    5.518930e-10   -4.171371e-01
    2.720154e+01    1.469152e+02    3.345901e-06    4.150220e+03    3.490242e-09    1.872510e-13    5.766420e-10   -4.121371e-01
    2.719651e+01    1.468883e+02    3.833321e-06    4.737580e+03    3.502288e-09    1.947443e-13    6.024755e-10   -4.071371e-01
    2.719115e+01    1.468597e+02    4.391631e-06    5.406460e+03    3.515285e-09    2.025553e-13    6.294280e-10   -4.021371e-01
    2.718541e+01    1.468291e+02    5.031120e-06    6.167894e+03    3.529261e-09    2.106977e-13    6.575365e-10   -3.971371e-01
    2.717928e+01    1.467965e+02    5.763555e-06    7.034370e+03    3.544242e-09    2.191854e-13    6.868355e-10   -3.921371e-01
    2.717274e+01    1.467616e+02    6.602410e-06    8.020005e+03    3.560257e-09    2.280332e-13    7.173610e-10   -3.871371e-01
    2.716574e+01    1.467244e+02    7.563100e-06    9.140754e+03    3.577334e-09    2.372561e-13    7.491485e-10   -3.821371e-01
    2.715827e+01    1.466846e+02    8.663260e-06    1.041464e+04    3.595500e-09    2.468700e-13    7.822320e-10   -3.771371e-01
    2.715028e+01    1.466423e+02    9.923075e-06    1.186202e+04    3.614781e-09    2.568910e-13    8.166455e-10   -3.721371e-01
    2.714176e+01    1.465971e+02    1.136562e-05    1.350587e+04    3.635204e-09    2.673363e-13    8.524230e-10   -3.671371e-01
    2.713265e+01    1.465489e+02    1.301730e-05    1.537208e+04    3.656795e-09    2.782231e-13    8.895960e-10   -3.621371e-01
    2.712292e+01    1.464975e+02    1.490831e-05    1.748987e+04    3.679580e-09    2.895698e-13    9.281955e-10   -3.571371e-01
    2.711253e+01    1.464427e+02    1.707316e-05    1.989217e+04    3.703581e-09    3.013949e-13    9.682525e-10   -3.521371e-01
    2.710145e+01    1.463843e+02    1.955132e-05    2.261607e+04    3.728821e-09    3.137181e-13    1.009795e-09   -3.471371e-01
    2.708961e+01    1.463221e+02    2.238790e-05    2.570330e+04    3.755323e-09    3.265592e-13    1.052850e-09   -3.421371e-01
    2.707699e+01    1.462559e+02    2.563446e-05    2.920088e+04    3.783108e-09    3.399392e-13    1.097442e-09   -3.371371e-01
    2.706353e+01    1.461855e+02    2.934990e-05    3.316167e+04    3.812193e-09    3.538794e-13    1.143595e-09   -3.321371e-01
    2.704918e+01    1.461105e+02    3.360152e-05    3.764509e+04    3.842597e-09    3.684020e-13    1.191330e-09   -3.271371e-01
    2.703386e+01    1.460307e+02    3.846618e-05    4.271793e+04    3.874335e-09    3.835299e-13    1.240665e-09   -3.221371e-01
    2.701756e+01    1.459460e+02    4.403164e-05    4.845526e+04    3.907421e-09    3.992866e-13    1.291617e-09   -3.171371e-01
    2.700016e+01    1.458558e+02    5.039810e-05    5.494128e+04    3.941867e-09    4.156964e-13    1.344198e-09   -3.121371e-01
    2.698168e+01    1.457602e+02    5.767985e-05    6.227062e+04    3.977681e-09    4.327845e-13    1.398422e-09   -3.071371e-01
    2.696196e+01    1.456587e+02    6.600745e-05    7.054931e+04    4.014872e-09    4.505767e-13    1.454293e-09   -3.021371e-01
    2.694096e+01    1.455511e+02    7.552970e-05    7.989634e+04    4.053444e-09    4.690995e-13    1.511818e-09   -2.971371e-01
    2.691866e+01    1.454370e+02    8.641620e-05    9.044499e+04    4.093400e-09    4.883804e-13    1.570996e-09   -2.921371e-01
    2.689491e+01    1.453161e+02    9.886050e-05    1.023446e+05    4.134739e-09    5.084475e-13    1.631827e-09   -2.871371e-01
    2.686968e+01    1.451884e+02    1.130830e-04    1.157625e+05    4.177457e-09    5.293300e-13    1.694305e-09   -2.821371e-01
    2.684287e+01    1.450532e+02    1.293348e-04    1.308858e+05    4.221550e-09    5.510575e-13    1.758420e-09   -2.771371e-01
    2.681441e+01    1.449104e+02    1.479017e-04    1.479239e+05    4.267008e-09    5.736610e-13    1.824158e-09   -2.721371e-01
    2.678420e+01    1.447598e+02    1.691093e-04    1.671108e+05    4.313818e-09    5.971720e-13    1.891505e-09   -2.671371e-01
    2.675216e+01    1.446010e+02    1.933278e-04    1.887082e+05    4.361967e-09    6.216220e-13    1.960437e-09   -2.621371e-01
    2.671821e+01    1.444339e+02    2.209781e-04    2.130085e+05    4.411435e-09    6.470455e-13    2.030931e-09   -2.571371e-01
    2.668226e+01    1.442582e+02    2.525390e-04    2.403376e+05    4.462203e-09    6.734755e-13    2.102958e-09   -2.521371e-01
    2.664419e+01    1.440737e+02    2.885541e-04    2.710596e+05    4.514245e-09    7.009475e-13    2.176486e-09   -2.471371e-01
    2.660393e+01    1.438802e+02    3.296409e-04    3.055802e+05    4.567535e-09    7.294980e-13    2.251478e-09   -2.421371e-01
    2.656139e+01    1.436777e+02    3.765001e-04    3.443517e+05    4.622041e-09    7.591625e-13    2.327893e-09   -2.371371e-01
    2.651650e+01    1.434663e+02    4.299264e-04    3.878779e+05    4.677731e-09    7.899800e-13    2.405689e-09   -2.321371e-01
    2.646914e+01    1.432457e+02    4.908208e-04    4.367195e+05    4.734568e-09    8.219885e-13    2.484816e-09   -2.271371e-01
    2.641926e+01    1.430163e+02    5.602040e-04    4.915003e+05    4.792512e-09    8.552280e-13    2.565225e-09   -2.221371e-01
    2.636676e+01    1.427781e+02    6.392320e-04    5.529139e+05    4.851521e-09    8.897390e-13    2.646859e-09   -2.171371e-01
    2.631157e+01    1.425316e+02    7.292120e-04    6.217305e+05    4.911550e-09    9.255630e-13    2.729661e-09   -2.121371e-01
    2.625365e+01    1.422771e+02    8.316225e-04    6.988062e+05    4.972553e-09    9.627430e-13    2.813569e-09   -2.071371e-01
    2.619292e+01    1.420152e+02    9.481345e-04    7.850898e+05    5.034480e-09    1.001323e-12    2.898518e-09   -2.021371e-01
    2.612935e+01    1.417466e+02    1.080634e-03    8.816360e+05    5.097275e-09    1.041346e-12    2.984444e-09   -1.971371e-01
    2.606290e+01    1.414723e+02    1.231249e-03    9.896116e+05    5.160885e-09    1.082861e-12    3.071275e-09   -1.921371e-01
    2.599355e+01    1.411934e+02    1.402382e-03    1.110310e+06    5.225260e-09    1.125912e-12    3.158939e-09   -1.871371e-01
    2.592131e+01    1.409111e+02    1.596734e-03    1.245164e+06    5.290335e-09    1.170548e-12    3.247363e-09   -1.821371e-01
    2.584618e+01    1.406272e+02    1.817351e-03    1.395759e+06    5.356055e-09    1.216818e-12    3.336471e-09   -1.771371e-01
    2.576819e+01    1.403433e+02    2.067660e-03    1.563850e+06    5.422355e-09    1.264773e-12    3.426186e-09   -1.721371e-01
    2.568744e+01    1.400617e+02    2.351510e-03    1.751382e+06    5.489170e-09    1.314464e-12    3.516430e-09   -1.671371e-01
    2.560394e+01    1.397846e+02    2.673229e-03    1.960495e+06    5.556450e-09    1.365943e-12    3.607121e-09   -1.621371e-01
    2.551785e+01    1.395150e+02    3.037676e-03    2.193568e+06    5.624120e-09    1.419266e-12    3.698183e-09   -1.571371e-01
    2.542927e+01    1.392559e+02    3.450301e-03    2.453225e+06    5.692115e-09    1.474487e-12    3.789532e-09   -1.521371e-01
    2.533836e+01    1.390107e+02    3.917217e-03    2.742364e+06    5.760380e-09    1.531662e-12    3.881089e-09   -1.471371e-01
    2.524527e+01    1.387832e+02    4.445274e-03    3.064194e+06    5.828845e-09    1.590851e-12    3.972772e-09   -1.421371e-01
    2.515024e+01    1.385777e+02    5.042140e-03    3.422263e+06    5.897445e-09    1.652111e-12    4.064503e-09   -1.371371e-01
    2.505343e+01    1.383987e+02    5.716410e-03    3.820487e+06    5.966120e-09    1.715505e-12    4.156201e-09   -1.321371e-01
    2.495514e+01    1.382513e+02    6.477680e-03    4.263206e+06    6.034805e-09    1.781094e-12    4.247789e-09   -1.271371e-01
    2.485554e+01    1.381405e+02    7.336705e-03    4.755215e+06    6.103435e-09    1.848941e-12    4.339189e-09   -1.221371e-01
    2.475492e+01    1.380720e+02    8.305490e-03    5.301813e+06    6.171950e-09    1.919114e-12    4.430326e-09   -1.171371e-01
    2.465352e+01    1.380516e+02    9.397445e-03    5.908861e+06    6.240295e-09    1.991678e-12    4.521125e-09   -1.121371e-01
    2.455157e+01    1.380854e+02    1.062756e-02    6.582837e+06    6.308410e-09    2.066702e-12    4.611515e-09   -1.071371e-01
    2.444927e+01    1.381796e+02    1.201256e-02    7.330906e+06    6.376230e-09    2.144257e-12    4.701424e-09   -1.021371e-01
    2.434680e+01    1.383406e+02    1.357111e-02    8.160964e+06    6.443710e-09    2.224415e-12    4.790788e-09   -9.713710e-02
    2.424430e+01    1.385744e+02    1.532401e-02    9.081727e+06    6.510790e-09    2.307250e-12    4.879538e-09   -9.213710e-02
    2.414181e+01    1.388871e+02    1.729446e-02    1.010278e+07    6.577425e-09    2.392839e-12    4.967614e-09   -8.713710e-02
    2.403934e+01    1.392846e+02    1.950828e-02    1.123469e+07    6.643555e-09    2.481258e-12    5.054955e-09   -8.213710e-02
    2.393677e+01    1.397721e+02    2.199422e-02    1.248898e+07    6.709145e-09    2.572588e-12    5.141505e-09   -7.713710e-02
    2.383393e+01    1.403545e+02    2.478420e-02    1.387831e+07    6.774140e-09    2.666913e-12    5.227205e-09   -7.213710e-02
    2.373046e+01    1.410355e+02    2.791371e-02    1.541640e+07    6.838500e-09    2.764315e-12    5.312010e-09   -6.713710e-02
    2.362597e+01    1.418184e+02    3.142204e-02    1.711816e+07    6.902190e-09    2.864881e-12    5.395875e-09   -6.213710e-02
    2.351986e+01    1.427050e+02    3.535270e-02    1.899965e+07    6.965170e-09    2.968702e-12    5.478745e-09   -5.713710e-02
    2.341145e+01    1.436958e+02    3.975375e-02    2.107812e+07    7.027400e-09    3.075867e-12    5.560585e-09   -5.213710e-02
    2.329996e+01    1.447902e+02    4.467813e-02    2.337192e+07    7.088850e-09    3.186471e-12    5.641350e-09   -4.713710e-02
    2.318445e+01    1.459858e+02    5.018405e-02    2.590045e+07    7.149495e-09    3.300610e-12    5.721015e-09   -4.213710e-02
    2.306392e+01    1.472785e+02    5.633525e-02    2.868406e+07    7.209295e-09    3.418386e-12    5.799540e-09   -3.713710e-02
    2.293729e+01    1.486624e+02    6.320135e-02    3.174385e+07    7.268235e-09    3.539898e-12    5.876900e-09   -3.213710e-02
    2.280342e+01    1.501301e+02    7.085820e-02    3.510153e+07    7.326290e-09    3.665253e-12    5.953065e-09   -2.713710e-02
    2.266115e+01    1.516718e+02    7.938790e-02    3.877913e+07    7.383435e-09    3.794559e-12    6.028010e-09   -2.213710e-02
    2.250940e+01    1.532766e+02    8.887905e-02    4.279871e+07    7.439655e-09    3.927927e-12    6.101725e-09   -1.713710e-02
    2.234705e+01    1.549313e+02    9.942685e-02    4.718198e+07    7.494935e-09    4.065472e-12    6.174185e-09   -1.213710e-02
    2.217313e+01    1.566213e+02    1.111330e-01    5.195003e+07    7.549260e-09    4.207311e-12    6.245375e-09   -7.137100e-03
    2.198676e+01    1.583309e+02    1.241056e-01    5.712279e+07    7.602620e-09    4.353567e-12    6.315285e-09   -2.137100e-03
    2.178720e+01    1.600431e+02    1.384589e-01    6.271872e+07    7.655000e-09    4.504364e-12    6.383910e-09    2.862900e-03
    2.157391e+01    1.617397e+02    1.543129e-01    6.875425e+07    7.706400e-09    4.659832e-12    6.451235e-09    7.862900e-03
    2.134651e+01    1.634024e+02    1.717928e-01    7.524349e+07    7.756810e-09    4.820104e-12    6.517260e-09    1.286290e-02
    2.110485e+01    1.650123e+02    1.910287e-01    8.219768e+07    7.806230e-09    4.985316e-12    6.581985e-09    1.786290e-02
    2.084895e+01    1.665509e+02    2.121543e-01    8.962504e+07    7.854650e-09    5.155610e-12    6.645410e-09    2.286290e-02
    2.057907e+01    1.679998e+02    2.353067e-01    9.753011e+07    7.902080e-09    5.331130e-12    6.707535e-09    2.786290e-02
    2.029565e+01    1.693415e+02    2.606248e-01    1.059139e+08    7.948515e-09    5.512030e-12    6.768360e-09    3.286290e-02
    1.999931e+01    1.705597e+02    2.882490e-01    1.147732e+08    7.993965e-09    5.698460e-12    6.827900e-09    3.786290e-02
    1.969084e+01    1.716390e+02    3.183192e-01    1.241013e+08    8.038425e-09    5.890585e-12    6.886160e-09    4.286290e-02
    1.937121e+01    1.725661e+02    3.509748e-01    1.338872e+08    8.081905e-09    6.088565e-12    6.943145e-09    4.786290e-02
    1.904144e+01    1.733291e+02    3.863524e-01    1.441158e+08    8.124410e-09    6.292570e-12    6.998870e-09    5.286290e-02
    1.870272e+01    1.739184e+02    4.245857e-01    1.547688e+08    8.165950e-09    6.502785e-12    7.053345e-09    5.786290e-02
    1.835624e+01    1.743262e+02    4.658036e-01    1.658237e+08    8.206540e-09    6.719380e-12    7.106590e-09    6.286290e-02
    1.800330e+01    1.745468e+02    5.101300e-01    1.772558e+08    8.246180e-09    6.942545e-12    7.158610e-09    6.786290e-02
    1.764518e+01    1.745769e+02    5.576820e-01    1.890368e+08    8.284885e-09    7.172475e-12    7.209425e-09    7.286290e-02
    1.728317e+01    1.744149e+02    6.085695e-01    2.011366e+08    8.322670e-09    7.409370e-12    7.259050e-09    7.786290e-02
    1.691854e+01    1.740614e+02    6.628945e-01    2.135231e+08    8.359545e-09    7.653435e-12    7.307505e-09    8.286290e-02
    1.655251e+01    1.735186e+02    7.207510e-01    2.261629e+08    8.395525e-09    7.904880e-12    7.354805e-09    8.786290e-02
    1.618627e+01    1.727911e+02    7.822235e-01    2.390222e+08    8.430620e-09    8.163935e-12    7.400975e-09    9.286290e-02
    1.582091e+01    1.718843e+02    8.473875e-01    2.520662e+08    8.464845e-09    8.430815e-12    7.446030e-09    9.786290e-02
    1.545749e+01    1.708052e+02    9.163085e-01    2.652606e+08    8.498220e-09    8.705760e-12    7.489990e-09    1.028629e-01
    1.509695e+01    1.695621e+02    9.890430e-01    2.785718e+08    8.530755e-09    8.989015e-12    7.532880e-09    1.078629e-01
    1.474018e+01    1.681641e+02    1.065638e+00    2.919668e+08    8.562470e-09    9.280830e-12    7.574710e-09    1.128629e-01
    1.438796e+01    1.666213e+02    1.146131e+00    3.054145e+08    8.593380e-09    9.581465e-12    7.615515e-09    1.178629e-01
    1.404099e+01    1.649439e+02    1.230551e+00    3.188850e+08    8.623500e-09    9.891185e-12    7.655305e-09    1.228629e-01
    1.369990e+01    1.631429e+02    1.318918e+00    3.323505e+08    8.652845e-09    1.021027e-11    7.694110e-09    1.278629e-01
    1.336520e+01    1.612293e+02    1.411244e+00    3.457853e+08    8.681430e-09    1.053901e-11    7.731945e-09    1.328629e-01
    1.303736e+01    1.592142e+02    1.507534e+00    3.591653e+08    8.709280e-09    1.087769e-11    7.768835e-09    1.378629e-01
    1.271674e+01    1.571087e+02    1.607784e+00    3.724697e+08    8.736405e-09    1.122663e-11    7.804805e-09    1.428629e-01
    1.240365e+01    1.549236e+02    1.711988e+00    3.856792e+08    8.762825e-09    1.158614e-11    7.839870e-09    1.478629e-01
    1.209834e+01    1.526692e+02    1.820128e+00    3.987775e+08    8.788550e-09    1.195655e-11    7.874055e-09    1.528629e-01
    1.180098e+01    1.503559e+02    1.932185e+00    4.117497e+08    8.813610e-09    1.233820e-11    7.907380e-09    1.578629e-01
    1.151170e+01    1.479932e+02    2.048136e+00    4.245845e+08    8.838005e-09    1.273144e-11    7.939865e-09    1.628629e-01
    1.123056e+01    1.455902e+02    2.167950e+00    4.372710e+08    8.861765e-09    1.313664e-11    7.971540e-09    1.678629e-01
    1.095760e+01    1.431556e+02    2.291597e+00    4.498016e+08    8.884905e-09    1.355417e-11    8.002415e-09    1.728629e-01
    1.069278e+01    1.406973e+02    2.419043e+00    4.621703e+08    8.907430e-09    1.398442e-11    8.032515e-09    1.778629e-01
    1.043609e+01    1.382228e+02    2.550248e+00    4.743723e+08    8.929370e-09    1.442780e-11    8.061865e-09    1.828629e-01
    1.018741e+01    1.357390e+02    2.685176e+00    4.864050e+08    8.950735e-09    1.488473e-11    8.090475e-09    1.878629e-01
