# sky130 nfet_01v8 gm/ID Processed Lookup Table
# Corner: tt
# Temperature: 25C
# W = 2.0 um
# L = 1.26 um (1260 nm)
# Columns: gm/id [1/V]  gm/gds [V/V]  id/W [A/m]  ft [Hz]  Cgg/W [F/m]  Cgd/W [F/m]  Cgs/W [F/m]  Vov [V]
#         gm/id          gm/gds            id/W              ft           Cgg/W           Cgd/W           Cgs/W             Vov
    2.776910e+01    1.534427e+02    4.368746e-08    7.338678e+01    2.631000e-09    3.731730e-14    9.614800e-11   -5.847964e-01
    2.776854e+01    1.534396e+02    5.019450e-08    8.450667e+01    2.625054e-09    3.868699e-14    9.977420e-11   -5.797964e-01
    2.776794e+01    1.534363e+02    5.767055e-08    9.730305e+01    2.619338e-09    4.011024e-14    1.035777e-10   -5.747964e-01
    2.776730e+01    1.534327e+02    6.625990e-08    1.120270e+02    2.613857e-09    4.158938e-14    1.075680e-10   -5.697964e-01
    2.776662e+01    1.534289e+02    7.612825e-08    1.289670e+02    2.608618e-09    4.312686e-14    1.117555e-10   -5.647964e-01
    2.776588e+01    1.534249e+02    8.746605e-08    1.484541e+02    2.603628e-09    4.472523e-14    1.161506e-10   -5.597964e-01
    2.776509e+01    1.534205e+02    1.004920e-07    1.708685e+02    2.598895e-09    4.638720e-14    1.207645e-10   -5.547964e-01
    2.776424e+01    1.534158e+02    1.154574e-07    1.966465e+02    2.594427e-09    4.811556e-14    1.256089e-10   -5.497964e-01
    2.776334e+01    1.534108e+02    1.326508e-07    2.262889e+02    2.590231e-09    4.991327e-14    1.306963e-10   -5.447964e-01
    2.776236e+01    1.534055e+02    1.524040e-07    2.603701e+02    2.586317e-09    5.178340e-14    1.360394e-10   -5.397964e-01
    2.776132e+01    1.533997e+02    1.750977e-07    2.995488e+02    2.582695e-09    5.372920e-14    1.416518e-10   -5.347964e-01
    2.776020e+01    1.533935e+02    2.011695e-07    3.445805e+02    2.579373e-09    5.575405e-14    1.475474e-10   -5.297964e-01
    2.775901e+01    1.533870e+02    2.311221e-07    3.963314e+02    2.576363e-09    5.786145e-14    1.537412e-10   -5.247964e-01
    2.775772e+01    1.533799e+02    2.655327e-07    4.557935e+02    2.573675e-09    6.005515e-14    1.602483e-10   -5.197964e-01
    2.775635e+01    1.533723e+02    3.050644e-07    5.241042e+02    2.571321e-09    6.233905e-14    1.670851e-10   -5.147964e-01
    2.775488e+01    1.533642e+02    3.504791e-07    6.025657e+02    2.569314e-09    6.471715e-14    1.742680e-10   -5.097964e-01
    2.775329e+01    1.533555e+02    4.026516e-07    6.926689e+02    2.567664e-09    6.719380e-14    1.818142e-10   -5.047964e-01
    2.775159e+01    1.533461e+02    4.625866e-07    7.961206e+02    2.566387e-09    6.977335e-14    1.897423e-10   -4.997964e-01
    2.774977e+01    1.533361e+02    5.314385e-07    9.148737e+02    2.565496e-09    7.246050e-14    1.980710e-10   -4.947964e-01
    2.774783e+01    1.533254e+02    6.105325e-07    1.051162e+03    2.565005e-09    7.526015e-14    2.068202e-10   -4.897964e-01
    2.774574e+01    1.533139e+02    7.013910e-07    1.207539e+03    2.564930e-09    7.817735e-14    2.160099e-10   -4.847964e-01
    2.774351e+01    1.533016e+02    8.057620e-07    1.386924e+03    2.565285e-09    8.121745e-14    2.256614e-10   -4.797964e-01
    2.774112e+01    1.532884e+02    9.256535e-07    1.592652e+03    2.566088e-09    8.438605e-14    2.357964e-10   -4.747964e-01
    2.773856e+01    1.532743e+02    1.063371e-06    1.828533e+03    2.567355e-09    8.768890e-14    2.464374e-10   -4.697964e-01
    2.773581e+01    1.532592e+02    1.221561e-06    2.098914e+03    2.569104e-09    9.113220e-14    2.576075e-10   -4.647964e-01
    2.773286e+01    1.532430e+02    1.403265e-06    2.408757e+03    2.571352e-09    9.472220e-14    2.693307e-10   -4.597964e-01
    2.772972e+01    1.532257e+02    1.611972e-06    2.763722e+03    2.574120e-09    9.846560e-14    2.816317e-10   -4.547964e-01
    2.772635e+01    1.532072e+02    1.851690e-06    3.170262e+03    2.577425e-09    1.023693e-13    2.945357e-10   -4.497964e-01
    2.772274e+01    1.531874e+02    2.127019e-06    3.635728e+03    2.581287e-09    1.064406e-13    3.080686e-10   -4.447964e-01
    2.771887e+01    1.531661e+02    2.443242e-06    4.168496e+03    2.585727e-09    1.106871e-13    3.222569e-10   -4.397964e-01
    2.771472e+01    1.531434e+02    2.806420e-06    4.778099e+03    2.590766e-09    1.151165e-13    3.371279e-10   -4.347964e-01
    2.771029e+01    1.531191e+02    3.223515e-06    5.475393e+03    2.596425e-09    1.197371e-13    3.527090e-10   -4.297964e-01
    2.770554e+01    1.530929e+02    3.702514e-06    6.272711e+03    2.602725e-09    1.245577e-13    3.690284e-10   -4.247964e-01
    2.770046e+01    1.530651e+02    4.252586e-06    7.184087e+03    2.609688e-09    1.295869e-13    3.861148e-10   -4.197964e-01
    2.769502e+01    1.530353e+02    4.884252e-06    8.225457e+03    2.617338e-09    1.348342e-13    4.039969e-10   -4.147964e-01
    2.768921e+01    1.530035e+02    5.609585e-06    9.414922e+03    2.625697e-09    1.403092e-13    4.227041e-10   -4.097964e-01
    2.768297e+01    1.529694e+02    6.442440e-06    1.077302e+04    2.634788e-09    1.460220e-13    4.422658e-10   -4.047964e-01
    2.767630e+01    1.529329e+02    7.398710e-06    1.232307e+04    2.644633e-09    1.519833e-13    4.627117e-10   -3.997964e-01
    2.766916e+01    1.528939e+02    8.496630e-06    1.409147e+04    2.655256e-09    1.582038e-13    4.840713e-10   -3.947964e-01
    2.766152e+01    1.528523e+02    9.757115e-06    1.610818e+04    2.666681e-09    1.646949e-13    5.063745e-10   -3.897964e-01
    2.765336e+01    1.528077e+02    1.120414e-05    1.840710e+04    2.678931e-09    1.714684e-13    5.296505e-10   -3.847964e-01
    2.764462e+01    1.527601e+02    1.286524e-05    2.102660e+04    2.692028e-09    1.785366e-13    5.539285e-10   -3.797964e-01
    2.763528e+01    1.527093e+02    1.477194e-05    2.401012e+04    2.705995e-09    1.859123e-13    5.792380e-10   -3.747964e-01
    2.762528e+01    1.526550e+02    1.696040e-05    2.740673e+04    2.720856e-09    1.936086e-13    6.056070e-10   -3.697964e-01
    2.761459e+01    1.525970e+02    1.947207e-05    3.127189e+04    2.736633e-09    2.016393e-13    6.330630e-10   -3.647964e-01
    2.760318e+01    1.525351e+02    2.235446e-05    3.566831e+04    2.753346e-09    2.100185e-13    6.616335e-10   -3.597964e-01
    2.759097e+01    1.524690e+02    2.566200e-05    4.066667e+04    2.771016e-09    2.187610e-13    6.913450e-10   -3.547964e-01
    2.757793e+01    1.523985e+02    2.945707e-05    4.634675e+04    2.789665e-09    2.278821e-13    7.222215e-10   -3.497964e-01
    2.756400e+01    1.523233e+02    3.381110e-05    5.279851e+04    2.809312e-09    2.373975e-13    7.542880e-10   -3.447964e-01
    2.754912e+01    1.522432e+02    3.880590e-05    6.012336e+04    2.829974e-09    2.473237e-13    7.875670e-10   -3.397964e-01
    2.753323e+01    1.521578e+02    4.453515e-05    6.843544e+04    2.851669e-09    2.576775e-13    8.220795e-10   -3.347964e-01
    2.751627e+01    1.520668e+02    5.110605e-05    7.786330e+04    2.874414e-09    2.684765e-13    8.578450e-10   -3.297964e-01
    2.749818e+01    1.519699e+02    5.864130e-05    8.855152e+04    2.898222e-09    2.797387e-13    8.948815e-10   -3.247964e-01
    2.747888e+01    1.518668e+02    6.728130e-05    1.006627e+05    2.923108e-09    2.914828e-13    9.332045e-10   -3.197964e-01
    2.745828e+01    1.517571e+02    7.718660e-05    1.143796e+05    2.949083e-09    3.037280e-13    9.728285e-10   -3.147964e-01
    2.743633e+01    1.516404e+02    8.854075e-05    1.299073e+05    2.976156e-09    3.164944e-13    1.013764e-09   -3.097964e-01
    2.741294e+01    1.515165e+02    1.015536e-04    1.474764e+05    3.004335e-09    3.298023e-13    1.056021e-09   -3.047964e-01
    2.738802e+01    1.513850e+02    1.164649e-04    1.673452e+05    3.033628e-09    3.436730e-13    1.099606e-09   -2.997964e-01
    2.736149e+01    1.512454e+02    1.335485e-04    1.898036e+05    3.064039e-09    3.581282e-13    1.144523e-09   -2.947964e-01
    2.733325e+01    1.510974e+02    1.531169e-04    2.151762e+05    3.095568e-09    3.731905e-13    1.190772e-09   -2.897964e-01
    2.730322e+01    1.509406e+02    1.755272e-04    2.438269e+05    3.128217e-09    3.888830e-13    1.238354e-09   -2.847964e-01
    2.727130e+01    1.507747e+02    2.011862e-04    2.761627e+05    3.161981e-09    4.052294e-13    1.287262e-09   -2.797964e-01
    2.723737e+01    1.505991e+02    2.305582e-04    3.126387e+05    3.196857e-09    4.222543e-13    1.337490e-09   -2.747964e-01
    2.720135e+01    1.504137e+02    2.641722e-04    3.537642e+05    3.232837e-09    4.399828e-13    1.389026e-09   -2.697964e-01
    2.716314e+01    1.502181e+02    3.026307e-04    4.001080e+05    3.269910e-09    4.584408e-13    1.441856e-09   -2.647964e-01
    2.712261e+01    1.500120e+02    3.466199e-04    4.523046e+05    3.308065e-09    4.776550e-13    1.495965e-09   -2.597964e-01
    2.707967e+01    1.497950e+02    3.969203e-04    5.110624e+05    3.347286e-09    4.976528e-13    1.551330e-09   -2.547964e-01
    2.703421e+01    1.495668e+02    4.544197e-04    5.771709e+05    3.387556e-09    5.184620e-13    1.607928e-09   -2.497964e-01
    2.698613e+01    1.493275e+02    5.201270e-04    6.515103e+05    3.428853e-09    5.401115e-13    1.665732e-09   -2.447964e-01
    2.693530e+01    1.490765e+02    5.951885e-04    7.350593e+05    3.471156e-09    5.626315e-13    1.724712e-09   -2.397964e-01
    2.688167e+01    1.488142e+02    6.809040e-04    8.289081e+05    3.514438e-09    5.860510e-13    1.784834e-09   -2.347964e-01
    2.682510e+01    1.485404e+02    7.787495e-04    9.342677e+05    3.558671e-09    6.104025e-13    1.846062e-09   -2.297964e-01
    2.676550e+01    1.482552e+02    8.903970e-04    1.052484e+06    3.603825e-09    6.357170e-13    1.908356e-09   -2.247964e-01
    2.670280e+01    1.479587e+02    1.017740e-03    1.185050e+06    3.649867e-09    6.620280e-13    1.971673e-09   -2.197964e-01
    2.663691e+01    1.476514e+02    1.162921e-03    1.333622e+06    3.696762e-09    6.893680e-13    2.035967e-09   -2.147964e-01
    2.656778e+01    1.473337e+02    1.328364e-03    1.500037e+06    3.744470e-09    7.177725e-13    2.101191e-09   -2.097964e-01
    2.649533e+01    1.470063e+02    1.516807e-03    1.686328e+06    3.792955e-09    7.472760e-13    2.167294e-09   -2.047964e-01
    2.641954e+01    1.466701e+02    1.731340e-03    1.894745e+06    3.842173e-09    7.779150e-13    2.234221e-09   -1.997964e-01
    2.634036e+01    1.463259e+02    1.975451e-03    2.127779e+06    3.892080e-09    8.097260e-13    2.301918e-09   -1.947964e-01
    2.625782e+01    1.459752e+02    2.253070e-03    2.388181e+06    3.942632e-09    8.427475e-13    2.370327e-09   -1.897964e-01
    2.617192e+01    1.456196e+02    2.568621e-03    2.678992e+06    3.993781e-09    8.770175e-13    2.439388e-09   -1.847964e-01
    2.608265e+01    1.452605e+02    2.927086e-03    3.003565e+06    4.045481e-09    9.125765e-13    2.509041e-09   -1.797964e-01
    2.599014e+01    1.449005e+02    3.334059e-03    3.365611e+06    4.097680e-09    9.494650e-13    2.579223e-09   -1.747964e-01
    2.589441e+01    1.445415e+02    3.795831e-03    3.769212e+06    4.150329e-09    9.877250e-13    2.649871e-09   -1.697964e-01
    2.579560e+01    1.441864e+02    4.319456e-03    4.218875e+06    4.203375e-09    1.027398e-12    2.720919e-09   -1.647964e-01
    2.569384e+01    1.438384e+02    4.912851e-03    4.719574e+06    4.256768e-09    1.068530e-12    2.792302e-09   -1.597964e-01
    2.558930e+01    1.435008e+02    5.584880e-03    5.276784e+06    4.310454e-09    1.111162e-12    2.863956e-09   -1.547964e-01
    2.548214e+01    1.431773e+02    6.345480e-03    5.896548e+06    4.364381e-09    1.155344e-12    2.935814e-09   -1.497964e-01
    2.537259e+01    1.428722e+02    7.205760e-03    6.585524e+06    4.418496e-09    1.201122e-12    3.007809e-09   -1.447964e-01
    2.526088e+01    1.425897e+02    8.178145e-03    7.351048e+06    4.472746e-09    1.248542e-12    3.079877e-09   -1.397964e-01
    2.514726e+01    1.423348e+02    9.276520e-03    8.201209e+06    4.527078e-09    1.297655e-12    3.151952e-09   -1.347964e-01
    2.503198e+01    1.421123e+02    1.051639e-02    9.144921e+06    4.581440e-09    1.348513e-12    3.223969e-09   -1.297964e-01
    2.491529e+01    1.419276e+02    1.191507e-02    1.019200e+07    4.635783e-09    1.401165e-12    3.295866e-09   -1.247964e-01
    2.479745e+01    1.417861e+02    1.349186e-02    1.135327e+07    4.690053e-09    1.455666e-12    3.367579e-09   -1.197964e-01
    2.467869e+01    1.416934e+02    1.526827e-02    1.264064e+07    4.744202e-09    1.512070e-12    3.439048e-09   -1.147964e-01
    2.455923e+01    1.416550e+02    1.726829e-02    1.406720e+07    4.798182e-09    1.570433e-12    3.510213e-09   -1.097964e-01
    2.443924e+01    1.416765e+02    1.951861e-02    1.564735e+07    4.851944e-09    1.630812e-12    3.581016e-09   -1.047964e-01
    2.431882e+01    1.417629e+02    2.204892e-02    1.739688e+07    4.905444e-09    1.693267e-12    3.651403e-09   -9.979640e-02
    2.419801e+01    1.419193e+02    2.489223e-02    1.933309e+07    4.958637e-09    1.757857e-12    3.721318e-09   -9.479640e-02
    2.407679e+01    1.421498e+02    2.808520e-02    2.147486e+07    5.011480e-09    1.824645e-12    3.790709e-09   -8.979640e-02
    2.395501e+01    1.424584e+02    3.166850e-02    2.384276e+07    5.063930e-09    1.893693e-12    3.859527e-09   -8.479640e-02
    2.383247e+01    1.428481e+02    3.568719e-02    2.645911e+07    5.115950e-09    1.965069e-12    3.927725e-09   -7.979640e-02
    2.370880e+01    1.433205e+02    4.019110e-02    2.934800e+07    5.167505e-09    2.038839e-12    3.995258e-09   -7.479640e-02
    2.358353e+01    1.438766e+02    4.523527e-02    3.253538e+07    5.218555e-09    2.115071e-12    4.062084e-09   -6.979640e-02
    2.345611e+01    1.445159e+02    5.088035e-02    3.604892e+07    5.269070e-09    2.193837e-12    4.128163e-09   -6.479640e-02
    2.332579e+01    1.452364e+02    5.719310e-02    3.991797e+07    5.319020e-09    2.275209e-12    4.193458e-09   -5.979640e-02
    2.319181e+01    1.460346e+02    6.424660e-02    4.417357e+07    5.368370e-09    2.359263e-12    4.257933e-09   -5.479640e-02
    2.305326e+01    1.469056e+02    7.212090e-02    4.884805e+07    5.417095e-09    2.446075e-12    4.321558e-09   -4.979640e-02
    2.290920e+01    1.478425e+02    8.090310e-02    5.397485e+07    5.465170e-09    2.535725e-12    4.384303e-09   -4.479640e-02
    2.275858e+01    1.488369e+02    9.068800e-02    5.958826e+07    5.512575e-09    2.628295e-12    4.446141e-09   -3.979640e-02
    2.260043e+01    1.498788e+02    1.015778e-01    6.572293e+07    5.559285e-09    2.723867e-12    4.507049e-09   -3.479640e-02
    2.243369e+01    1.509565e+02    1.136831e-01    7.241342e+07    5.605285e-09    2.822529e-12    4.567003e-09   -2.979640e-02
    2.225741e+01    1.520570e+02    1.271220e-01    7.969373e+07    5.650555e-09    2.924368e-12    4.625987e-09   -2.479640e-02
    2.207070e+01    1.531662e+02    1.420205e-01    8.759666e+07    5.695080e-09    3.029479e-12    4.683983e-09   -1.979640e-02
    2.187277e+01    1.542686e+02    1.585128e-01    9.615318e+07    5.738845e-09    3.137954e-12    4.740976e-09   -1.479640e-02
    2.166297e+01    1.553482e+02    1.767400e-01    1.053917e+08    5.781845e-09    3.249890e-12    4.796955e-09   -9.796400e-03
    2.144079e+01    1.563887e+02    1.968504e-01    1.153377e+08    5.824060e-09    3.365388e-12    4.851911e-09   -4.796400e-03
    2.120593e+01    1.573733e+02    2.189988e-01    1.260128e+08    5.865495e-09    3.484551e-12    4.905835e-09    2.036000e-04
    2.095823e+01    1.582855e+02    2.433454e-01    1.374340e+08    5.906140e-09    3.607486e-12    4.958723e-09    5.203600e-03
    2.069775e+01    1.591095e+02    2.700554e-01    1.496141e+08    5.945985e-09    3.734302e-12    5.010570e-09    1.020360e-02
    2.042472e+01    1.598298e+02    2.992977e-01    1.625598e+08    5.985030e-09    3.865112e-12    5.061380e-09    1.520360e-02
    2.013957e+01    1.604327e+02    3.312437e-01    1.762728e+08    6.023275e-09    4.000034e-12    5.111145e-09    2.020360e-02
    1.984287e+01    1.609050e+02    3.660665e-01    1.907482e+08    6.060720e-09    4.139187e-12    5.159870e-09    2.520360e-02
    1.953538e+01    1.612360e+02    4.039395e-01    2.059757e+08    6.097365e-09    4.282697e-12    5.207560e-09    3.020360e-02
    1.921794e+01    1.614158e+02    4.450347e-01    2.219385e+08    6.133215e-09    4.430691e-12    5.254220e-09    3.520360e-02
    1.889155e+01    1.614373e+02    4.895220e-01    2.386142e+08    6.168275e-09    4.583302e-12    5.299855e-09    4.020360e-02
    1.855727e+01    1.612944e+02    5.375675e-01    2.559748e+08    6.202545e-09    4.740668e-12    5.344475e-09    4.520360e-02
    1.821623e+01    1.609839e+02    5.893325e-01    2.739873e+08    6.236035e-09    4.902929e-12    5.388085e-09    5.020360e-02
    1.786957e+01    1.605040e+02    6.449725e-01    2.926138e+08    6.268745e-09    5.070230e-12    5.430700e-09    5.520360e-02
    1.751851e+01    1.598547e+02    7.046345e-01    3.118123e+08    6.300690e-09    5.242725e-12    5.472330e-09    6.020360e-02
    1.716422e+01    1.590385e+02    7.684590e-01    3.315372e+08    6.331880e-09    5.420565e-12    5.512985e-09    6.520360e-02
    1.680785e+01    1.580586e+02    8.365765e-01    3.517405e+08    6.362320e-09    5.603920e-12    5.552680e-09    7.020360e-02
    1.645053e+01    1.569206e+02    9.091080e-01    3.723724e+08    6.392020e-09    5.792945e-12    5.591430e-09    7.520360e-02
    1.609333e+01    1.556308e+02    9.861650e-01    3.933811e+08    6.420990e-09    5.987820e-12    5.629245e-09    8.020360e-02
    1.573727e+01    1.541970e+02    1.067847e+00    4.147151e+08    6.449240e-09    6.188720e-12    5.666140e-09    8.520360e-02
    1.538330e+01    1.526277e+02    1.154243e+00    4.363217e+08    6.476790e-09    6.395825e-12    5.702135e-09    9.020360e-02
    1.503228e+01    1.509322e+02    1.245432e+00    4.581506e+08    6.503640e-09    6.609335e-12    5.737245e-09    9.520360e-02
    1.468502e+01    1.491206e+02    1.341480e+00    4.801510e+08    6.529815e-09    6.829440e-12    5.771485e-09    1.002036e-01
    1.434222e+01    1.472030e+02    1.442445e+00    5.022759e+08    6.555315e-09    7.056340e-12    5.804870e-09    1.052036e-01
    1.400454e+01    1.451900e+02    1.548372e+00    5.244785e+08    6.580165e-09    7.290255e-12    5.837420e-09    1.102036e-01
    1.367253e+01    1.430920e+02    1.659298e+00    5.467167e+08    6.604365e-09    7.531395e-12    5.869155e-09    1.152036e-01
    1.334667e+01    1.409196e+02    1.775247e+00    5.689491e+08    6.627940e-09    7.779990e-12    5.900085e-09    1.202036e-01
    1.302737e+01    1.386828e+02    1.896239e+00    5.911388e+08    6.650900e-09    8.036270e-12    5.930235e-09    1.252036e-01
    1.271498e+01    1.363918e+02    2.022279e+00    6.132518e+08    6.673260e-09    8.300475e-12    5.959620e-09    1.302036e-01
    1.240977e+01    1.340559e+02    2.153370e+00    6.352580e+08    6.695025e-09    8.572860e-12    5.988255e-09    1.352036e-01
    1.211195e+01    1.316842e+02    2.289503e+00    6.571289e+08    6.716220e-09    8.853685e-12    6.016155e-09    1.402036e-01
    1.182169e+01    1.292853e+02    2.430668e+00    6.788409e+08    6.736855e-09    9.143205e-12    6.043350e-09    1.452036e-01
    1.153909e+01    1.268673e+02    2.576842e+00    7.003732e+08    6.756940e-09    9.441715e-12    6.069845e-09    1.502036e-01
    1.126423e+01    1.244375e+02    2.728003e+00    7.217075e+08    6.776495e-09    9.749485e-12    6.095665e-09    1.552036e-01
    1.099712e+01    1.220030e+02    2.884120e+00    7.428297e+08    6.795525e-09    1.006682e-11    6.120820e-09    1.602036e-01
    1.073774e+01    1.195698e+02    3.045161e+00    7.637269e+08    6.814050e-09    1.039404e-11    6.145335e-09    1.652036e-01
    1.048606e+01    1.171439e+02    3.211089e+00    7.843891e+08    6.832085e-09    1.073145e-11    6.169225e-09    1.702036e-01
