# sky130 nfet_01v8 gm/ID Processed Lookup Table
# Corner: tt
# Temperature: 25C
# W = 2.0 um
# L = 2.16 um (2160 nm)
# Columns: gm/id [1/V]  gm/gds [V/V]  id/W [A/m]  ft [Hz]  Cgg/W [F/m]  Cgd/W [F/m]  Cgs/W [F/m]  Vov [V]
#         gm/id          gm/gds            id/W              ft           Cgg/W           Cgd/W           Cgs/W             Vov
    2.695662e+01    1.486504e+02    4.928977e-08    4.532957e+01    4.665097e-09    9.032800e-14    2.449232e-10   -5.536780e-01
    2.695592e+01    1.486466e+02    5.640165e-08    5.193998e+01    4.658696e-09    9.365095e-14    2.547281e-10   -5.486780e-01
    2.695519e+01    1.486425e+02    6.453940e-08    5.950783e+01    4.652789e-09    9.710505e-14    2.650018e-10   -5.436780e-01
    2.695441e+01    1.486382e+02    7.385100e-08    6.817058e+01    4.647394e-09    1.006960e-13    2.757670e-10   -5.386780e-01
    2.695357e+01    1.486336e+02    8.450575e-08    7.808515e+01    4.642526e-09    1.044296e-13    2.870474e-10   -5.336780e-01
    2.695266e+01    1.486286e+02    9.669730e-08    8.943066e+01    4.638202e-09    1.083121e-13    2.988669e-10   -5.286780e-01
    2.695170e+01    1.486233e+02    1.106471e-07    1.024116e+02    4.634443e-09    1.123499e-13    3.112522e-10   -5.236780e-01
    2.695066e+01    1.486176e+02    1.266089e-07    1.172611e+02    4.631266e-09    1.165496e-13    3.242300e-10   -5.186780e-01
    2.694955e+01    1.486115e+02    1.448724e-07    1.342452e+02    4.628692e-09    1.209184e-13    3.378281e-10   -5.136780e-01
    2.694838e+01    1.486050e+02    1.657694e-07    1.536674e+02    4.626742e-09    1.254636e-13    3.520753e-10   -5.086780e-01
    2.694713e+01    1.485981e+02    1.896796e-07    1.758735e+02    4.625437e-09    1.301926e-13    3.670015e-10   -5.036780e-01
    2.694575e+01    1.485906e+02    2.170372e-07    2.012573e+02    4.624799e-09    1.351136e-13    3.826375e-10   -4.986780e-01
    2.694432e+01    1.485827e+02    2.483388e-07    2.302682e+02    4.624854e-09    1.402348e-13    3.990155e-10   -4.936780e-01
    2.694277e+01    1.485742e+02    2.841527e-07    2.634170e+02    4.625624e-09    1.455651e-13    4.161684e-10   -4.886780e-01
    2.694112e+01    1.485652e+02    3.251288e-07    3.012862e+02    4.627134e-09    1.511133e-13    4.341305e-10   -4.836780e-01
    2.693936e+01    1.485555e+02    3.720107e-07    3.445379e+02    4.629412e-09    1.568890e-13    4.529368e-10   -4.786780e-01
    2.693747e+01    1.485451e+02    4.256489e-07    3.939259e+02    4.632484e-09    1.629020e-13    4.726236e-10   -4.736780e-01
    2.693546e+01    1.485341e+02    4.870161e-07    4.503074e+02    4.636379e-09    1.691626e-13    4.932283e-10   -4.686780e-01
    2.693330e+01    1.485222e+02    5.572250e-07    5.146563e+02    4.641123e-09    1.756814e-13    5.147890e-10   -4.636780e-01
    2.693099e+01    1.485096e+02    6.375485e-07    5.880803e+02    4.646748e-09    1.824698e-13    5.373450e-10   -4.586780e-01
    2.692853e+01    1.484962e+02    7.294415e-07    6.718368e+02    4.653283e-09    1.895392e-13    5.609365e-10   -4.536780e-01
    2.692590e+01    1.484817e+02    8.345690e-07    7.673541e+02    4.660761e-09    1.969017e-13    5.856045e-10   -4.486780e-01
    2.692310e+01    1.484663e+02    9.548340e-07    8.762532e+02    4.669211e-09    2.045702e-13    6.113910e-10   -4.436780e-01
    2.692009e+01    1.484499e+02    1.092414e-06    1.000373e+03    4.678668e-09    2.125576e-13    6.383385e-10   -4.386780e-01
    2.691687e+01    1.484323e+02    1.249799e-06    1.141799e+03    4.689163e-09    2.208775e-13    6.664910e-10   -4.336780e-01
    2.691344e+01    1.484135e+02    1.429835e-06    1.302896e+03    4.700732e-09    2.295443e-13    6.958920e-10   -4.286780e-01
    2.690978e+01    1.483935e+02    1.635775e-06    1.486343e+03    4.713408e-09    2.385727e-13    7.265860e-10   -4.236780e-01
    2.690586e+01    1.483721e+02    1.871343e-06    1.695173e+03    4.727226e-09    2.479781e-13    7.586190e-10   -4.186780e-01
    2.690167e+01    1.483493e+02    2.140791e-06    1.932822e+03    4.742221e-09    2.577765e-13    7.920355e-10   -4.136780e-01
    2.689720e+01    1.483248e+02    2.448982e-06    2.203176e+03    4.758428e-09    2.679844e-13    8.268815e-10   -4.086780e-01
    2.689242e+01    1.482989e+02    2.801477e-06    2.510635e+03    4.775882e-09    2.786192e-13    8.632030e-10   -4.036780e-01
    2.688731e+01    1.482710e+02    3.204629e-06    2.860164e+03    4.794620e-09    2.896988e-13    9.010455e-10   -3.986780e-01
    2.688186e+01    1.482414e+02    3.665700e-06    3.257386e+03    4.814678e-09    3.012417e-13    9.404545e-10   -3.936780e-01
    2.687604e+01    1.482098e+02    4.192991e-06    3.708643e+03    4.836090e-09    3.132672e-13    9.814760e-10   -3.886780e-01
    2.686982e+01    1.481760e+02    4.795985e-06    4.221099e+03    4.858891e-09    3.257954e-13    1.024155e-09   -3.836780e-01
    2.686319e+01    1.481401e+02    5.485520e-06    4.802843e+03    4.883117e-09    3.388469e-13    1.068535e-09   -3.786780e-01
    2.685610e+01    1.481016e+02    6.273975e-06    5.462990e+03    4.908801e-09    3.524434e-13    1.114659e-09   -3.736780e-01
    2.684854e+01    1.480607e+02    7.175495e-06    6.211829e+03    4.935977e-09    3.666069e-13    1.162571e-09   -3.686780e-01
    2.684046e+01    1.480171e+02    8.206240e-06    7.060950e+03    4.964679e-09    3.813607e-13    1.212310e-09   -3.636780e-01
    2.683184e+01    1.479707e+02    9.384655e-06    8.023407e+03    4.994938e-09    3.967285e-13    1.263918e-09   -3.586780e-01
    2.682265e+01    1.479212e+02    1.073181e-05    9.113905e+03    5.026785e-09    4.127352e-13    1.317431e-09   -3.536780e-01
    2.681285e+01    1.478685e+02    1.227176e-05    1.034900e+04    5.060245e-09    4.294062e-13    1.372887e-09   -3.486780e-01
    2.680239e+01    1.478123e+02    1.403198e-05    1.174732e+04    5.095350e-09    4.467678e-13    1.430320e-09   -3.436780e-01
    2.679123e+01    1.477527e+02    1.604382e-05    1.332979e+04    5.132125e-09    4.648475e-13    1.489761e-09   -3.386780e-01
    2.677934e+01    1.476891e+02    1.834305e-05    1.511997e+04    5.170595e-09    4.836734e-13    1.551240e-09   -3.336780e-01
    2.676667e+01    1.476216e+02    2.097049e-05    1.714432e+04    5.210780e-09    5.032745e-13    1.614783e-09   -3.286780e-01
    2.675316e+01    1.475497e+02    2.397271e-05    1.943254e+04    5.252700e-09    5.236810e-13    1.680414e-09   -3.236780e-01
    2.673876e+01    1.474734e+02    2.740282e-05    2.201801e+04    5.296375e-09    5.449235e-13    1.748154e-09   -3.186780e-01
    2.672344e+01    1.473925e+02    3.132141e-05    2.493817e+04    5.341820e-09    5.670345e-13    1.818020e-09   -3.136780e-01
    2.670713e+01    1.473064e+02    3.579753e-05    2.823507e+04    5.389040e-09    5.900465e-13    1.890025e-09   -3.086780e-01
    2.668977e+01    1.472152e+02    4.090988e-05    3.195581e+04    5.438050e-09    6.139935e-13    1.964179e-09   -3.036780e-01
    2.667128e+01    1.471184e+02    4.674815e-05    3.615316e+04    5.488860e-09    6.389105e-13    2.040487e-09   -2.986780e-01
    2.665164e+01    1.470160e+02    5.341450e-05    4.088638e+04    5.541465e-09    6.648335e-13    2.118952e-09   -2.936780e-01
    2.663075e+01    1.469075e+02    6.102530e-05    4.622169e+04    5.595870e-09    6.917990e-13    2.199570e-09   -2.886780e-01
    2.660854e+01    1.467927e+02    6.971305e-05    5.223338e+04    5.652065e-09    7.198460e-13    2.282333e-09   -2.836780e-01
    2.658495e+01    1.466714e+02    7.962850e-05    5.900447e+04    5.710045e-09    7.490130e-13    2.367230e-09   -2.786780e-01
    2.655992e+01    1.465433e+02    9.094315e-05    6.662783e+04    5.769805e-09    7.793400e-13    2.454244e-09   -2.736780e-01
    2.653334e+01    1.464081e+02    1.038522e-04    7.520745e+04    5.831320e-09    8.108690e-13    2.543354e-09   -2.686780e-01
    2.650517e+01    1.462656e+02    1.185774e-04    8.485932e+04    5.894580e-09    8.436420e-13    2.634532e-09   -2.636780e-01
    2.647530e+01    1.461156e+02    1.353708e-04    9.571325e+04    5.959555e-09    8.777025e-13    2.727747e-09   -2.586780e-01
    2.644367e+01    1.459578e+02    1.545187e-04    1.079141e+05    6.026220e-09    9.130960e-13    2.822963e-09   -2.536780e-01
    2.641018e+01    1.457922e+02    1.763466e-04    1.216233e+05    6.094550e-09    9.498675e-13    2.920139e-09   -2.486780e-01
    2.637476e+01    1.456185e+02    2.012231e-04    1.370214e+05    6.164500e-09    9.880645e-13    3.019227e-09   -2.436780e-01
    2.633734e+01    1.454367e+02    2.295671e-04    1.543095e+05    6.236040e-09    1.027736e-12    3.120176e-09   -2.386780e-01
    2.629779e+01    1.452465e+02    2.618532e-04    1.737115e+05    6.309120e-09    1.068930e-12    3.222931e-09   -2.336780e-01
    2.625608e+01    1.450482e+02    2.986194e-04    1.954768e+05    6.383705e-09    1.111698e-12    3.327429e-09   -2.286780e-01
    2.621213e+01    1.448419e+02    3.404748e-04    2.198835e+05    6.459735e-09    1.156093e-12    3.433606e-09   -2.236780e-01
    2.616585e+01    1.446274e+02    3.881093e-04    2.472409e+05    6.537155e-09    1.202167e-12    3.541391e-09   -2.186780e-01
    2.611715e+01    1.444053e+02    4.423032e-04    2.778918e+05    6.615920e-09    1.249977e-12    3.650711e-09   -2.136780e-01
    2.606601e+01    1.441756e+02    5.039385e-04    3.122192e+05    6.695955e-09    1.299576e-12    3.761487e-09   -2.086780e-01
    2.601234e+01    1.439391e+02    5.740125e-04    3.506469e+05    6.777210e-09    1.351022e-12    3.873636e-09   -2.036780e-01
    2.595609e+01    1.436962e+02    6.536510e-04    3.936461e+05    6.859610e-09    1.404376e-12    3.987072e-09   -1.986780e-01
    2.589724e+01    1.434477e+02    7.441240e-04    4.417396e+05    6.943085e-09    1.459695e-12    4.101708e-09   -1.936780e-01
    2.583574e+01    1.431946e+02    8.468650e-04    4.955073e+05    7.027570e-09    1.517044e-12    4.217450e-09   -1.886780e-01
    2.577158e+01    1.429379e+02    9.634890e-04    5.555920e+05    7.112985e-09    1.576483e-12    4.334204e-09   -1.836780e-01
    2.570478e+01    1.426791e+02    1.095814e-03    6.227063e+05    7.199255e-09    1.638079e-12    4.451874e-09   -1.786780e-01
    2.563532e+01    1.424197e+02    1.245889e-03    6.976389e+05    7.286305e-09    1.701896e-12    4.570358e-09   -1.736780e-01
    2.556325e+01    1.421616e+02    1.416015e-03    7.812639e+05    7.374055e-09    1.768004e-12    4.689558e-09   -1.686780e-01
    2.548863e+01    1.419069e+02    1.608782e-03    8.745491e+05    7.462420e-09    1.836471e-12    4.809370e-09   -1.636780e-01
    2.541154e+01    1.416581e+02    1.827098e-03    9.785650e+05    7.551325e-09    1.907367e-12    4.929691e-09   -1.586780e-01
    2.533206e+01    1.414180e+02    2.074227e-03    1.094497e+06    7.640685e-09    1.980767e-12    5.050420e-09   -1.536780e-01
    2.525029e+01    1.411896e+02    2.353834e-03    1.223657e+06    7.730415e-09    2.056743e-12    5.171445e-09   -1.486780e-01
    2.516641e+01    1.409764e+02    2.670026e-03    1.367495e+06    7.820435e-09    2.135374e-12    5.292670e-09   -1.436780e-01
    2.508058e+01    1.407824e+02    3.027407e-03    1.527621e+06    7.910660e-09    2.216736e-12    5.413990e-09   -1.386780e-01
    2.499296e+01    1.406119e+02    3.431134e-03    1.705809e+06    8.001015e-09    2.300909e-12    5.535305e-09   -1.336780e-01
    2.490379e+01    1.404694e+02    3.886983e-03    1.904031e+06    8.091410e-09    2.387977e-12    5.656505e-09   -1.286780e-01
    2.481327e+01    1.403601e+02    4.401417e-03    2.124465e+06    8.181765e-09    2.478022e-12    5.777495e-09   -1.236780e-01
    2.472166e+01    1.402895e+02    4.981665e-03    2.369525e+06    8.272010e-09    2.571130e-12    5.898175e-09   -1.186780e-01
    2.462919e+01    1.402633e+02    5.635815e-03    2.641885e+06    8.362055e-09    2.667390e-12    6.018450e-09   -1.136780e-01
    2.453611e+01    1.402878e+02    6.372905e-03    2.944505e+06    8.451835e-09    2.766892e-12    6.138225e-09   -1.086780e-01
    2.444268e+01    1.403695e+02    7.203035e-03    3.280667e+06    8.541265e-09    2.869729e-12    6.257410e-09   -1.036780e-01
    2.434909e+01    1.405150e+02    8.137490e-03    3.654000e+06    8.630280e-09    2.975996e-12    6.375910e-09   -9.867800e-02
    2.425556e+01    1.407312e+02    9.188875e-03    4.068522e+06    8.718810e-09    3.085789e-12    6.493650e-09   -9.367800e-02
    2.416226e+01    1.410251e+02    1.037125e-02    4.528677e+06    8.806785e-09    3.199210e-12    6.610540e-09   -8.867800e-02
    2.406925e+01    1.414038e+02    1.170032e-02    5.039369e+06    8.894145e-09    3.316361e-12    6.726505e-09   -8.367800e-02
    2.397658e+01    1.418739e+02    1.319359e-02    5.606015e+06    8.980820e-09    3.437347e-12    6.841470e-09   -7.867800e-02
    2.388422e+01    1.424422e+02    1.487055e-02    6.234568e+06    9.066755e-09    3.562276e-12    6.955355e-09   -7.367800e-02
    2.379202e+01    1.431147e+02    1.675293e-02    6.931563e+06    9.151895e-09    3.691259e-12    7.068105e-09   -6.867800e-02
    2.369972e+01    1.438970e+02    1.886489e-02    7.704162e+06    9.236180e-09    3.824411e-12    7.179645e-09   -6.367800e-02
    2.360697e+01    1.447940e+02    2.123328e-02    8.560156e+06    9.319570e-09    3.961847e-12    7.289920e-09   -5.867800e-02
    2.351327e+01    1.458094e+02    2.388787e-02    9.508017e+06    9.402010e-09    4.103689e-12    7.398875e-09   -5.367800e-02
    2.341801e+01    1.469463e+02    2.686165e-02    1.055689e+07    9.483460e-09    4.250060e-12    7.506455e-09   -4.867800e-02
    2.332042e+01    1.482059e+02    3.019110e-02    1.171660e+07    9.563875e-09    4.401087e-12    7.612610e-09   -4.367800e-02
    2.321965e+01    1.495884e+02    3.391640e-02    1.299761e+07    9.643220e-09    4.556900e-12    7.717305e-09   -3.867800e-02
    2.311473e+01    1.510924e+02    3.808180e-02    1.441102e+07    9.721465e-09    4.717635e-12    7.820490e-09   -3.367800e-02
    2.300455e+01    1.527142e+02    4.273581e-02    1.596846e+07    9.798570e-09    4.883429e-12    7.922135e-09   -2.867800e-02
    2.288801e+01    1.544490e+02    4.793144e-02    1.768206e+07    9.874510e-09    5.054425e-12    8.022205e-09   -2.367800e-02
    2.276389e+01    1.562896e+02    5.372640e-02    1.956427e+07    9.949260e-09    5.230765e-12    8.120675e-09   -1.867800e-02
    2.263102e+01    1.582270e+02    6.018335e-02    2.162777e+07    1.002280e-08    5.412605e-12    8.217520e-09   -1.367800e-02
    2.248819e+01    1.602502e+02    6.736990e-02    2.388525e+07    1.009510e-08    5.600100e-12    8.312715e-09   -8.678000e-03
    2.233429e+01    1.623463e+02    7.535870e-02    2.634929e+07    1.016616e-08    5.793405e-12    8.406245e-09   -3.678000e-03
    2.216830e+01    1.645009e+02    8.422745e-02    2.903207e+07    1.023595e-08    5.992690e-12    8.498100e-09    1.322000e-03
    2.198929e+01    1.666976e+02    9.405885e-02    3.194518e+07    1.030447e-08    6.198120e-12    8.588260e-09    6.322000e-03
    2.179651e+01    1.689188e+02    1.049403e-01    3.509935e+07    1.037171e-08    6.409870e-12    8.676730e-09    1.132200e-02
    2.158939e+01    1.711457e+02    1.169635e-01    3.850420e+07    1.043765e-08    6.628120e-12    8.763495e-09    1.632200e-02
    2.136753e+01    1.733586e+02    1.302245e-01    4.216796e+07    1.050230e-08    6.853055e-12    8.848555e-09    2.132200e-02
    2.113074e+01    1.755373e+02    1.448230e-01    4.609731e+07    1.056567e-08    7.084865e-12    8.931920e-09    2.632200e-02
    2.087908e+01    1.776612e+02    1.608614e-01    5.029708e+07    1.062773e-08    7.323755e-12    9.013580e-09    3.132200e-02
    2.061278e+01    1.797101e+02    1.784447e-01    5.477010e+07    1.068850e-08    7.569915e-12    9.093550e-09    3.632200e-02
    2.033229e+01    1.816640e+02    1.976795e-01    5.951699e+07    1.074798e-08    7.823565e-12    9.171840e-09    4.132200e-02
    2.003824e+01    1.835038e+02    2.186733e-01    6.453612e+07    1.080619e-08    8.084915e-12    9.248455e-09    4.632200e-02
    1.973145e+01    1.852116e+02    2.415335e-01    6.982354e+07    1.086312e-08    8.354190e-12    9.323410e-09    5.132200e-02
    1.941287e+01    1.867708e+02    2.663666e-01    7.537295e+07    1.091878e-08    8.631620e-12    9.396715e-09    5.632200e-02
    1.908358e+01    1.881664e+02    2.932774e-01    8.117563e+07    1.097320e-08    8.917440e-12    9.468395e-09    6.132200e-02
    1.874478e+01    1.893853e+02    3.223680e-01    8.722080e+07    1.102636e-08    9.211900e-12    9.538460e-09    6.632200e-02
    1.839769e+01    1.904164e+02    3.537368e-01    9.349547e+07    1.107830e-08    9.515250e-12    9.606935e-09    7.132200e-02
    1.804366e+01    1.912511e+02    3.874780e-01    9.998495e+07    1.112902e-08    9.827750e-12    9.673840e-09    7.632200e-02
    1.768399e+01    1.918824e+02    4.236808e-01    1.066727e+08    1.117855e-08    1.014967e-11    9.739190e-09    8.132200e-02
    1.732001e+01    1.923058e+02    4.624284e-01    1.135411e+08    1.122690e-08    1.048129e-11    9.803015e-09    8.632200e-02
    1.695303e+01    1.925190e+02    5.037980e-01    1.205711e+08    1.127408e-08    1.082290e-11    9.865340e-09    9.132200e-02
    1.658433e+01    1.925217e+02    5.478595e-01    1.277429e+08    1.132011e-08    1.117479e-11    9.926180e-09    9.632200e-02
    1.621510e+01    1.923154e+02    5.946765e-01    1.350363e+08    1.136501e-08    1.153728e-11    9.985570e-09    1.013220e-01
    1.584652e+01    1.919038e+02    6.443045e-01    1.424311e+08    1.140881e-08    1.191068e-11    1.004353e-08    1.063220e-01
    1.547966e+01    1.912919e+02    6.967910e-01    1.499067e+08    1.145152e-08    1.229531e-11    1.010009e-08    1.113220e-01
    1.511552e+01    1.904866e+02    7.521775e-01    1.574433e+08    1.149316e-08    1.269152e-11    1.015528e-08    1.163220e-01
    1.475501e+01    1.894956e+02    8.104965e-01    1.650213e+08    1.153375e-08    1.309966e-11    1.020912e-08    1.213220e-01
    1.439895e+01    1.883279e+02    8.717740e-01    1.726224e+08    1.157331e-08    1.352009e-11    1.026164e-08    1.263220e-01
    1.404809e+01    1.869934e+02    9.360280e-01    1.802288e+08    1.161187e-08    1.395318e-11    1.031288e-08    1.313220e-01
    1.370308e+01    1.855024e+02    1.003270e+00    1.878241e+08    1.164945e-08    1.439932e-11    1.036284e-08    1.363220e-01
    1.336447e+01    1.838661e+02    1.073508e+00    1.953930e+08    1.168606e-08    1.485891e-11    1.041158e-08    1.413220e-01
    1.303275e+01    1.820958e+02    1.146738e+00    2.029219e+08    1.172173e-08    1.533237e-11    1.045910e-08    1.463220e-01
    1.270831e+01    1.802028e+02    1.222956e+00    2.103981e+08    1.175648e-08    1.582013e-11    1.050545e-08    1.513220e-01
    1.239149e+01    1.781986e+02    1.302151e+00    2.178107e+08    1.179032e-08    1.632262e-11    1.055065e-08    1.563220e-01
    1.208255e+01    1.760946e+02    1.384307e+00    2.251501e+08    1.182330e-08    1.684031e-11    1.059472e-08    1.613220e-01
    1.178168e+01    1.739017e+02    1.469403e+00    2.324081e+08    1.185542e-08    1.737368e-11    1.063770e-08    1.663220e-01
    1.148902e+01    1.716307e+02    1.557419e+00    2.395778e+08    1.188671e-08    1.792321e-11    1.067961e-08    1.713220e-01
    1.120465e+01    1.692918e+02    1.648326e+00    2.466538e+08    1.191718e-08    1.848941e-11    1.072048e-08    1.763220e-01
    1.092861e+01    1.668951e+02    1.742098e+00    2.536317e+08    1.194687e-08    1.907281e-11    1.076033e-08    1.813220e-01
    1.066090e+01    1.644496e+02    1.838703e+00    2.605084e+08    1.197578e-08    1.967395e-11    1.079921e-08    1.863220e-01
    1.040146e+01    1.619641e+02    1.938109e+00    2.672815e+08    1.200394e-08    2.029340e-11    1.083711e-08    1.913220e-01
    1.015024e+01    1.594469e+02    2.040283e+00    2.739502e+08    1.203138e-08    2.093174e-11    1.087409e-08    1.963220e-01
    9.907118e+00    1.569054e+02    2.145191e+00    2.805141e+08    1.205810e-08    2.158957e-11    1.091015e-08    2.013220e-01
