# sky130 nfet_01v8 gm/ID Processed Lookup Table
# Corner: tt
# Temperature: 25C
# W = 2.0 um
# L = 0.9 um (900 nm)
# Columns: gm/id [1/V]  gm/gds [V/V]  id/W [A/m]  ft [Hz]  Cgg/W [F/m]  Cgd/W [F/m]  Cgs/W [F/m]  Vov [V]
#         gm/id          gm/gds            id/W              ft           Cgg/W           Cgd/W           Cgs/W             Vov
    2.822972e+01    1.611218e+02    3.853906e-08    9.358126e+01    1.850287e-09    1.960421e-14    5.323990e-11   -6.082981e-01
    2.822921e+01    1.611189e+02    4.438137e-08    1.080660e+02    1.845145e-09    2.032025e-14    5.512055e-11   -6.032981e-01
    2.822868e+01    1.611160e+02    5.110920e-08    1.247835e+02    1.840147e-09    2.106340e-14    5.709105e-11   -5.982981e-01
    2.822810e+01    1.611127e+02    5.885675e-08    1.440762e+02    1.835294e-09    2.183478e-14    5.915660e-11   -5.932981e-01
    2.822747e+01    1.611091e+02    6.777855e-08    1.663385e+02    1.830592e-09    2.263561e-14    6.132255e-11   -5.882981e-01
    2.822682e+01    1.611054e+02    7.805245e-08    1.920251e+02    1.826042e-09    2.346712e-14    6.359465e-11   -5.832981e-01
    2.822611e+01    1.611014e+02    8.988340e-08    2.216594e+02    1.821648e-09    2.433062e-14    6.597895e-11   -5.782981e-01
    2.822534e+01    1.610971e+02    1.035073e-07    2.558447e+02    1.817414e-09    2.522751e-14    6.848185e-11   -5.732981e-01
    2.822452e+01    1.610925e+02    1.191957e-07    2.952751e+02    1.813345e-09    2.615920e-14    7.111005e-11   -5.682981e-01
    2.822364e+01    1.610875e+02    1.372614e-07    3.407503e+02    1.809445e-09    2.712721e-14    7.387065e-11   -5.632981e-01
    2.822269e+01    1.610821e+02    1.580645e-07    3.931903e+02    1.805718e-09    2.813313e-14    7.677115e-11   -5.582981e-01
    2.822167e+01    1.610764e+02    1.820196e-07    4.536541e+02    1.802171e-09    2.917861e-14    7.981935e-11   -5.532981e-01
    2.822058e+01    1.610702e+02    2.096040e-07    5.233601e+02    1.798809e-09    3.026540e-14    8.302355e-11   -5.482981e-01
    2.821942e+01    1.610637e+02    2.413673e-07    6.037098e+02    1.795637e-09    3.139531e-14    8.639250e-11   -5.432981e-01
    2.821817e+01    1.610566e+02    2.779424e-07    6.963145e+02    1.792661e-09    3.257025e-14    8.993525e-11   -5.382981e-01
    2.821683e+01    1.610490e+02    3.200578e-07    8.030274e+02    1.789890e-09    3.379223e-14    9.366145e-11   -5.332981e-01
    2.821539e+01    1.610408e+02    3.685521e-07    9.259777e+02    1.787329e-09    3.506335e-14    9.758110e-11   -5.282981e-01
    2.821384e+01    1.610321e+02    4.243910e-07    1.067613e+03    1.784986e-09    3.638581e-14    1.017048e-10   -5.232981e-01
    2.821219e+01    1.610228e+02    4.886860e-07    1.230743e+03    1.782869e-09    3.776194e-14    1.060435e-10   -5.182981e-01
    2.821041e+01    1.610127e+02    5.627170e-07    1.418597e+03    1.780986e-09    3.919414e-14    1.106089e-10   -5.132981e-01
    2.820850e+01    1.610019e+02    6.479570e-07    1.634880e+03    1.779346e-09    4.068495e-14    1.154130e-10   -5.082981e-01
    2.820646e+01    1.609903e+02    7.461015e-07    1.883844e+03    1.777959e-09    4.223705e-14    1.204683e-10   -5.032981e-01
    2.820427e+01    1.609779e+02    8.591025e-07    2.170368e+03    1.776833e-09    4.385321e-14    1.257880e-10   -4.982981e-01
    2.820189e+01    1.609646e+02    9.892075e-07    2.500047e+03    1.775978e-09    4.553639e-14    1.313856e-10   -4.932981e-01
    2.819937e+01    1.609503e+02    1.139001e-06    2.879294e+03    1.775407e-09    4.728963e-14    1.372755e-10   -4.882981e-01
    2.819665e+01    1.609349e+02    1.311462e-06    3.315458e+03    1.775128e-09    4.911616e-14    1.434727e-10   -4.832981e-01
    2.819374e+01    1.609185e+02    1.510013e-06    3.816958e+03    1.775155e-09    5.101935e-14    1.499926e-10   -4.782981e-01
    2.819063e+01    1.609008e+02    1.738598e-06    4.393430e+03    1.775499e-09    5.300275e-14    1.568511e-10   -4.732981e-01
    2.818727e+01    1.608819e+02    2.001754e-06    5.055907e+03    1.776171e-09    5.507005e-14    1.640647e-10   -4.682981e-01
    2.818368e+01    1.608616e+02    2.304702e-06    5.817007e+03    1.777187e-09    5.722510e-14    1.716505e-10   -4.632981e-01
    2.817985e+01    1.608399e+02    2.653449e-06    6.691160e+03    1.778559e-09    5.947205e-14    1.796263e-10   -4.582981e-01
    2.817573e+01    1.608166e+02    3.054908e-06    7.694853e+03    1.780299e-09    6.181505e-14    1.880101e-10   -4.532981e-01
    2.817130e+01    1.607917e+02    3.517031e-06    8.846921e+03    1.782424e-09    6.425865e-14    1.968208e-10   -4.482981e-01
    2.816656e+01    1.607648e+02    4.048968e-06    1.016887e+04    1.784948e-09    6.680750e-14    2.060775e-10   -4.432981e-01
    2.816148e+01    1.607361e+02    4.661244e-06    1.168523e+04    1.787887e-09    6.946650e-14    2.158001e-10   -4.382981e-01
    2.815604e+01    1.607054e+02    5.365965e-06    1.342401e+04    1.791254e-09    7.224070e-14    2.260087e-10   -4.332981e-01
    2.815020e+01    1.606725e+02    6.177055e-06    1.541709e+04    1.795067e-09    7.513550e-14    2.367240e-10   -4.282981e-01
    2.814394e+01    1.606372e+02    7.110535e-06    1.770084e+04    1.799341e-09    7.815655e-14    2.479671e-10   -4.232981e-01
    2.813724e+01    1.605994e+02    8.184815e-06    2.031660e+04    1.804095e-09    8.130965e-14    2.597593e-10   -4.182981e-01
    2.813005e+01    1.605590e+02    9.421075e-06    2.331150e+04    1.809344e-09    8.460090e-14    2.721224e-10   -4.132981e-01
    2.812237e+01    1.605156e+02    1.084366e-05    2.673905e+04    1.815105e-09    8.803675e-14    2.850784e-10   -4.082981e-01
    2.811412e+01    1.604692e+02    1.248056e-05    3.066014e+04    1.821396e-09    9.162390e-14    2.986496e-10   -4.032981e-01
    2.810530e+01    1.604196e+02    1.436394e-05    3.514388e+04    1.828235e-09    9.536930e-14    3.128582e-10   -3.982981e-01
    2.809584e+01    1.603665e+02    1.653078e-05    4.026875e+04    1.835639e-09    9.928025e-14    3.277267e-10   -3.932981e-01
    2.808571e+01    1.603095e+02    1.902356e-05    4.612372e+04    1.843626e-09    1.033644e-13    3.432775e-10   -3.882981e-01
    2.807489e+01    1.602488e+02    2.189109e-05    5.280981e+04    1.852214e-09    1.076296e-13    3.595332e-10   -3.832981e-01
    2.806327e+01    1.601836e+02    2.518946e-05    6.044118e+04    1.861420e-09    1.120842e-13    3.765157e-10   -3.782981e-01
    2.805086e+01    1.601141e+02    2.898305e-05    6.914743e+04    1.871261e-09    1.167369e-13    3.942474e-10   -3.732981e-01
    2.803757e+01    1.600396e+02    3.334583e-05    7.907493e+04    1.881756e-09    1.215966e-13    4.127497e-10   -3.682981e-01
    2.802336e+01    1.599602e+02    3.836269e-05    9.038932e+04    1.892920e-09    1.266727e-13    4.320439e-10   -3.632981e-01
    2.800815e+01    1.598752e+02    4.413110e-05    1.032777e+05    1.904772e-09    1.319749e-13    4.521508e-10   -3.582981e-01
    2.799191e+01    1.597845e+02    5.076285e-05    1.179513e+05    1.917325e-09    1.375135e-13    4.730903e-10   -3.532981e-01
    2.797452e+01    1.596876e+02    5.838630e-05    1.346487e+05    1.930597e-09    1.432990e-13    4.948818e-10   -3.482981e-01
    2.795594e+01    1.595842e+02    6.714860e-05    1.536386e+05    1.944603e-09    1.493423e-13    5.175435e-10   -3.432981e-01
    2.793608e+01    1.594738e+02    7.721850e-05    1.752240e+05    1.959355e-09    1.556549e-13    5.410935e-10   -3.382981e-01
    2.791488e+01    1.593561e+02    8.878935e-05    1.997461e+05    1.974870e-09    1.622486e-13    5.655480e-10   -3.332981e-01
    2.789224e+01    1.592308e+02    1.020829e-04    2.275889e+05    1.991157e-09    1.691359e-13    5.909215e-10   -3.282981e-01
    2.786807e+01    1.590971e+02    1.173530e-04    2.591840e+05    2.008228e-09    1.763293e-13    6.172285e-10   -3.232981e-01
    2.784228e+01    1.589548e+02    1.348905e-04    2.950166e+05    2.026095e-09    1.838422e-13    6.444810e-10   -3.182981e-01
    2.781477e+01    1.588033e+02    1.550282e-04    3.356313e+05    2.044767e-09    1.916883e-13    6.726900e-10   -3.132981e-01
    2.778545e+01    1.586423e+02    1.781468e-04    3.816395e+05    2.064250e-09    1.998819e-13    7.018645e-10   -3.082981e-01
    2.775419e+01    1.584710e+02    2.046820e-04    4.337265e+05    2.084551e-09    2.084376e-13    7.320120e-10   -3.032981e-01
    2.772091e+01    1.582891e+02    2.351319e-04    4.926602e+05    2.105677e-09    2.173707e-13    7.631375e-10   -2.982981e-01
    2.768550e+01    1.580962e+02    2.700652e-04    5.593006e+05    2.127629e-09    2.266970e-13    7.952450e-10   -2.932981e-01
    2.764780e+01    1.578914e+02    3.101319e-04    6.346088e+05    2.150409e-09    2.364327e-13    8.283355e-10   -2.882981e-01
    2.760773e+01    1.576745e+02    3.560736e-04    7.196603e+05    2.174018e-09    2.465947e-13    8.624080e-10   -2.832981e-01
    2.756516e+01    1.574449e+02    4.087365e-04    8.156552e+05    2.198454e-09    2.572004e-13    8.974600e-10   -2.782981e-01
    2.751994e+01    1.572022e+02    4.690853e-04    9.239333e+05    2.223714e-09    2.682678e-13    9.334850e-10   -2.732981e-01
    2.747198e+01    1.569457e+02    5.382190e-04    1.045989e+06    2.249791e-09    2.798154e-13    9.704760e-10   -2.682981e-01
    2.742113e+01    1.566751e+02    6.173890e-04    1.183485e+06    2.276678e-09    2.918622e-13    1.008422e-09   -2.632981e-01
    2.736728e+01    1.563900e+02    7.080195e-04    1.338275e+06    2.304366e-09    3.044279e-13    1.047311e-09   -2.582981e-01
    2.731027e+01    1.560900e+02    8.117295e-04    1.512418e+06    2.332844e-09    3.175329e-13    1.087127e-09   -2.532981e-01
    2.725003e+01    1.557747e+02    9.303575e-04    1.708201e+06    2.362098e-09    3.311979e-13    1.127853e-09   -2.482981e-01
    2.718640e+01    1.554441e+02    1.065992e-03    1.928165e+06    2.392113e-09    3.454444e-13    1.169469e-09   -2.432981e-01
    2.711928e+01    1.550978e+02    1.221002e-03    2.175125e+06    2.422871e-09    3.602946e-13    1.211951e-09   -2.382981e-01
    2.704854e+01    1.547358e+02    1.398071e-03    2.452201e+06    2.454353e-09    3.757712e-13    1.255274e-09   -2.332981e-01
    2.697412e+01    1.543582e+02    1.600236e-03    2.762844e+06    2.486538e-09    3.918974e-13    1.299411e-09   -2.282981e-01
    2.689590e+01    1.539652e+02    1.830937e-03    3.110871e+06    2.519402e-09    4.086972e-13    1.344333e-09   -2.232981e-01
    2.681382e+01    1.535570e+02    2.094058e-03    3.500501e+06    2.552921e-09    4.261953e-13    1.390006e-09   -2.182981e-01
    2.672781e+01    1.531343e+02    2.393986e-03    3.936383e+06    2.587068e-09    4.444168e-13    1.436396e-09   -2.132981e-01
    2.663784e+01    1.526976e+02    2.735667e-03    4.423649e+06    2.621813e-09    4.633879e-13    1.483468e-09   -2.082981e-01
    2.654386e+01    1.522479e+02    3.124678e-03    4.967949e+06    2.657127e-09    4.831348e-13    1.531183e-09   -2.032981e-01
    2.644589e+01    1.517864e+02    3.567294e-03    5.575506e+06    2.692979e-09    5.036850e-13    1.579500e-09   -1.982981e-01
    2.634393e+01    1.513144e+02    4.070572e-03    6.253157e+06    2.729335e-09    5.250665e-13    1.628378e-09   -1.932981e-01
    2.623805e+01    1.508335e+02    4.642439e-03    7.008428e+06    2.766160e-09    5.473080e-13    1.677774e-09   -1.882981e-01
    2.612832e+01    1.503458e+02    5.291795e-03    7.849579e+06    2.803420e-09    5.704385e-13    1.727642e-09   -1.832981e-01
    2.601484e+01    1.498534e+02    6.028610e-03    8.785676e+06    2.841079e-09    5.944880e-13    1.777937e-09   -1.782981e-01
    2.589772e+01    1.493589e+02    6.864065e-03    9.826677e+06    2.879097e-09    6.194875e-13    1.828612e-09   -1.732981e-01
    2.577716e+01    1.488652e+02    7.810650e-03    1.098350e+07    2.917438e-09    6.454685e-13    1.879619e-09   -1.682981e-01
    2.565334e+01    1.483755e+02    8.882345e-03    1.226813e+07    2.956062e-09    6.724635e-13    1.930910e-09   -1.632981e-01
    2.552648e+01    1.478932e+02    1.009476e-02    1.369368e+07    2.994930e-09    7.005050e-13    1.982436e-09   -1.582981e-01
    2.539682e+01    1.474222e+02    1.146531e-02    1.527458e+07    3.034004e-09    7.296270e-13    2.034147e-09   -1.532981e-01
    2.526464e+01    1.469666e+02    1.301342e-02    1.702660e+07    3.073242e-09    7.598640e-13    2.085995e-09   -1.482981e-01
    2.513023e+01    1.465306e+02    1.476071e-02    1.896704e+07    3.112605e-09    7.912520e-13    2.137930e-09   -1.432981e-01
    2.499386e+01    1.461186e+02    1.673128e-02    2.111489e+07    3.152054e-09    8.238265e-13    2.189902e-09   -1.382981e-01
    2.485584e+01    1.457353e+02    1.895191e-02    2.349091e+07    3.191550e-09    8.576250e-13    2.241865e-09   -1.332981e-01
    2.471644e+01    1.453852e+02    2.145239e-02    2.611786e+07    3.231052e-09    8.926850e-13    2.293768e-09   -1.282981e-01
    2.457595e+01    1.450730e+02    2.426578e-02    2.902066e+07    3.270523e-09    9.290460e-13    2.345568e-09   -1.232981e-01
    2.443457e+01    1.448030e+02    2.742881e-02    3.222652e+07    3.309926e-09    9.667475e-13    2.397215e-09   -1.182981e-01
    2.429251e+01    1.445793e+02    3.098217e-02    3.576516e+07    3.349223e-09    1.005831e-12    2.448664e-09   -1.132981e-01
    2.414990e+01    1.444057e+02    3.497095e-02    3.966898e+07    3.388379e-09    1.046336e-12    2.499874e-09   -1.082981e-01
    2.400678e+01    1.442853e+02    3.944510e-02    4.397318e+07    3.427357e-09    1.088308e-12    2.550801e-09   -1.032981e-01
    2.386315e+01    1.442206e+02    4.445977e-02    4.871593e+07    3.466126e-09    1.131789e-12    2.601403e-09   -9.829810e-02
    2.371890e+01    1.442134e+02    5.007590e-02    5.393850e+07    3.504650e-09    1.176825e-12    2.651641e-09   -9.329810e-02
    2.357379e+01    1.442643e+02    5.636070e-02    5.968525e+07    3.542900e-09    1.223461e-12    2.701478e-09   -8.829810e-02
    2.342750e+01    1.443730e+02    6.338810e-02    6.600370e+07    3.580846e-09    1.271744e-12    2.750876e-09   -8.329810e-02
    2.327962e+01    1.445379e+02    7.123930e-02    7.294444e+07    3.618458e-09    1.321724e-12    2.799802e-09   -7.829810e-02
    2.312960e+01    1.447562e+02    8.000340e-02    8.056103e+07    3.655709e-09    1.373450e-12    2.848225e-09   -7.329810e-02
    2.297683e+01    1.450237e+02    8.977765e-02    8.890971e+07    3.692575e-09    1.426972e-12    2.896112e-09   -6.829810e-02
    2.282057e+01    1.453349e+02    1.006684e-01    9.804913e+07    3.729030e-09    1.482343e-12    2.943436e-09   -6.329810e-02
    2.266007e+01    1.456826e+02    1.127908e-01    1.080398e+08    3.765053e-09    1.539616e-12    2.990169e-09   -5.829810e-02
    2.249445e+01    1.460587e+02    1.262701e-01    1.189438e+08    3.800621e-09    1.598847e-12    3.036288e-09   -5.329810e-02
    2.232289e+01    1.464535e+02    1.412413e-01    1.308235e+08    3.835716e-09    1.660093e-12    3.081769e-09   -4.829810e-02
    2.214453e+01    1.468564e+02    1.578493e-01    1.437416e+08    3.870320e-09    1.723410e-12    3.126593e-09   -4.329810e-02
    2.195852e+01    1.472557e+02    1.762498e-01    1.577595e+08    3.904417e-09    1.788861e-12    3.170740e-09   -3.829810e-02
    2.176411e+01    1.476390e+02    1.966081e-01    1.729369e+08    3.937992e-09    1.856504e-12    3.214194e-09   -3.329810e-02
    2.156060e+01    1.479933e+02    2.191000e-01    1.893302e+08    3.971031e-09    1.926405e-12    3.256940e-09   -2.829810e-02
    2.134738e+01    1.483052e+02    2.439107e-01    2.069918e+08    4.003524e-09    1.998628e-12    3.298965e-09   -2.329810e-02
    2.112404e+01    1.485617e+02    2.712348e-01    2.259694e+08    4.035459e-09    2.073241e-12    3.340258e-09   -1.829810e-02
    2.089020e+01    1.487497e+02    3.012755e-01    2.463035e+08    4.066829e-09    2.150311e-12    3.380809e-09   -1.329810e-02
    2.064571e+01    1.488565e+02    3.342433e-01    2.680281e+08    4.097626e-09    2.229911e-12    3.420613e-09   -8.298100e-03
    2.039054e+01    1.488707e+02    3.703558e-01    2.911687e+08    4.127844e-09    2.312113e-12    3.459661e-09   -3.298100e-03
    2.012484e+01    1.487814e+02    4.098360e-01    3.157423e+08    4.157478e-09    2.396993e-12    3.497950e-09    1.701900e-03
    1.984891e+01    1.485794e+02    4.529110e-01    3.417559e+08    4.186525e-09    2.484628e-12    3.535478e-09    6.701900e-03
    1.956316e+01    1.482565e+02    4.998109e-01    3.692063e+08    4.214982e-09    2.575099e-12    3.572242e-09    1.170190e-02
    1.926816e+01    1.478062e+02    5.507670e-01    3.980803e+08    4.242849e-09    2.668489e-12    3.608242e-09    1.670190e-02
    1.896460e+01    1.472238e+02    6.060105e-01    4.283545e+08    4.270125e-09    2.764882e-12    3.643481e-09    2.170190e-02
    1.865326e+01    1.465059e+02    6.657705e-01    4.599950e+08    4.296812e-09    2.864366e-12    3.677959e-09    2.670190e-02
    1.833499e+01    1.456511e+02    7.302730e-01    4.929581e+08    4.322910e-09    2.967032e-12    3.711683e-09    3.170190e-02
    1.801074e+01    1.446595e+02    7.997385e-01    5.271908e+08    4.348423e-09    3.072975e-12    3.744654e-09    3.670190e-02
    1.768143e+01    1.435327e+02    8.743820e-01    5.626315e+08    4.373355e-09    3.182291e-12    3.776881e-09    4.170190e-02
    1.734809e+01    1.422740e+02    9.544090e-01    5.992109e+08    4.397711e-09    3.295079e-12    3.808369e-09    4.670190e-02
    1.701169e+01    1.408877e+02    1.040018e+00    6.368531e+08    4.421494e-09    3.411442e-12    3.839125e-09    5.170190e-02
    1.667323e+01    1.393795e+02    1.131394e+00    6.754764e+08    4.444711e-09    3.531488e-12    3.869159e-09    5.670190e-02
    1.633367e+01    1.377562e+02    1.228714e+00    7.149947e+08    4.467369e-09    3.655327e-12    3.898478e-09    6.170190e-02
    1.599394e+01    1.360252e+02    1.332141e+00    7.553188e+08    4.489474e-09    3.783071e-12    3.927093e-09    6.670190e-02
    1.565495e+01    1.341947e+02    1.441824e+00    7.963569e+08    4.511033e-09    3.914840e-12    3.955014e-09    7.170190e-02
    1.531751e+01    1.322734e+02    1.557901e+00    8.380167e+08    4.532057e-09    4.050753e-12    3.982252e-09    7.670190e-02
    1.498242e+01    1.302703e+02    1.680494e+00    8.802060e+08    4.552551e-09    4.190939e-12    4.008818e-09    8.170190e-02
    1.465040e+01    1.281948e+02    1.809713e+00    9.228334e+08    4.572525e-09    4.335526e-12    4.034723e-09    8.670190e-02
    1.432210e+01    1.260560e+02    1.945654e+00    9.658099e+08    4.591988e-09    4.484648e-12    4.059980e-09    9.170190e-02
    1.399811e+01    1.238631e+02    2.088397e+00    1.009049e+09    4.610949e-09    4.638446e-12    4.084600e-09    9.670190e-02
    1.367897e+01    1.216253e+02    2.238010e+00    1.052469e+09    4.629418e-09    4.797061e-12    4.108597e-09    1.017019e-01
    1.336513e+01    1.193512e+02    2.394550e+00    1.095990e+09    4.647405e-09    4.960646e-12    4.131982e-09    1.067019e-01
    1.305699e+01    1.170492e+02    2.558057e+00    1.139540e+09    4.664919e-09    5.129350e-12    4.154770e-09    1.117019e-01
    1.275490e+01    1.147273e+02    2.728563e+00    1.183049e+09    4.681970e-09    5.303340e-12    4.176972e-09    1.167019e-01
    1.245913e+01    1.123930e+02    2.906087e+00    1.226453e+09    4.698570e-09    5.482775e-12    4.198603e-09    1.217019e-01
    1.216993e+01    1.100533e+02    3.090638e+00    1.269696e+09    4.714727e-09    5.667825e-12    4.219674e-09    1.267019e-01
    1.188746e+01    1.077147e+02    3.282214e+00    1.312723e+09    4.730453e-09    5.858670e-12    4.240200e-09    1.317019e-01
    1.161186e+01    1.053831e+02    3.480805e+00    1.355489e+09    4.745757e-09    6.055495e-12    4.260193e-09    1.367019e-01
    1.134323e+01    1.030640e+02    3.686392e+00    1.397951e+09    4.760650e-09    6.258490e-12    4.279667e-09    1.417019e-01
    1.108161e+01    1.007622e+02    3.898951e+00    1.440073e+09    4.775143e-09    6.467845e-12    4.298634e-09    1.467019e-01
