# sky130 nfet_01v8 gm/ID Processed Lookup Table
# Corner: ff
# Temperature: 85C
# W = 2.0 um
# L = 1.5 um (1500 nm)
# Columns: gm/id [1/V]  gm/gds [V/V]  id/W [A/m]  ft [Hz]  Cgg/W [F/m]  Cgd/W [F/m]  Cgs/W [F/m]  Cdb/W [F/m]  vgs [V]  vth [V]  vdsat [V]
# vdsat = BSIM4 saturation voltage (|VDS|_sat, positive); use for headroom / saturation / cascode-bias calculations
#           gm/id          gm/gds            id/W              ft           Cgg/W           Cgd/W           Cgs/W           Cdb/W             vgs             vth           vdsat
    2.275201e+01    1.424665e+02    6.043945e-05    5.984114e+04    3.657300e-09    4.242534e-13    1.137167e-09    1.589648e-10    1.400000e-01    4.936894e-01    4.712631e-02
    2.275025e+01    1.423155e+02    7.588055e-05    7.409836e+04    3.707902e-09    4.547722e-13    1.219488e-09    1.682858e-10    1.500000e-01    4.936894e-01    4.712937e-02
    2.274086e+01    1.421485e+02    9.526115e-05    9.163831e+04    3.762407e-09    4.875314e-13    1.306382e-09    1.780093e-10    1.600000e-01    4.936894e-01    4.713321e-02
    2.272453e+01    1.419644e+02    1.195763e-04    1.131877e+05    3.820858e-09    5.226860e-13    1.397895e-09    1.881327e-10    1.700000e-01    4.936894e-01    4.713802e-02
    2.270175e+01    1.417617e+02    1.500684e-04    1.396273e+05    3.883277e-09    5.604010e-13    1.494053e-09    1.986508e-10    1.800000e-01    4.936894e-01    4.714405e-02
    2.267282e+01    1.415392e+02    1.882873e-04    1.720229e+05    3.949667e-09    6.008500e-13    1.594852e-09    2.095559e-10    1.900000e-01    4.936894e-01    4.715161e-02
    2.263791e+01    1.412957e+02    2.361643e-04    2.116625e+05    4.020007e-09    6.442165e-13    1.700260e-09    2.208375e-10    2.000000e-01    4.936894e-01    4.716108e-02
    2.259708e+01    1.410300e+02    2.961030e-04    2.601001e+05    4.094254e-09    6.906950e-13    1.810215e-09    2.324826e-10    2.100000e-01    4.936894e-01    4.717293e-02
    2.255032e+01    1.407413e+02    3.710918e-04    3.192085e+05    4.172342e-09    7.404900e-13    1.924626e-09    2.444752e-10    2.200000e-01    4.936894e-01    4.718775e-02
    2.249751e+01    1.404288e+02    4.648403e-04    3.912396e+05    4.254177e-09    7.938175e-13    2.043369e-09    2.567966e-10    2.300000e-01    4.936894e-01    4.720626e-02
    2.243852e+01    1.400925e+02    5.819470e-04    4.788987e+05    4.339644e-09    8.509060e-13    2.166291e-09    2.694259e-10    2.400000e-01    4.936894e-01    4.722937e-02
    2.237321e+01    1.397326e+02    7.281035e-04    5.854302e+05    4.428601e-09    9.119950e-13    2.293202e-09    2.823391e-10    2.500000e-01    4.936894e-01    4.725818e-02
    2.230140e+01    1.393501e+02    9.103435e-04    7.147176e+05    4.520881e-09    9.773375e-13    2.423890e-09    2.955103e-10    2.600000e-01    4.936894e-01    4.729405e-02
    2.222298e+01    1.389469e+02    1.137342e-03    8.714047e+05    4.616295e-09    1.047200e-12    2.558107e-09    3.089110e-10    2.700000e-01    4.936894e-01    4.733867e-02
    2.213783e+01    1.385261e+02    1.419783e-03    1.061034e+06    4.714632e-09    1.121863e-12    2.695581e-09    3.225112e-10    2.800000e-01    4.936894e-01    4.739407e-02
    2.204595e+01    1.380920e+02    1.770794e-03    1.290212e+06    4.815660e-09    1.201621e-12    2.836017e-09    3.362790e-10    2.900000e-01    4.936894e-01    4.746275e-02
    2.194740e+01    1.376506e+02    2.206484e-03    1.566808e+06    4.919128e-09    1.286786e-12    2.979093e-09    3.501811e-10    3.000000e-01    4.936894e-01    4.754775e-02
    2.184237e+01    1.372100e+02    2.746575e-03    1.900182e+06    5.024770e-09    1.377685e-12    3.124473e-09    3.641834e-10    3.100000e-01    4.936894e-01    4.765272e-02
    2.173119e+01    1.367802e+02    3.415170e-03    2.301460e+06    5.132305e-09    1.474662e-12    3.271800e-09    3.782508e-10    3.200000e-01    4.936894e-01    4.778208e-02
    2.161435e+01    1.363742e+02    4.241680e-03    2.783874e+06    5.241440e-09    1.578081e-12    3.420709e-09    3.923482e-10    3.300000e-01    4.936894e-01    4.794110e-02
    2.149248e+01    1.360070e+02    5.261930e-03    3.363139e+06    5.351885e-09    1.688324e-12    3.570824e-09    4.064401e-10    3.400000e-01    4.936894e-01    4.813607e-02
    2.136642e+01    1.356975e+02    6.519485e-03    4.057963e+06    5.463325e-09    1.805792e-12    3.721765e-09    4.204917e-10    3.500000e-01    4.936894e-01    4.837440e-02
    2.123713e+01    1.354668e+02    8.067270e-03    4.890598e+06    5.575460e-09    1.930913e-12    3.873154e-09    4.344688e-10    3.600000e-01    4.936894e-01    4.866481e-02
    2.110567e+01    1.353390e+02    9.969500e-03    5.887550e+06    5.687980e-09    2.064132e-12    4.024610e-09    4.483383e-10    3.700000e-01    4.936894e-01    4.901746e-02
    2.097314e+01    1.353410e+02    1.230401e-02    7.080395e+06    5.800595e-09    2.205922e-12    4.175763e-09    4.620682e-10    3.800000e-01    4.936894e-01    4.944406e-02
    2.084054e+01    1.355011e+02    1.516505e-02    8.506777e+06    5.913000e-09    2.356780e-12    4.326253e-09    4.756284e-10    3.900000e-01    4.936894e-01    4.995799e-02
    2.070873e+01    1.358485e+02    1.866665e-02    1.021149e+07    6.024915e-09    2.517236e-12    4.475730e-09    4.889903e-10    4.000000e-01    4.936894e-01    5.057441e-02
    2.057815e+01    1.364119e+02    2.294665e-02    1.224774e+07    6.136065e-09    2.687842e-12    4.623865e-09    5.021275e-10    4.100000e-01    4.936894e-01    5.131023e-02
    2.044872e+01    1.372174e+02    2.817135e-02    1.467838e+07    6.246200e-09    2.869187e-12    4.770342e-09    5.150160e-10    4.200000e-01    4.936894e-01    5.218412e-02
    2.031961e+01    1.382866e+02    3.454102e-02    1.757724e+07    6.355065e-09    3.061893e-12    4.914869e-09    5.276340e-10    4.300000e-01    4.936894e-01    5.321637e-02
    2.018918e+01    1.396340e+02    4.229604e-02    2.103014e+07    6.462440e-09    3.266618e-12    5.057175e-09    5.399620e-10    4.400000e-01    4.936894e-01    5.442866e-02
    2.005475e+01    1.412642e+02    5.172380e-02    2.513548e+07    6.568115e-09    3.484057e-12    5.197015e-09    5.519830e-10    4.500000e-01    4.936894e-01    5.584376e-02
    1.991275e+01    1.431700e+02    6.316585e-02    3.000434e+07    6.671900e-09    3.714949e-12    5.334165e-09    5.636825e-10    4.600000e-01    4.936894e-01    5.748510e-02
    1.975869e+01    1.453293e+02    7.702520e-02    3.575935e+07    6.773630e-09    3.960076e-12    5.468425e-09    5.750485e-10    4.700000e-01    4.936894e-01    5.937620e-02
    1.958745e+01    1.477043e+02    9.377330e-02    4.253255e+07    6.873150e-09    4.220267e-12    5.599630e-09    5.860710e-10    4.800000e-01    4.936894e-01    6.154007e-02
    1.939367e+01    1.502408e+02    1.139554e-01    5.046161e+07    6.970335e-09    4.496404e-12    5.727625e-09    5.967435e-10    4.900000e-01    4.936894e-01    6.399848e-02
    1.917205e+01    1.528686e+02    1.381943e-01    5.968460e+07    7.065070e-09    4.789421e-12    5.852295e-09    6.070605e-10    5.000000e-01    4.936894e-01    6.677119e-02
    1.891793e+01    1.555034e+02    1.671914e-01    7.033317e+07    7.157270e-09    5.100315e-12    5.973530e-09    6.170195e-10    5.100000e-01    4.936894e-01    6.987526e-02
    1.862762e+01    1.580508e+02    2.017236e-01    8.252483e+07    7.246855e-09    5.430135e-12    6.091265e-09    6.266190e-10    5.200000e-01    4.936894e-01    7.332429e-02
    1.829880e+01    1.604099e+02    2.426362e-01    9.635429e+07    7.333770e-09    5.780015e-12    6.205445e-09    6.358600e-10    5.300000e-01    4.936894e-01    7.712786e-02
    1.793071e+01    1.624793e+02    2.908312e-01    1.118852e+08    7.417985e-09    6.151150e-12    6.316025e-09    6.447450e-10    5.400000e-01    4.936894e-01    8.129105e-02
    1.752417e+01    1.641624e+02    3.472513e-01    1.291431e+08    7.499465e-09    6.544805e-12    6.423000e-09    6.532785e-10    5.500000e-01    4.936894e-01    8.581417e-02
    1.708159e+01    1.653732e+02    4.128591e-01    1.481098e+08    7.578210e-09    6.962350e-12    6.526370e-09    6.614660e-10    5.600000e-01    4.936894e-01    9.069264e-02
    1.660672e+01    1.660411e+02    4.886140e-01    1.687208e+08    7.654225e-09    7.405230e-12    6.626150e-09    6.693135e-10    5.700000e-01    4.936894e-01    9.591717e-02
    1.610432e+01    1.661141e+02    5.754480e-01    1.908661e+08    7.727515e-09    7.874980e-12    6.722380e-09    6.768290e-10    5.800000e-01    4.936894e-01    1.014740e-01
    1.557992e+01    1.655615e+02    6.742400e-01    2.143927e+08    7.798120e-09    8.373260e-12    6.815095e-09    6.840210e-10    5.900000e-01    4.936894e-01    1.073454e-01
    1.503939e+01    1.643741e+02    7.857930e-01    2.391114e+08    7.866075e-09    8.901825e-12    6.904355e-09    6.908995e-10    6.000000e-01    4.936894e-01    1.135104e-01
    1.448868e+01    1.625636e+02    9.108150e-01    2.648063e+08    7.931420e-09    9.462560e-12    6.990230e-09    6.974735e-10    6.100000e-01    4.936894e-01    1.199454e-01
    1.393355e+01    1.601603e+02    1.049903e+00    2.912431e+08    7.994205e-09    1.005747e-11    7.072795e-09    7.037540e-10    6.200000e-01    4.936894e-01    1.266248e-01
    1.337936e+01    1.572099e+02    1.203530e+00    3.181808e+08    8.054500e-09    1.068869e-11    7.152125e-09    7.097520e-10    6.300000e-01    4.936894e-01    1.335220e-01
    1.283091e+01    1.537700e+02    1.372047e+00    3.453815e+08    8.112365e-09    1.135854e-11    7.228310e-09    7.154780e-10    6.400000e-01    4.936894e-01    1.406100e-01
    1.229236e+01    1.499063e+02    1.555676e+00    3.726202e+08    8.167860e-09    1.206947e-11    7.301450e-09    7.209440e-10    6.500000e-01    4.936894e-01    1.478621e-01
    1.176722e+01    1.456886e+02    1.754520e+00    3.996906e+08    8.221070e-09    1.282411e-11    7.371630e-09    7.261610e-10    6.600000e-01    4.936894e-01    1.552523e-01
    1.125828e+01    1.411877e+02    1.968572e+00    4.264119e+08    8.272065e-09    1.362529e-11    7.438950e-09    7.311405e-10    6.700000e-01    4.936894e-01    1.627560e-01
    1.076771e+01    1.364728e+02    2.197724e+00    4.526319e+08    8.320920e-09    1.447601e-11    7.503515e-09    7.358935e-10    6.800000e-01    4.936894e-01    1.703503e-01
    1.029709e+01    1.316086e+02    2.441785e+00    4.782280e+08    8.367715e-09    1.537954e-11    7.565425e-09    7.404320e-10    6.900000e-01    4.936894e-01    1.780138e-01
    9.847457e+00    1.266547e+02    2.700493e+00    5.031073e+08    8.412530e-09    1.633932e-11    7.624780e-09    7.447670e-10    7.000000e-01    4.936894e-01    1.857275e-01
    9.419397e+00    1.216640e+02    2.973531e+00    5.272051e+08    8.455440e-09    1.735909e-11    7.681680e-09    7.489085e-10    7.100000e-01    4.936894e-01    1.934742e-01
    9.013098e+00    1.166823e+02    3.260546e+00    5.504815e+08    8.496535e-09    1.844285e-11    7.736225e-09    7.528685e-10    7.200000e-01    4.936894e-01    2.012390e-01
    8.628429e+00    1.117485e+02    3.561153e+00    5.729199e+08    8.535885e-09    1.959488e-11    7.788515e-09    7.566570e-10    7.300000e-01    4.936894e-01    2.090089e-01
    8.264999e+00    1.068945e+02    3.874955e+00    5.945220e+08    8.573570e-09    2.081980e-11    7.838640e-09    7.602840e-10    7.400000e-01    4.936894e-01    2.167727e-01
    7.922222e+00    1.021460e+02    4.201549e+00    6.153045e+08    8.609670e-09    2.212255e-11    7.886705e-09    7.637590e-10    7.500000e-01    4.936894e-01    2.245211e-01
    7.599356e+00    9.752266e+01    4.540535e+00    6.352960e+08    8.644260e-09    2.350844e-11    7.932800e-09    7.670925e-10    7.600000e-01    4.936894e-01    2.322464e-01
    7.295550e+00    9.303928e+01    4.891524e+00    6.545341e+08    8.677410e-09    2.498321e-11    7.977005e-09    7.702935e-10    7.700000e-01    4.936894e-01    2.399423e-01
    7.009889e+00    8.870613e+01    5.254140e+00    6.730618e+08    8.709195e-09    2.655297e-11    8.019415e-09    7.733710e-10    7.800000e-01    4.936894e-01    2.476039e-01
    6.741412e+00    8.452975e+01    5.628025e+00    6.909251e+08    8.739690e-09    2.822432e-11    8.060115e-09    7.763340e-10    7.900000e-01    4.936894e-01    2.552273e-01
    6.489129e+00    8.051357e+01    6.012850e+00    7.081721e+08    8.768960e-09    3.000439e-11    8.099180e-09    7.791900e-10    8.000000e-01    4.936894e-01    2.628098e-01
    6.252077e+00    7.665853e+01    6.408290e+00    7.248502e+08    8.797075e-09    3.190081e-11    8.136685e-09    7.819485e-10    8.100000e-01    4.936894e-01    2.703493e-01
    6.029289e+00    7.296353e+01    6.814055e+00    7.410055e+08    8.824100e-09    3.392179e-11    8.172715e-09    7.846160e-10    8.200000e-01    4.936894e-01    2.778447e-01
    5.819826e+00    6.942595e+01    7.229880e+00    7.566822e+08    8.850090e-09    3.607617e-11    8.207330e-09    7.872010e-10    8.300000e-01    4.936894e-01    2.852951e-01
    5.622793e+00    6.604199e+01    7.655510e+00    7.719196e+08    8.875120e-09    3.837345e-11    8.240605e-09    7.897110e-10    8.400000e-01    4.936894e-01    2.927005e-01
    5.437330e+00    6.280701e+01    8.090715e+00    7.867555e+08    8.899240e-09    4.082389e-11    8.272595e-09    7.921525e-10    8.500000e-01    4.936894e-01    3.000611e-01
    5.262626e+00    5.971580e+01    8.535280e+00    8.012229e+08    8.922510e-09    4.343848e-11    8.303370e-09    7.945325e-10    8.600000e-01    4.936894e-01    3.073775e-01
    5.097910e+00    5.676275e+01    8.989010e+00    8.153509e+08    8.944985e-09    4.622909e-11    8.332985e-09    7.968580e-10    8.700000e-01    4.936894e-01    3.146506e-01
    4.942461e+00    5.394211e+01    9.451725e+00    8.291644e+08    8.966725e-09    4.920844e-11    8.361495e-09    7.991350e-10    8.800000e-01    4.936894e-01    3.218812e-01
    4.795606e+00    5.124806e+01    9.923250e+00    8.426853e+08    8.987775e-09    5.239025e-11    8.388950e-09    8.013700e-10    8.900000e-01    4.936894e-01    3.290707e-01
    4.656715e+00    4.867487e+01    1.040343e+01    8.559306e+08    9.008195e-09    5.578930e-11    8.415400e-09    8.035700e-10    9.000000e-01    4.936894e-01    3.362202e-01
    4.525199e+00    4.621691e+01    1.089212e+01    8.689150e+08    9.028030e-09    5.942140e-11    8.440885e-09    8.057395e-10    9.100000e-01    4.936894e-01    3.433312e-01
    4.400520e+00    4.386873e+01    1.138917e+01    8.816488e+08    9.047330e-09    6.330355e-11    8.465460e-09    8.078855e-10    9.200000e-01    4.936894e-01    3.504050e-01
    4.282173e+00    4.162523e+01    1.189444e+01    8.941408e+08    9.066140e-09    6.745415e-11    8.489150e-09    8.100130e-10    9.300000e-01    4.936894e-01    3.574431e-01
    4.169686e+00    3.948136e+01    1.240781e+01    9.063938e+08    9.084510e-09    7.189280e-11    8.512005e-09    8.121285e-10    9.400000e-01    4.936894e-01    3.644468e-01
    4.062636e+00    3.743255e+01    1.292913e+01    9.184116e+08    9.102485e-09    7.664055e-11    8.534050e-09    8.142370e-10    9.500000e-01    4.936894e-01    3.714176e-01
    3.960620e+00    3.547439e+01    1.345829e+01    9.301927e+08    9.120110e-09    8.172005e-11    8.555320e-09    8.163440e-10    9.600000e-01    4.936894e-01    3.783568e-01
    3.863270e+00    3.360282e+01    1.399515e+01    9.417356e+08    9.137425e-09    8.715545e-11    8.575840e-09    8.184555e-10    9.700000e-01    4.936894e-01    3.852658e-01
    3.770249e+00    3.181399e+01    1.453959e+01    9.530341e+08    9.154480e-09    9.297275e-11    8.595645e-09    8.205765e-10    9.800000e-01    4.936894e-01    3.921459e-01
    3.681241e+00    3.010436e+01    1.509146e+01    9.640821e+08    9.171315e-09    9.919955e-11    8.614750e-09    8.227120e-10    9.900000e-01    4.936894e-01    3.989983e-01
    3.595954e+00    2.847059e+01    1.565064e+01    9.748700e+08    9.187975e-09    1.058655e-10    8.633180e-09    8.248685e-10    1.000000e+00    4.936894e-01    4.058242e-01
    3.514122e+00    2.690964e+01    1.621700e+01    9.853883e+08    9.204495e-09    1.130020e-10    8.650955e-09    8.270505e-10    1.010000e+00    4.936894e-01    4.126248e-01
    3.435497e+00    2.541864e+01    1.679036e+01    9.956235e+08    9.220930e-09    1.206427e-10    8.668085e-09    8.292635e-10    1.020000e+00    4.936894e-01    4.194012e-01
    3.359848e+00    2.399495e+01    1.737061e+01    1.005563e+09    9.237310e-09    1.288231e-10    8.684595e-09    8.315130e-10    1.030000e+00    4.936894e-01    4.261545e-01
    3.286966e+00    2.263614e+01    1.795757e+01    1.015192e+09    9.253685e-09    1.375812e-10    8.700485e-09    8.338050e-10    1.040000e+00    4.936894e-01    4.328855e-01
    3.216650e+00    2.133989e+01    1.855107e+01    1.024492e+09    9.270095e-09    1.469566e-10    8.715765e-09    8.361440e-10    1.050000e+00    4.936894e-01    4.395954e-01
    3.148721e+00    2.010409e+01    1.915095e+01    1.033449e+09    9.286580e-09    1.569917e-10    8.730450e-09    8.385355e-10    1.060000e+00    4.936894e-01    4.462850e-01
    3.083007e+00    1.892673e+01    1.975702e+01    1.042040e+09    9.303185e-09    1.677306e-10    8.744540e-09    8.409855e-10    1.070000e+00    4.936894e-01    4.529552e-01
    3.019350e+00    1.780594e+01    2.036911e+01    1.050248e+09    9.319950e-09    1.792199e-10    8.758035e-09    8.434990e-10    1.080000e+00    4.936894e-01    4.596067e-01
    2.957607e+00    1.673998e+01    2.098699e+01    1.058052e+09    9.336920e-09    1.915081e-10    8.770940e-09    8.460810e-10    1.090000e+00    4.936894e-01    4.662405e-01
    2.897636e+00    1.572712e+01    2.161046e+01    1.065428e+09    9.354140e-09    2.046455e-10    8.783250e-09    8.487380e-10    1.100000e+00    4.936894e-01    4.728571e-01
    2.839319e+00    1.476579e+01    2.223929e+01    1.072357e+09    9.371650e-09    2.186843e-10    8.794960e-09    8.514745e-10    1.110000e+00    4.936894e-01    4.794574e-01
    2.782532e+00    1.385443e+01    2.287327e+01    1.078814e+09    9.389490e-09    2.336785e-10    8.806065e-09    8.542955e-10    1.120000e+00    4.936894e-01    4.860420e-01
    2.727172e+00    1.299156e+01    2.351213e+01    1.084778e+09    9.407700e-09    2.496831e-10    8.816560e-09    8.572070e-10    1.130000e+00    4.936894e-01    4.926116e-01
    2.673137e+00    1.217570e+01    2.415561e+01    1.090226e+09    9.426330e-09    2.667542e-10    8.826430e-09    8.602130e-10    1.140000e+00    4.936894e-01    4.991667e-01
    2.620334e+00    1.140538e+01    2.480346e+01    1.095136e+09    9.445415e-09    2.849485e-10    8.835665e-09    8.633190e-10    1.150000e+00    4.936894e-01    5.057079e-01
    2.568682e+00    1.067919e+01    2.545538e+01    1.099486e+09    9.464995e-09    3.043227e-10    8.844255e-09    8.665290e-10    1.160000e+00    4.936894e-01    5.122359e-01
    2.518108e+00    9.995683e+00    2.611110e+01    1.103258e+09    9.485110e-09    3.249332e-10    8.852190e-09    8.698475e-10    1.170000e+00    4.936894e-01    5.187511e-01
    2.468541e+00    9.353394e+00    2.677029e+01    1.106433e+09    9.505795e-09    3.468352e-10    8.859445e-09    8.732790e-10    1.180000e+00    4.936894e-01    5.252540e-01
    2.419922e+00    8.750860e+00    2.743266e+01    1.108994e+09    9.527090e-09    3.700825e-10    8.866005e-09    8.768265e-10    1.190000e+00    4.936894e-01    5.317453e-01
    2.372204e+00    8.186594e+00    2.809788e+01    1.110931e+09    9.549015e-09    3.947260e-10    8.871865e-09    8.804935e-10    1.200000e+00    4.936894e-01    5.382253e-01
    2.325339e+00    7.659058e+00    2.876563e+01    1.112232e+09    9.571610e-09    4.208138e-10    8.876995e-09    8.842825e-10    1.210000e+00    4.936894e-01    5.446945e-01
    2.279297e+00    7.166709e+00    2.943557e+01    1.112892e+09    9.594900e-09    4.483896e-10    8.881390e-09    8.881960e-10    1.220000e+00    4.936894e-01    5.511533e-01
