# sky130 nfet_01v8 gm/ID Processed Lookup Table
# Corner: ff
# Temperature: 85C
# W = 2.0 um
# L = 2 um (2000 nm)
# Columns: gm/id [1/V]  gm/gds [V/V]  id/W [A/m]  ft [Hz]  Cgg/W [F/m]  Cgd/W [F/m]  Cgs/W [F/m]  Cdb/W [F/m]  vgs [V]  vth [V]  vdsat [V]
# vdsat = BSIM4 saturation voltage (|VDS|_sat, positive); use for headroom / saturation / cascode-bias calculations
#           gm/id          gm/gds            id/W              ft           Cgg/W           Cgd/W           Cgs/W           Cdb/W             vgs             vth           vdsat
    2.228475e+01    1.372366e+02    6.059130e-05    4.135182e+04    5.196890e-09    6.873335e-13    1.840917e-09    2.555461e-10    1.400000e-01    4.728860e-01    4.525428e-02
    2.227926e+01    1.370742e+02    7.571515e-05    5.088858e+04    5.275740e-09    7.357760e-13    1.964922e-09    2.695262e-10    1.500000e-01    4.728860e-01    4.525839e-02
    2.226624e+01    1.368960e+02    9.460510e-05    6.255209e+04    5.359690e-09    7.876535e-13    2.094912e-09    2.840201e-10    1.600000e-01    4.728860e-01    4.526352e-02
    2.224628e+01    1.367005e+02    1.181884e-04    7.679926e+04    5.448730e-09    8.431935e-13    2.230866e-09    2.990160e-10    1.700000e-01    4.728860e-01    4.526992e-02
    2.221986e+01    1.364870e+02    1.476162e-04    9.418104e+04    5.542835e-09    9.026360e-13    2.372730e-09    3.144986e-10    1.800000e-01    4.728860e-01    4.527791e-02
    2.218724e+01    1.362544e+02    1.843169e-04    1.153614e+05    5.641930e-09    9.662340e-13    2.520413e-09    3.304495e-10    1.900000e-01    4.728860e-01    4.528788e-02
    2.214859e+01    1.360020e+02    2.300600e-04    1.411392e+05    5.745920e-09    1.034255e-12    2.673784e-09    3.468465e-10    2.000000e-01    4.728860e-01    4.530029e-02
    2.210398e+01    1.357292e+02    2.870362e-04    1.724740e+05    5.854685e-09    1.106980e-12    2.832674e-09    3.636644e-10    2.100000e-01    4.728860e-01    4.531574e-02
    2.205340e+01    1.354360e+02    3.579525e-04    2.105170e+05    5.968070e-09    1.184706e-12    2.996874e-09    3.808743e-10    2.200000e-01    4.728860e-01    4.533495e-02
    2.199683e+01    1.351226e+02    4.461505e-04    2.566482e+05    6.085880e-09    1.267745e-12    3.166139e-09    3.984444e-10    2.300000e-01    4.728860e-01    4.535883e-02
    2.193415e+01    1.347898e+02    5.557490e-04    3.125176e+05    6.207905e-09    1.356426e-12    3.340185e-09    4.163399e-10    2.400000e-01    4.728860e-01    4.538847e-02
    2.186532e+01    1.344391e+02    6.918155e-04    3.800976e+05    6.333900e-09    1.451096e-12    3.518692e-09    4.345234e-10    2.500000e-01    4.728860e-01    4.542522e-02
    2.179029e+01    1.340733e+02    8.605765e-04    4.617415e+05    6.463590e-09    1.552118e-12    3.701310e-09    4.529553e-10    2.600000e-01    4.728860e-01    4.547072e-02
    2.170905e+01    1.336961e+02    1.069669e-03    5.602538e+05    6.596680e-09    1.659875e-12    3.887655e-09    4.715935e-10    2.700000e-01    4.728860e-01    4.552699e-02
    2.162163e+01    1.333125e+02    1.328443e-03    6.789731e+05    6.732850e-09    1.774771e-12    4.077318e-09    4.903948e-10    2.800000e-01    4.728860e-01    4.559644e-02
    2.152821e+01    1.329294e+02    1.648329e-03    8.218715e+05    6.871760e-09    1.897230e-12    4.269867e-09    5.093145e-10    2.900000e-01    4.728860e-01    4.568203e-02
    2.142905e+01    1.325557e+02    2.043273e-03    9.936692e+05    7.013060e-09    2.027698e-12    4.464851e-09    5.283075e-10    3.000000e-01    4.728860e-01    4.578730e-02
    2.132455e+01    1.322023e+02    2.530267e-03    1.199977e+06    7.156380e-09    2.166644e-12    4.661802e-09    5.473275e-10    3.100000e-01    4.728860e-01    4.591651e-02
    2.121526e+01    1.318831e+02    3.129983e-03    1.447465e+06    7.301335e-09    2.314565e-12    4.860247e-09    5.663295e-10    3.200000e-01    4.728860e-01    4.607471e-02
    2.110188e+01    1.316145e+02    3.867532e-03    1.744060e+06    7.447555e-09    2.471980e-12    5.059700e-09    5.852675e-10    3.300000e-01    4.728860e-01    4.626793e-02
    2.098530e+01    1.314159e+02    4.773380e-03    2.099201e+06    7.594640e-09    2.639438e-12    5.259685e-09    6.040980e-10    3.400000e-01    4.728860e-01    4.650327e-02
    2.086650e+01    1.313100e+02    5.884460e-03    2.524127e+06    7.742215e-09    2.817516e-12    5.459715e-09    6.227785e-10    3.500000e-01    4.728860e-01    4.678903e-02
    2.074658e+01    1.313223e+02    7.245505e-03    3.032244e+06    7.889895e-09    3.006826e-12    5.659330e-09    6.412670e-10    3.600000e-01    4.728860e-01    4.713487e-02
    2.062668e+01    1.314813e+02    8.910645e-03    3.639550e+06    8.037315e-09    3.208008e-12    5.858065e-09    6.595250e-10    3.700000e-01    4.728860e-01    4.755193e-02
    2.050783e+01    1.318175e+02    1.094539e-02    4.365153e+06    8.184110e-09    3.421741e-12    6.055480e-09    6.775155e-10    3.800000e-01    4.728860e-01    4.805293e-02
    2.039090e+01    1.323629e+02    1.342891e-02    5.231850e+06    8.329940e-09    3.648742e-12    6.251160e-09    6.952050e-10    3.900000e-01    4.728860e-01    4.865227e-02
    2.027639e+01    1.331501e+02    1.645689e-02    6.266802e+06    8.474470e-09    3.889764e-12    6.444695e-09    7.125620e-10    4.000000e-01    4.728860e-01    4.936604e-02
    2.016431e+01    1.342098e+02    2.014479e-02    7.502223e+06    8.617400e-09    4.145608e-12    6.635725e-09    7.295585e-10    4.100000e-01    4.728860e-01    5.021205e-02
    2.005396e+01    1.355701e+02    2.463175e-02    8.976120e+06    8.758440e-09    4.417119e-12    6.823895e-09    7.461690e-10    4.200000e-01    4.728860e-01    5.120972e-02
    1.994380e+01    1.372532e+02    3.008497e-02    1.073294e+07    8.897315e-09    4.705189e-12    7.008890e-09    7.623710e-10    4.300000e-01    4.728860e-01    5.237992e-02
    1.983139e+01    1.392737e+02    3.670470e-02    1.282403e+07    9.033795e-09    5.010765e-12    7.190430e-09    7.781465e-10    4.400000e-01    4.728860e-01    5.374470e-02
    1.971327e+01    1.416357e+02    4.472955e-02    1.530788e+07    9.167655e-09    5.334850e-12    7.368255e-09    7.934795e-10    4.500000e-01    4.728860e-01    5.532695e-02
    1.958515e+01    1.443303e+02    5.444205e-02    1.824984e+07    9.298705e-09    5.678505e-12    7.542150e-09    8.083575e-10    4.600000e-01    4.728860e-01    5.714994e-02
    1.944200e+01    1.473342e+02    6.617400e-02    2.172128e+07    9.426775e-09    6.042850e-12    7.711910e-09    8.227705e-10    4.700000e-01    4.728860e-01    5.923677e-02
    1.927844e+01    1.506073e+02    8.031120e-02    2.579804e+07    9.551720e-09    6.429090e-12    7.877385e-09    8.367115e-10    4.800000e-01    4.728860e-01    6.160968e-02
    1.908903e+01    1.540931e+02    9.729720e-02    3.055796e+07    9.673420e-09    6.838485e-12    8.038435e-09    8.501775e-10    4.900000e-01    4.728860e-01    6.428946e-02
    1.886876e+01    1.577187e+02    1.176350e-01    3.607769e+07    9.791775e-09    7.272390e-12    8.194965e-09    8.631660e-10    5.000000e-01    4.728860e-01    6.729465e-02
    1.861345e+01    1.613969e+02    1.418867e-01    4.242862e+07    9.906715e-09    7.732225e-12    8.346895e-09    8.756785e-10    5.100000e-01    4.728860e-01    7.064088e-02
    1.832011e+01    1.650291e+02    1.706695e-01    4.967239e+07    1.001818e-08    8.219520e-12    8.494180e-09    8.877175e-10    5.200000e-01    4.728860e-01    7.434024e-02
    1.798717e+01    1.685094e+02    2.046494e-01    5.785618e+07    1.012614e-08    8.735890e-12    8.636790e-09    8.992880e-10    5.300000e-01    4.728860e-01    7.840075e-02
    1.761466e+01    1.717294e+02    2.445305e-01    6.700817e+07    1.023057e-08    9.283060e-12    8.774720e-09    9.103975e-10    5.400000e-01    4.728860e-01    8.282594e-02
    1.720411e+01    1.745836e+02    2.910411e-01    7.713383e+07    1.033147e-08    9.862865e-12    8.907995e-09    9.210540e-10    5.500000e-01    4.728860e-01    8.761464e-02
    1.675854e+01    1.769752e+02    3.449176e-01    8.821345e+07    1.042886e-08    1.047726e-11    9.036640e-09    9.312675e-10    5.600000e-01    4.728860e-01    9.276096e-02
    1.628203e+01    1.788196e+02    4.068857e-01    1.002007e+08    1.052278e-08    1.112833e-11    9.160720e-09    9.410485e-10    5.700000e-01    4.728860e-01    9.825440e-02
    1.577962e+01    1.800498e+02    4.776412e-01    1.130238e+08    1.061325e-08    1.181829e-11    9.280290e-09    9.504095e-10    5.800000e-01    4.728860e-01    1.040802e-01
    1.525689e+01    1.806187e+02    5.578315e-01    1.265877e+08    1.070034e-08    1.254952e-11    9.395435e-09    9.593630e-10    5.900000e-01    4.728860e-01    1.102199e-01
    1.471967e+01    1.804999e+02    6.480380e-01    1.407779e+08    1.078411e-08    1.332455e-11    9.506250e-09    9.679225e-10    6.000000e-01    4.728860e-01    1.166519e-01
    1.417375e+01    1.796882e+02    7.487620e-01    1.554655e+08    1.086462e-08    1.414608e-11    9.612825e-09    9.761025e-10    6.100000e-01    4.728860e-01    1.233519e-01
    1.362469e+01    1.781987e+02    8.604140e-01    1.705136e+08    1.094197e-08    1.501700e-11    9.715280e-09    9.839165e-10    6.200000e-01    4.728860e-01    1.302943e-01
    1.307759e+01    1.760637e+02    9.833070e-01    1.857825e+08    1.101621e-08    1.594040e-11    9.813725e-09    9.913805e-10    6.300000e-01    4.728860e-01    1.374521e-01
    1.253703e+01    1.733304e+02    1.117654e+00    2.011360e+08    1.108747e-08    1.691957e-11    9.908275e-09    9.985085e-10    6.400000e-01    4.728860e-01    1.447983e-01
    1.200694e+01    1.700567e+02    1.263571e+00    2.164464e+08    1.115582e-08    1.795806e-11    9.999060e-09    1.005316e-09    6.500000e-01    4.728860e-01    1.523060e-01
    1.149060e+01    1.663083e+02    1.421080e+00    2.315986e+08    1.122136e-08    1.905962e-11    1.008621e-08    1.011817e-09    6.600000e-01    4.728860e-01    1.599493e-01
    1.099067e+01    1.621554e+02    1.590118e+00    2.464925e+08    1.128418e-08    2.022832e-11    1.016984e-08    1.018026e-09    6.700000e-01    4.728860e-01    1.677037e-01
    1.050917e+01    1.576686e+02    1.770553e+00    2.610454e+08    1.134440e-08    2.146847e-11    1.025009e-08    1.023961e-09    6.800000e-01    4.728860e-01    1.755462e-01
    1.004758e+01    1.529175e+02    1.962185e+00    2.751925e+08    1.140210e-08    2.278472e-11    1.032708e-08    1.029632e-09    6.900000e-01    4.728860e-01    1.834557e-01
    9.606845e+00    1.479681e+02    2.164767e+00    2.888859e+08    1.145739e-08    2.418205e-11    1.040096e-08    1.035055e-09    7.000000e-01    4.728860e-01    1.914133e-01
    9.187504e+00    1.428812e+02    2.378017e+00    3.020945e+08    1.151038e-08    2.566577e-11    1.047182e-08    1.040245e-09    7.100000e-01    4.728860e-01    1.994020e-01
    8.789711e+00    1.377118e+02    2.601621e+00    3.148021e+08    1.156116e-08    2.724161e-11    1.053981e-08    1.045214e-09    7.200000e-01    4.728860e-01    2.074070e-01
    8.413314e+00    1.325082e+02    2.835256e+00    3.270047e+08    1.160982e-08    2.891571e-11    1.060505e-08    1.049975e-09    7.300000e-01    4.728860e-01    2.154155e-01
    8.057917e+00    1.273121e+02    3.078588e+00    3.387096e+08    1.165647e-08    3.069463e-11    1.066765e-08    1.054542e-09    7.400000e-01    4.728860e-01    2.234167e-01
    7.722933e+00    1.221588e+02    3.331287e+00    3.499323e+08    1.170120e-08    3.258543e-11    1.072774e-08    1.058927e-09    7.500000e-01    4.728860e-01    2.314014e-01
    7.407621e+00    1.170770e+02    3.593029e+00    3.606946e+08    1.174411e-08    3.459570e-11    1.078542e-08    1.063142e-09    7.600000e-01    4.728860e-01    2.393624e-01
    7.111146e+00    1.120901e+02    3.863502e+00    3.710232e+08    1.178528e-08    3.673358e-11    1.084080e-08    1.067198e-09    7.700000e-01    4.728860e-01    2.472937e-01
    6.832595e+00    1.072162e+02    4.142412e+00    3.809474e+08    1.182481e-08    3.900780e-11    1.089398e-08    1.071106e-09    7.800000e-01    4.728860e-01    2.551906e-01
    6.571019e+00    1.024690e+02    4.429481e+00    3.904985e+08    1.186278e-08    4.142776e-11    1.094508e-08    1.074878e-09    7.900000e-01    4.728860e-01    2.630497e-01
    6.325448e+00    9.785827e+01    4.724453e+00    3.997078e+08    1.189927e-08    4.400355e-11    1.099418e-08    1.078524e-09    8.000000e-01    4.728860e-01    2.708685e-01
    6.094916e+00    9.339057e+01    5.027090e+00    4.086059e+08    1.193438e-08    4.674600e-11    1.104138e-08    1.082055e-09    8.100000e-01    4.728860e-01    2.786456e-01
    5.878463e+00    8.906971e+01    5.337180e+00    4.172226e+08    1.196818e-08    4.966676e-11    1.108677e-08    1.085478e-09    8.200000e-01    4.728860e-01    2.863799e-01
    5.675176e+00    8.489737e+01    5.654515e+00    4.255855e+08    1.200074e-08    5.277835e-11    1.113044e-08    1.088806e-09    8.300000e-01    4.728860e-01    2.940712e-01
    5.484149e+00    8.087346e+01    5.978930e+00    4.337204e+08    1.203215e-08    5.609420e-11    1.117246e-08    1.092046e-09    8.400000e-01    4.728860e-01    3.017197e-01
    5.304537e+00    7.699652e+01    6.310255e+00    4.416502e+08    1.206247e-08    5.962885e-11    1.121291e-08    1.095208e-09    8.500000e-01    4.728860e-01    3.093261e-01
    5.135533e+00    7.326406e+01    6.648340e+00    4.493956e+08    1.209177e-08    6.339770e-11    1.125186e-08    1.098300e-09    8.600000e-01    4.728860e-01    3.168914e-01
    4.976365e+00    6.967291e+01    6.993065e+00    4.569750e+08    1.212014e-08    6.741755e-11    1.128939e-08    1.101330e-09    8.700000e-01    4.728860e-01    3.244166e-01
    4.826318e+00    6.621928e+01    7.344305e+00    4.644036e+08    1.214762e-08    7.170635e-11    1.132555e-08    1.104307e-09    8.800000e-01    4.728860e-01    3.319032e-01
    4.684723e+00    6.289921e+01    7.701950e+00    4.716948e+08    1.217429e-08    7.628325e-11    1.136041e-08    1.107238e-09    8.900000e-01    4.728860e-01    3.393528e-01
    4.550947e+00    5.970846e+01    8.065905e+00    4.788589e+08    1.220022e-08    8.116900e-11    1.139403e-08    1.110132e-09    9.000000e-01    4.728860e-01    3.467668e-01
    4.424413e+00    5.664271e+01    8.436070e+00    4.859047e+08    1.222545e-08    8.638575e-11    1.142646e-08    1.112995e-09    9.100000e-01    4.728860e-01    3.541471e-01
    4.304571e+00    5.369785e+01    8.812370e+00    4.928386e+08    1.225005e-08    9.195735e-11    1.145774e-08    1.115836e-09    9.200000e-01    4.728860e-01    3.614951e-01
    4.190924e+00    5.086972e+01    9.194715e+00    4.996647e+08    1.227410e-08    9.790935e-11    1.148793e-08    1.118661e-09    9.300000e-01    4.728860e-01    3.688128e-01
    4.083002e+00    4.815442e+01    9.583030e+00    5.063854e+08    1.229763e-08    1.042691e-10    1.151707e-08    1.121478e-09    9.400000e-01    4.728860e-01    3.761016e-01
    3.980375e+00    4.554815e+01    9.977240e+00    5.130020e+08    1.232071e-08    1.110657e-10    1.154520e-08    1.124294e-09    9.500000e-01    4.728860e-01    3.833634e-01
    3.882644e+00    4.304742e+01    1.037727e+01    5.195129e+08    1.234339e-08    1.183307e-10    1.157235e-08    1.127116e-09    9.600000e-01    4.728860e-01    3.905996e-01
    3.789441e+00    4.064892e+01    1.078304e+01    5.259164e+08    1.236573e-08    1.260976e-10    1.159856e-08    1.129951e-09    9.700000e-01    4.728860e-01    3.978118e-01
    3.700425e+00    3.834956e+01    1.119448e+01    5.322085e+08    1.238779e-08    1.344019e-10    1.162386e-08    1.132806e-09    9.800000e-01    4.728860e-01    4.050015e-01
    3.615278e+00    3.614648e+01    1.161150e+01    5.383839e+08    1.240961e-08    1.432819e-10    1.164826e-08    1.135688e-09    9.900000e-01    4.728860e-01    4.121701e-01
    3.533712e+00    3.403702e+01    1.203403e+01    5.444364e+08    1.243126e-08    1.527781e-10    1.167181e-08    1.138603e-09    1.000000e+00    4.728860e-01    4.193190e-01
    3.455455e+00    3.201871e+01    1.246196e+01    5.503585e+08    1.245278e-08    1.629337e-10    1.169451e-08    1.141559e-09    1.010000e+00    4.728860e-01    4.264494e-01
    3.380257e+00    3.008929e+01    1.289522e+01    5.561412e+08    1.247423e-08    1.737943e-10    1.171639e-08    1.144562e-09    1.020000e+00    4.728860e-01    4.335627e-01
    3.307885e+00    2.824662e+01    1.333372e+01    5.617748e+08    1.249567e-08    1.854083e-10    1.173745e-08    1.147620e-09    1.030000e+00    4.728860e-01    4.406599e-01
    3.238125e+00    2.648870e+01    1.377732e+01    5.672487e+08    1.251714e-08    1.978270e-10    1.175771e-08    1.150739e-09    1.040000e+00    4.728860e-01    4.477423e-01
    3.170776e+00    2.481366e+01    1.422593e+01    5.725505e+08    1.253870e-08    2.111044e-10    1.177718e-08    1.153926e-09    1.050000e+00    4.728860e-01    4.548107e-01
    3.105653e+00    2.321968e+01    1.467942e+01    5.776678e+08    1.256041e-08    2.252968e-10    1.179586e-08    1.157188e-09    1.060000e+00    4.728860e-01    4.618662e-01
    3.042581e+00    2.170504e+01    1.513767e+01    5.825867e+08    1.258232e-08    2.404637e-10    1.181376e-08    1.160532e-09    1.070000e+00    4.728860e-01    4.689098e-01
    2.981399e+00    2.026804e+01    1.560052e+01    5.872928e+08    1.260448e-08    2.566671e-10    1.183087e-08    1.163964e-09    1.080000e+00    4.728860e-01    4.759422e-01
    2.921958e+00    1.890699e+01    1.606784e+01    5.917711e+08    1.262694e-08    2.739711e-10    1.184719e-08    1.167492e-09    1.090000e+00    4.728860e-01    4.829643e-01
    2.864118e+00    1.762019e+01    1.653946e+01    5.960052e+08    1.264976e-08    2.924426e-10    1.186271e-08    1.171121e-09    1.100000e+00    4.728860e-01    4.899770e-01
    2.807750e+00    1.640593e+01    1.701520e+01    5.999793e+08    1.267300e-08    3.121498e-10    1.187743e-08    1.174860e-09    1.110000e+00    4.728860e-01    4.969808e-01
    2.752735e+00    1.526240e+01    1.749489e+01    6.036769e+08    1.269671e-08    3.331632e-10    1.189133e-08    1.178712e-09    1.120000e+00    4.728860e-01    5.039766e-01
    2.698963e+00    1.418777e+01    1.797831e+01    6.070815e+08    1.272093e-08    3.555542e-10    1.190442e-08    1.182687e-09    1.130000e+00    4.728860e-01    5.109649e-01
    2.646334e+00    1.318009e+01    1.846527e+01    6.101772e+08    1.274573e-08    3.793951e-10    1.191666e-08    1.186788e-09    1.140000e+00    4.728860e-01    5.179464e-01
    2.594760e+00    1.223732e+01    1.895554e+01    6.129483e+08    1.277114e-08    4.047584e-10    1.192804e-08    1.191023e-09    1.150000e+00    4.728860e-01    5.249216e-01
    2.544161e+00    1.135730e+01    1.944889e+01    6.153804e+08    1.279723e-08    4.317161e-10    1.193853e-08    1.195396e-09    1.160000e+00    4.728860e-01    5.318910e-01
    2.494466e+00    1.053777e+01    1.994508e+01    6.174605e+08    1.282403e-08    4.603390e-10    1.194815e-08    1.199912e-09    1.170000e+00    4.728860e-01    5.388553e-01
    2.445619e+00    9.776323e+00    2.044385e+01    6.191770e+08    1.285159e-08    4.906959e-10    1.195683e-08    1.204576e-09    1.180000e+00    4.728860e-01    5.458149e-01
    2.397571e+00    9.070474e+00    2.094495e+01    6.205213e+08    1.287995e-08    5.228530e-10    1.196458e-08    1.209392e-09    1.190000e+00    4.728860e-01    5.527702e-01
    2.350287e+00    8.417625e+00    2.144810e+01    6.214871e+08    1.290915e-08    5.568715e-10    1.197137e-08    1.214364e-09    1.200000e+00    4.728860e-01    5.597218e-01
    2.303738e+00    7.815057e+00    2.195304e+01    6.220703e+08    1.293923e-08    5.928095e-10    1.197718e-08    1.219493e-09    1.210000e+00    4.728860e-01    5.666699e-01
    2.257910e+00    7.260031e+00    2.245949e+01    6.222713e+08    1.297021e-08    6.307175e-10    1.198198e-08    1.224783e-09    1.220000e+00    4.728860e-01    5.736151e-01
