# sky130 nfet_01v8 gm/ID Processed Lookup Table
# Corner: tt
# Temperature: 85C
# W = 2.0 um
# L = 6 um (6000 nm)
# Columns: gm/id [1/V]  gm/gds [V/V]  id/W [A/m]  ft [Hz]  Cgg/W [F/m]  Cgd/W [F/m]  Cgs/W [F/m]  Cdb/W [F/m]  vgs [V]  vth [V]  vdsat [V]
# vdsat = BSIM4 saturation voltage (|VDS|_sat, positive); use for headroom / saturation / cascode-bias calculations
#           gm/id          gm/gds            id/W              ft           Cgg/W           Cgd/W           Cgs/W           Cdb/W             vgs             vth           vdsat
    2.209514e+01    2.468779e+02    3.864872e-05    8.723007e+03    1.558066e-08    2.581267e-12    6.195175e-09    8.901505e-10    1.700000e-01    4.745182e-01    4.523397e-02
    2.208990e+01    2.464758e+02    4.820433e-05    1.069995e+04    1.583864e-08    2.764220e-12    6.591715e-09    9.364595e-10    1.800000e-01    4.745182e-01    4.524317e-02
    2.207361e+01    2.460397e+02    6.011595e-05    1.310902e+04    1.611065e-08    2.960121e-12    7.004750e-09    9.841950e-10    1.900000e-01    4.745182e-01    4.525464e-02
    2.204736e+01    2.455691e+02    7.495500e-05    1.604089e+04    1.639641e-08    3.169827e-12    7.433935e-09    1.033293e-09    2.000000e-01    4.745182e-01    4.526892e-02
    2.201198e+01    2.450634e+02    9.342805e-05    1.960442e+04    1.669562e-08    3.394242e-12    7.878815e-09    1.083679e-09    2.100000e-01    4.745182e-01    4.528668e-02
    2.196806e+01    2.445237e+02    1.164077e-04    2.393010e+04    1.700784e-08    3.634322e-12    8.338825e-09    1.135270e-09    2.200000e-01    4.745182e-01    4.530876e-02
    2.191608e+01    2.439515e+02    1.449699e-04    2.917411e+04    1.733258e-08    3.891078e-12    8.813295e-09    1.187973e-09    2.300000e-01    4.745182e-01    4.533618e-02
    2.185636e+01    2.433501e+02    1.804393e-04    3.552315e+04    1.766924e-08    4.165579e-12    9.301445e-09    1.241685e-09    2.400000e-01    4.745182e-01    4.537018e-02
    2.178920e+01    2.427242e+02    2.244446e-04    4.320002e+04    1.801717e-08    4.458953e-12    9.802400e-09    1.296296e-09    2.500000e-01    4.745182e-01    4.541229e-02
    2.171484e+01    2.420810e+02    2.789841e-04    5.247042e+04    1.837560e-08    4.772391e-12    1.031519e-08    1.351688e-09    2.600000e-01    4.745182e-01    4.546439e-02
    2.163354e+01    2.414300e+02    3.465067e-04    6.365064e+04    1.874375e-08    5.107155e-12    1.083875e-08    1.407737e-09    2.700000e-01    4.745182e-01    4.552873e-02
    2.154558e+01    2.407839e+02    4.300077e-04    7.711705e+04    1.912072e-08    5.464570e-12    1.137193e-08    1.464315e-09    2.800000e-01    4.745182e-01    4.560806e-02
    2.145137e+01    2.401596e+02    5.331450e-04    9.331725e+04    1.950556e-08    5.846050e-12    1.191355e-08    1.521286e-09    2.900000e-01    4.745182e-01    4.570568e-02
    2.135137e+01    2.395773e+02    6.603775e-04    1.127830e+05    1.989733e-08    6.253070e-12    1.246233e-08    1.578517e-09    3.000000e-01    4.745182e-01    4.582558e-02
    2.124621e+01    2.390632e+02    8.171340e-04    1.361465e+05    2.029497e-08    6.687210e-12    1.301697e-08    1.635868e-09    3.100000e-01    4.745182e-01    4.597250e-02
    2.113659e+01    2.386479e+02    1.010015e-03    1.641594e+05    2.069746e-08    7.150125e-12    1.357613e-08    1.693205e-09    3.200000e-01    4.745182e-01    4.615208e-02
    2.102341e+01    2.383684e+02    1.247034e-03    1.977165e+05    2.110371e-08    7.643575e-12    1.413845e-08    1.750389e-09    3.300000e-01    4.745182e-01    4.637099e-02
    2.090770e+01    2.382677e+02    1.537911e-03    2.378831e+05    2.151266e-08    8.169410e-12    1.470258e-08    1.807288e-09    3.400000e-01    4.745182e-01    4.663705e-02
    2.079055e+01    2.383952e+02    1.894429e-03    2.859302e+05    2.192322e-08    8.729605e-12    1.526717e-08    1.863772e-09    3.500000e-01    4.745182e-01    4.695938e-02
    2.067312e+01    2.388060e+02    2.330855e-03    3.433745e+05    2.233435e-08    9.326235e-12    1.583089e-08    1.919715e-09    3.600000e-01    4.745182e-01    4.734852e-02
    2.055648e+01    2.395608e+02    2.864467e-03    4.120281e+05    2.274500e-08    9.961510e-12    1.639242e-08    1.975000e-09    3.700000e-01    4.745182e-01    4.781653e-02
    2.044158e+01    2.407243e+02    3.516165e-03    4.940544e+05    2.315416e-08    1.063777e-11    1.695055e-08    2.029513e-09    3.800000e-01    4.745182e-01    4.837712e-02
    2.032898e+01    2.423632e+02    4.311222e-03    5.920319e+05    2.356086e-08    1.135748e-11    1.750404e-08    2.083152e-09    3.900000e-01    4.745182e-01    4.904565e-02
    2.021883e+01    2.445448e+02    5.280170e-03    7.090253e+05    2.396417e-08    1.212329e-11    1.805177e-08    2.135819e-09    4.000000e-01    4.745182e-01    4.983920e-02
    2.011055e+01    2.473324e+02    6.459840e-03    8.486549e+05    2.436323e-08    1.293797e-11    1.859268e-08    2.187426e-09    4.100000e-01    4.745182e-01    5.077645e-02
    2.000282e+01    2.507828e+02    7.894540e-03    1.015165e+06    2.475721e-08    1.380451e-11    1.912576e-08    2.237897e-09    4.200000e-01    4.745182e-01    5.187755e-02
    1.989332e+01    2.549412e+02    9.637435e-03    1.213475e+06    2.514537e-08    1.472605e-11    1.965013e-08    2.287162e-09    4.300000e-01    4.745182e-01    5.316395e-02
    1.977883e+01    2.598370e+02    1.175198e-02    1.449211e+06    2.552702e-08    1.570593e-11    2.016495e-08    2.335163e-09    4.400000e-01    4.745182e-01    5.465802e-02
    1.965517e+01    2.654794e+02    1.431347e-02    1.728687e+06    2.590153e-08    1.674773e-11    2.066948e-08    2.381849e-09    4.500000e-01    4.745182e-01    5.638265e-02
    1.951746e+01    2.718527e+02    1.741058e-02    2.058846e+06    2.626836e-08    1.785525e-11    2.116308e-08    2.427180e-09    4.600000e-01    4.745182e-01    5.836073e-02
    1.936034e+01    2.789132e+02    2.114673e-02    2.447113e+06    2.662701e-08    1.903252e-11    2.164519e-08    2.471125e-09    4.700000e-01    4.745182e-01    6.061460e-02
    1.917838e+01    2.865872e+02    2.564125e-02    2.901191e+06    2.697708e-08    2.028385e-11    2.211535e-08    2.513660e-09    4.800000e-01    4.745182e-01    6.316532e-02
    1.896649e+01    2.947703e+02    3.102996e-02    3.428753e+06    2.731820e-08    2.161386e-11    2.257315e-08    2.554773e-09    4.900000e-01    4.745182e-01    6.603208e-02
    1.872033e+01    3.033285e+02    3.746539e-02    4.037078e+06    2.765011e-08    2.302742e-11    2.301830e-08    2.594455e-09    5.000000e-01    4.745182e-01    6.923145e-02
    1.843675e+01    3.121025e+02    4.511592e-02    4.732625e+06    2.797256e-08    2.452978e-11    2.345056e-08    2.632709e-09    5.100000e-01    4.745182e-01    7.277680e-02
    1.811396e+01    3.209117e+02    5.416430e-02    5.520573e+06    2.828542e-08    2.612654e-11    2.386978e-08    2.669541e-09    5.200000e-01    4.745182e-01    7.667775e-02
    1.775176e+01    3.295621e+02    6.480500e-02    6.404396e+06    2.858854e-08    2.782366e-11    2.427588e-08    2.704964e-09    5.300000e-01    4.745182e-01    8.093977e-02
    1.735148e+01    3.378538e+02    7.724095e-02    7.385479e+06    2.888189e-08    2.962754e-11    2.466882e-08    2.738999e-09    5.400000e-01    4.745182e-01    8.556391e-02
    1.691590e+01    3.455904e+02    9.167915e-02    8.462856e+06    2.916546e-08    3.154502e-11    2.504865e-08    2.771668e-09    5.500000e-01    4.745182e-01    9.054673e-02
    1.644902e+01    3.525866e+02    1.083258e-01    9.633071e+06    2.943929e-08    3.358341e-11    2.541546e-08    2.803002e-09    5.600000e-01    4.745182e-01    9.588038e-02
    1.595568e+01    3.586770e+02    1.273816e-01    1.089019e+07    2.970344e-08    3.575055e-11    2.576938e-08    2.833032e-09    5.700000e-01    4.745182e-01    1.015529e-01
    1.544141e+01    3.637209e+02    1.490359e-01    1.222601e+07    2.995802e-08    3.805484e-11    2.611060e-08    2.861792e-09    5.800000e-01    4.745182e-01    1.075486e-01
    1.491194e+01    3.676088e+02    1.734630e-01    1.363039e+07    3.020319e-08    4.050528e-11    2.643932e-08    2.889322e-09    5.900000e-01    4.745182e-01    1.138486e-01
    1.437305e+01    3.702636e+02    2.008172e-01    1.509169e+07    3.043911e-08    4.311153e-11    2.675580e-08    2.915661e-09    6.000000e-01    4.745182e-01    1.204314e-01
    1.383026e+01    3.716425e+02    2.312299e-01    1.659731e+07    3.066597e-08    4.588396e-11    2.706031e-08    2.940853e-09    6.100000e-01    4.745182e-01    1.272737e-01
    1.328868e+01    3.717344e+02    2.648077e-01    1.813422e+07    3.088400e-08    4.883368e-11    2.735316e-08    2.964940e-09    6.200000e-01    4.745182e-01    1.343511e-01
    1.275287e+01    3.705586e+02    3.016313e-01    1.968956e+07    3.109342e-08    5.197265e-11    2.763467e-08    2.987967e-09    6.300000e-01    4.745182e-01    1.416384e-01
    1.222682e+01    3.681604e+02    3.417550e-01    2.125105e+07    3.129449e-08    5.531370e-11    2.790516e-08    3.009978e-09    6.400000e-01    4.745182e-01    1.491106e-01
    1.171381e+01    3.646057e+02    3.852086e-01    2.280743e+07    3.148747e-08    5.887060e-11    2.816498e-08    3.031020e-09    6.500000e-01    4.745182e-01    1.567432e-01
    1.121653e+01    3.599777e+02    4.319988e-01    2.434876e+07    3.167262e-08    6.265825e-11    2.841450e-08    3.051138e-09    6.600000e-01    4.745182e-01    1.645127e-01
    1.073703e+01    3.543708e+02    4.821112e-01    2.586659e+07    3.185023e-08    6.669260e-11    2.865405e-08    3.070377e-09    6.700000e-01    4.745182e-01    1.723969e-01
    1.027685e+01    3.478867e+02    5.355145e-01    2.735409e+07    3.202056e-08    7.099080e-11    2.888402e-08    3.088783e-09    6.800000e-01    4.745182e-01    1.803755e-01
    9.836970e+00    3.406296e+02    5.921615e-01    2.880599e+07    3.218391e-08    7.557140e-11    2.910475e-08    3.106398e-09    6.900000e-01    4.745182e-01    1.884295e-01
    9.417963e+00    3.327039e+02    6.519950e-01    3.021856e+07    3.234056e-08    8.045430e-11    2.931661e-08    3.123268e-09    7.000000e-01    4.745182e-01    1.965421e-01
    9.020040e+00    3.242103e+02    7.149475e-01    3.158947e+07    3.249081e-08    8.566095e-11    2.951995e-08    3.139436e-09    7.100000e-01    4.745182e-01    2.046983e-01
    8.643103e+00    3.152448e+02    7.809470e-01    3.291766e+07    3.263491e-08    9.121450e-11    2.971513e-08    3.154942e-09    7.200000e-01    4.745182e-01    2.128850e-01
    8.286788e+00    3.058963e+02    8.499180e-01    3.420306e+07    3.277317e-08    9.713995e-11    2.990249e-08    3.169829e-09    7.300000e-01    4.745182e-01    2.210907e-01
    7.950549e+00    2.962461e+02    9.217835e-01    3.544647e+07    3.290586e-08    1.034642e-10    3.008236e-08    3.184137e-09    7.400000e-01    4.745182e-01    2.293058e-01
    7.633714e+00    2.863684e+02    9.964665e-01    3.664944e+07    3.303325e-08    1.102161e-10    3.025508e-08    3.197904e-09    7.500000e-01    4.745182e-01    2.375222e-01
    7.335468e+00    2.763286e+02    1.073894e+00    3.781397e+07    3.315562e-08    1.174273e-10    3.042095e-08    3.211168e-09    7.600000e-01    4.745182e-01    2.457332e-01
    7.054950e+00    2.661848e+02    1.153994e+00    3.894242e+07    3.327321e-08    1.251312e-10    3.058029e-08    3.223968e-09    7.700000e-01    4.745182e-01    2.539334e-01
    6.791242e+00    2.559879e+02    1.236700e+00    4.003733e+07    3.338630e-08    1.333646e-10    3.073340e-08    3.236338e-09    7.800000e-01    4.745182e-01    2.621184e-01
    6.543413e+00    2.457826e+02    1.321948e+00    4.110145e+07    3.349514e-08    1.421667e-10    3.088056e-08    3.248313e-09    7.900000e-01    4.745182e-01    2.702851e-01
    6.310526e+00    2.356071e+02    1.409682e+00    4.213741e+07    3.359998e-08    1.515800e-10    3.102204e-08    3.259929e-09    8.000000e-01    4.745182e-01    2.784310e-01
    6.091654e+00    2.254948e+02    1.499848e+00    4.314784e+07    3.370105e-08    1.616504e-10    3.115810e-08    3.271217e-09    8.100000e-01    4.745182e-01    2.865544e-01
    5.885903e+00    2.154748e+02    1.592398e+00    4.413530e+07    3.379861e-08    1.724274e-10    3.128901e-08    3.282211e-09    8.200000e-01    4.745182e-01    2.946543e-01
    5.692393e+00    2.055719e+02    1.687288e+00    4.510205e+07    3.389286e-08    1.839645e-10    3.141499e-08    3.292942e-09    8.300000e-01    4.745182e-01    3.027302e-01
    5.510303e+00    1.958083e+02    1.784480e+00    4.605028e+07    3.398404e-08    1.963193e-10    3.153627e-08    3.303440e-09    8.400000e-01    4.745182e-01    3.107821e-01
    5.338835e+00    1.862034e+02    1.883938e+00    4.698193e+07    3.407238e-08    2.095543e-10    3.165307e-08    3.313735e-09    8.500000e-01    4.745182e-01    3.188103e-01
    5.177241e+00    1.767743e+02    1.985631e+00    4.789869e+07    3.415808e-08    2.237364e-10    3.176559e-08    3.323859e-09    8.600000e-01    4.745182e-01    3.268153e-01
    5.024814e+00    1.675362e+02    2.089531e+00    4.880204e+07    3.424136e-08    2.389381e-10    3.187403e-08    3.333837e-09    8.700000e-01    4.745182e-01    3.347979e-01
    4.880894e+00    1.585036e+02    2.195613e+00    4.969325e+07    3.432243e-08    2.552377e-10    3.197855e-08    3.343702e-09    8.800000e-01    4.745182e-01    3.427591e-01
    4.744862e+00    1.496890e+02    2.303855e+00    5.057335e+07    3.440149e-08    2.727191e-10    3.207934e-08    3.353479e-09    8.900000e-01    4.745182e-01    3.507001e-01
    4.616139e+00    1.411044e+02    2.414236e+00    5.144313e+07    3.447874e-08    2.914729e-10    3.217655e-08    3.363196e-09    9.000000e-01    4.745182e-01    3.586221e-01
    4.494190e+00    1.327607e+02    2.526738e+00    5.230324e+07    3.455438e-08    3.115967e-10    3.227032e-08    3.372883e-09    9.100000e-01    4.745182e-01    3.665262e-01
    4.378515e+00    1.246682e+02    2.641343e+00    5.315408e+07    3.462862e-08    3.331951e-10    3.236080e-08    3.382564e-09    9.200000e-01    4.745182e-01    3.744139e-01
    4.268647e+00    1.168363e+02    2.758036e+00    5.399584e+07    3.470164e-08    3.563805e-10    3.244810e-08    3.392269e-09    9.300000e-01    4.745182e-01    3.822864e-01
    4.164157e+00    1.092738e+02    2.876800e+00    5.482857e+07    3.477362e-08    3.812735e-10    3.253233e-08    3.402024e-09    9.400000e-01    4.745182e-01    3.901451e-01
    4.064644e+00    1.019884e+02    2.997619e+00    5.565208e+07    3.484478e-08    4.080034e-10    3.261362e-08    3.411857e-09    9.500000e-01    4.745182e-01    3.979912e-01
    3.969739e+00    9.498746e+01    3.120480e+00    5.646609e+07    3.491530e-08    4.367082e-10    3.269203e-08    3.421794e-09    9.600000e-01    4.745182e-01    4.058260e-01
    3.879096e+00    8.827689e+01    3.245364e+00    5.727005e+07    3.498536e-08    4.675354e-10    3.276766e-08    3.431863e-09    9.700000e-01    4.745182e-01    4.136508e-01
    3.792394e+00    8.186198e+01    3.372255e+00    5.806332e+07    3.505518e-08    5.006415e-10    3.284058e-08    3.442092e-09    9.800000e-01    4.745182e-01    4.214666e-01
    3.709336e+00    7.574671e+01    3.501136e+00    5.884505e+07    3.512492e-08    5.361945e-10    3.291085e-08    3.452508e-09    9.900000e-01    4.745182e-01    4.292747e-01
    3.629646e+00    6.993402e+01    3.631987e+00    5.961426e+07    3.519480e-08    5.743700e-10    3.297853e-08    3.463138e-09    1.000000e+00    4.745182e-01    4.370762e-01
    3.553062e+00    6.442553e+01    3.764785e+00    6.036975e+07    3.526499e-08    6.153555e-10    3.304364e-08    3.474011e-09    1.010000e+00    4.745182e-01    4.448721e-01
    3.479341e+00    5.922157e+01    3.899508e+00    6.111014e+07    3.533570e-08    6.593475e-10    3.310623e-08    3.485153e-09    1.020000e+00    4.745182e-01    4.526633e-01
    3.408259e+00    5.432118e+01    4.036130e+00    6.183397e+07    3.540713e-08    7.065535e-10    3.316631e-08    3.496595e-09    1.030000e+00    4.745182e-01    4.604507e-01
    3.339600e+00    4.972193e+01    4.174622e+00    6.253954e+07    3.547946e-08    7.571890e-10    3.322390e-08    3.508362e-09    1.040000e+00    4.745182e-01    4.682354e-01
    3.273162e+00    4.542001e+01    4.314950e+00    6.322493e+07    3.555290e-08    8.114795e-10    3.327901e-08    3.520483e-09    1.050000e+00    4.745182e-01    4.760181e-01
    3.208757e+00    4.141025e+01    4.457079e+00    6.388815e+07    3.562764e-08    8.696565e-10    3.333161e-08    3.532983e-09    1.060000e+00    4.745182e-01    4.837995e-01
    3.146205e+00    3.768609e+01    4.600970e+00    6.452695e+07    3.570388e-08    9.319610e-10    3.338171e-08    3.545892e-09    1.070000e+00    4.745182e-01    4.915804e-01
    3.085340e+00    3.423968e+01    4.746576e+00    6.513904e+07    3.578180e-08    9.986370e-10    3.342926e-08    3.559235e-09    1.080000e+00    4.745182e-01    4.993615e-01
    3.026002e+00    3.106194e+01    4.893848e+00    6.572188e+07    3.586162e-08    1.069933e-09    3.347425e-08    3.573037e-09    1.090000e+00    4.745182e-01    5.071435e-01
    2.968045e+00    2.814262e+01    5.042730e+00    6.627292e+07    3.594349e-08    1.146101e-09    3.351664e-08    3.587324e-09    1.100000e+00    4.745182e-01    5.149269e-01
    2.911326e+00    2.547052e+01    5.193170e+00    6.678947e+07    3.602762e-08    1.227388e-09    3.355637e-08    3.602117e-09    1.110000e+00    4.745182e-01    5.227123e-01
    2.855726e+00    2.303350e+01    5.345090e+00    6.726890e+07    3.611416e-08    1.314040e-09    3.359339e-08    3.617440e-09    1.120000e+00    4.745182e-01    5.305002e-01
    2.801130e+00    2.081874e+01    5.498425e+00    6.770859e+07    3.620329e-08    1.406297e-09    3.362766e-08    3.633311e-09    1.130000e+00    4.745182e-01    5.382911e-01
    2.747436e+00    1.881279e+01    5.653100e+00    6.810606e+07    3.629515e-08    1.504386e-09    3.365911e-08    3.649749e-09    1.140000e+00    4.745182e-01    5.460855e-01
    2.694559e+00    1.700191e+01    5.809030e+00    6.845902e+07    3.638989e-08    1.608523e-09    3.368768e-08    3.666768e-09    1.150000e+00    4.745182e-01    5.538838e-01
    2.642432e+00    1.537210e+01    5.966125e+00    6.876549e+07    3.648764e-08    1.718902e-09    3.371332e-08    3.684384e-09    1.160000e+00    4.745182e-01    5.616864e-01
    2.591000e+00    1.390935e+01    6.124300e+00    6.902390e+07    3.658849e-08    1.835700e-09    3.373595e-08    3.702603e-09    1.170000e+00    4.745182e-01    5.694937e-01
    2.540227e+00    1.259982e+01    6.283455e+00    6.923308e+07    3.669253e-08    1.959062e-09    3.375552e-08    3.721433e-09    1.180000e+00    4.745182e-01    5.773061e-01
    2.490095e+00    1.142999e+01    6.443495e+00    6.939240e+07    3.679982e-08    2.089108e-09    3.377199e-08    3.740876e-09    1.190000e+00    4.745182e-01    5.851238e-01
    2.440600e+00    1.038681e+01    6.604320e+00    6.950182e+07    3.691040e-08    2.225920e-09    3.378529e-08    3.760934e-09    1.200000e+00    4.745182e-01    5.929472e-01
    2.391755e+00    9.457855e+00    6.765830e+00    6.956188e+07    3.702427e-08    2.369542e-09    3.379539e-08    3.781600e-09    1.210000e+00    4.745182e-01    6.007766e-01
    2.343580e+00    8.631384e+00    6.927930e+00    6.957366e+07    3.714143e-08    2.519980e-09    3.380227e-08    3.802866e-09    1.220000e+00    4.745182e-01    6.086122e-01
    2.296110e+00    7.896460e+00    7.090525e+00    6.953878e+07    3.726183e-08    2.677192e-09    3.380589e-08    3.824722e-09    1.230000e+00    4.745182e-01    6.164544e-01
    2.249385e+00    7.242973e+00    7.253515e+00    6.945933e+07    3.738538e-08    2.841094e-09    3.380626e-08    3.847151e-09    1.240000e+00    4.745182e-01    6.243033e-01
    2.203449e+00    6.661685e+00    7.416810e+00    6.933782e+07    3.751198e-08    3.011554e-09    3.380339e-08    3.870133e-09    1.250000e+00    4.745182e-01    6.321592e-01
