# sky130 nfet_01v8 gm/ID Processed Lookup Table
# Corner: tt
# Temperature: 85C
# W = 2.0 um
# L = 2.5 um (2500 nm)
# Columns: gm/id [1/V]  gm/gds [V/V]  id/W [A/m]  ft [Hz]  Cgg/W [F/m]  Cgd/W [F/m]  Cgs/W [F/m]  Cdb/W [F/m]  vgs [V]  vth [V]  vdsat [V]
# vdsat = BSIM4 saturation voltage (|VDS|_sat, positive); use for headroom / saturation / cascode-bias calculations
#           gm/id          gm/gds            id/W              ft           Cgg/W           Cgd/W           Cgs/W           Cdb/W             vgs             vth           vdsat
    2.207439e+01    1.534849e+02    5.486230e-05    3.036261e+04    6.348100e-09    8.900040e-13    2.286741e-09    3.300102e-10    1.600000e-01    4.875438e-01    4.520337e-02
    2.206832e+01    1.532872e+02    6.841190e-05    3.729174e+04    6.443300e-09    9.522045e-13    2.437037e-09    3.476243e-10    1.700000e-01    4.875438e-01    4.520852e-02
    2.205414e+01    1.530707e+02    8.529925e-05    4.574950e+04    6.544390e-09    1.018770e-12    2.594274e-09    3.658530e-10    1.800000e-01    4.875438e-01    4.521492e-02
    2.203257e+01    1.528345e+02    1.063362e-04    5.606055e+04    6.651335e-09    1.089985e-12    2.758406e-09    3.846795e-10    1.900000e-01    4.875438e-01    4.522290e-02
    2.200409e+01    1.525775e+02    1.325281e-04    6.861555e+04    6.764080e-09    1.166155e-12    2.929340e-09    4.040831e-10    2.000000e-01    4.875438e-01    4.523283e-02
    2.196902e+01    1.522989e+02    1.651188e-04    8.388410e+04    6.882525e-09    1.247598e-12    3.106947e-09    4.240386e-10    2.100000e-01    4.875438e-01    4.524519e-02
    2.192759e+01    1.519984e+02    2.056455e-04    1.024299e+05    7.006540e-09    1.334652e-12    3.291049e-09    4.445172e-10    2.200000e-01    4.875438e-01    4.526054e-02
    2.187990e+01    1.516755e+02    2.560048e-04    1.249282e+05    7.135970e-09    1.427671e-12    3.481422e-09    4.654857e-10    2.300000e-01    4.875438e-01    4.527960e-02
    2.182602e+01    1.513309e+02    3.185346e-04    1.521881e+05    7.270605e-09    1.527033e-12    3.677803e-09    4.869072e-10    2.400000e-01    4.875438e-01    4.530325e-02
    2.176593e+01    1.509655e+02    3.961116e-04    1.851756e+05    7.410220e-09    1.633132e-12    3.879881e-09    5.087415e-10    2.500000e-01    4.875438e-01    4.533255e-02
    2.169963e+01    1.505811e+02    4.922707e-04    2.250443e+05    7.554545e-09    1.746384e-12    4.087306e-09    5.309445e-10    2.600000e-01    4.875438e-01    4.536883e-02
    2.162711e+01    1.501807e+02    6.113490e-04    2.731692e+05    7.703285e-09    1.867228e-12    4.299688e-09    5.534700e-10    2.700000e-01    4.875438e-01    4.541368e-02
    2.154844e+01    1.497684e+02    7.586575e-04    3.311877e+05    7.856110e-09    1.996126e-12    4.516602e-09    5.762675e-10    2.800000e-01    4.875438e-01    4.546905e-02
    2.146367e+01    1.493501e+02    9.406925e-04    4.010465e+05    8.012665e-09    2.133567e-12    4.737589e-09    5.992870e-10    2.900000e-01    4.875438e-01    4.553731e-02
    2.137300e+01    1.489333e+02    1.165382e-03    4.850596e+05    8.172575e-09    2.280063e-12    4.962160e-09    6.224745e-10    3.000000e-01    4.875438e-01    4.562129e-02
    2.127670e+01    1.485278e+02    1.442391e-03    5.859744e+05    8.335445e-09    2.436155e-12    5.189805e-09    6.457755e-10    3.100000e-01    4.875438e-01    4.572445e-02
    2.117518e+01    1.481459e+02    1.783479e-03    7.070539e+05    8.500855e-09    2.602411e-12    5.419995e-09    6.691350e-10    3.200000e-01    4.875438e-01    4.585087e-02
    2.106898e+01    1.478027e+02    2.202934e-03    8.521718e+05    8.668380e-09    2.779433e-12    5.652185e-09    6.924985e-10    3.300000e-01    4.875438e-01    4.600548e-02
    2.095880e+01    1.475164e+02    2.718097e-03    1.025931e+06    8.837580e-09    2.967854e-12    5.885820e-09    7.158105e-10    3.400000e-01    4.875438e-01    4.619407e-02
    2.084549e+01    1.473085e+02    3.349984e-03    1.233802e+06    9.008020e-09    3.168342e-12    6.120345e-09    7.390170e-10    3.500000e-01    4.875438e-01    4.642349e-02
    2.073001e+01    1.472038e+02    4.124045e-03    1.482299e+06    9.179250e-09    3.381599e-12    6.355205e-09    7.620665e-10    3.600000e-01    4.875438e-01    4.670176e-02
    2.061345e+01    1.472310e+02    5.071070e-03    1.779179e+06    9.350845e-09    3.608371e-12    6.589850e-09    7.849070e-10    3.700000e-01    4.875438e-01    4.703818e-02
    2.049689e+01    1.474213e+02    6.228300e-03    2.133699e+06    9.522360e-09    3.849441e-12    6.823745e-09    8.074910e-10    3.800000e-01    4.875438e-01    4.744349e-02
    2.038138e+01    1.478087e+02    7.640735e-03    2.556896e+06    9.693390e-09    4.105638e-12    7.056365e-09    8.297725e-10    3.900000e-01    4.875438e-01    4.792996e-02
    2.026777e+01    1.484292e+02    9.362735e-03    3.061942e+06    9.863520e-09    4.377838e-12    7.287220e-09    8.517085e-10    4.000000e-01    4.875438e-01    4.851147e-02
    2.015661e+01    1.493191e+02    1.145994e-02    3.664512e+06    1.003237e-08    4.666967e-12    7.515830e-09    8.732595e-10    4.100000e-01    4.875438e-01    4.920356e-02
    2.004792e+01    1.505136e+02    1.401149e-02    4.383207e+06    1.019957e-08    4.974005e-12    7.741750e-09    8.943895e-10    4.200000e-01    4.875438e-01    5.002343e-02
    1.994113e+01    1.520449e+02    1.711272e-02    5.239972e+06    1.036477e-08    5.299990e-12    7.964565e-09    9.150655e-10    4.300000e-01    4.875438e-01    5.098986e-02
    1.983481e+01    1.539397e+02    2.087813e-02    6.260478e+06    1.052767e-08    5.646015e-12    8.183885e-09    9.352600e-10    4.400000e-01    4.875438e-01    5.212308e-02
    1.972668e+01    1.562165e+02    2.544483e-02    7.474443e+06    1.068796e-08    6.013250e-12    8.399360e-09    9.549470e-10    4.500000e-01    4.875438e-01    5.344450e-02
    1.961350e+01    1.588829e+02    3.097619e-02    8.915758e+06    1.084539e-08    6.402925e-12    8.610685e-09    9.741060e-10    4.600000e-01    4.875438e-01    5.497643e-02
    1.949115e+01    1.619330e+02    3.766577e-02    1.062243e+07    1.099970e-08    6.816350e-12    8.817570e-09    9.927185e-10    4.700000e-01    4.875438e-01    5.674162e-02
    1.935482e+01    1.653451e+02    4.574102e-02    1.263611e+07    1.115069e-08    7.254910e-12    9.019780e-09    1.010772e-09    4.800000e-01    4.875438e-01    5.876274e-02
    1.919927e+01    1.690798e+02    5.546675e-02    1.500130e+07    1.129818e-08    7.720080e-12    9.217105e-09    1.028256e-09    4.900000e-01    4.875438e-01    6.106182e-02
    1.901915e+01    1.730790e+02    6.714800e-02    1.776404e+07    1.144202e-08    8.213435e-12    9.409370e-09    1.045163e-09    5.000000e-01    4.875438e-01    6.365954e-02
    1.880952e+01    1.772672e+02    8.113130e-02    2.097009e+07    1.158206e-08    8.736635e-12    9.596440e-09    1.061490e-09    5.100000e-01    4.875438e-01    6.657459e-02
    1.856611e+01    1.815518e+02    9.780510e-02    2.466271e+07    1.171823e-08    9.291450e-12    9.778210e-09    1.077235e-09    5.200000e-01    4.875438e-01    6.982300e-02
    1.828581e+01    1.858272e+02    1.175975e-01    2.888008e+07    1.185043e-08    9.879770e-12    9.954600e-09    1.092403e-09    5.300000e-01    4.875438e-01    7.341747e-02
    1.796681e+01    1.899779e+02    1.409723e-01    3.365259e+07    1.197861e-08    1.050360e-11    1.012557e-08    1.106995e-09    5.400000e-01    4.875438e-01    7.736691e-02
    1.760886e+01    1.938842e+02    1.684222e-01    3.900025e+07    1.210273e-08    1.116508e-11    1.029108e-08    1.121021e-09    5.500000e-01    4.875438e-01    8.167596e-02
    1.721321e+01    1.974278e+02    2.004601e-01    4.493030e+07    1.222280e-08    1.186649e-11    1.045116e-08    1.134488e-09    5.600000e-01    4.875438e-01    8.634479e-02
    1.678250e+01    2.004972e+02    2.376078e-01    5.143568e+07    1.233880e-08    1.261027e-11    1.060583e-08    1.147407e-09    5.700000e-01    4.875438e-01    9.136901e-02
    1.632053e+01    2.029935e+02    2.803841e-01    5.849407e+07    1.245076e-08    1.339900e-11    1.075513e-08    1.159790e-09    5.800000e-01    4.875438e-01    9.673973e-02
    1.583206e+01    2.048347e+02    3.292916e-01    6.606818e+07    1.255874e-08    1.423546e-11    1.089913e-08    1.171653e-09    5.900000e-01    4.875438e-01    1.024439e-01
    1.532240e+01    2.059590e+02    3.848029e-01    7.410658e+07    1.266277e-08    1.512260e-11    1.103792e-08    1.183009e-09    6.000000e-01    4.875438e-01    1.084647e-01
    1.479721e+01    2.063274e+02    4.473493e-01    8.254614e+07    1.276292e-08    1.606360e-11    1.117159e-08    1.193874e-09    6.100000e-01    4.875438e-01    1.147822e-01
    1.426213e+01    2.059237e+02    5.173100e-01    9.131450e+07    1.285925e-08    1.706181e-11    1.130024e-08    1.204264e-09    6.200000e-01    4.875438e-01    1.213736e-01
    1.372264e+01    2.047537e+02    5.950040e-01    1.003332e+08    1.295188e-08    1.812087e-11    1.142401e-08    1.214198e-09    6.300000e-01    4.875438e-01    1.282147e-01
    1.318382e+01    2.028436e+02    6.806835e-01    1.095216e+08    1.304088e-08    1.924463e-11    1.154301e-08    1.223694e-09    6.400000e-01    4.875438e-01    1.352797e-01
    1.265022e+01    2.002363e+02    7.745340e-01    1.187996e+08    1.312634e-08    2.043724e-11    1.165738e-08    1.232766e-09    6.500000e-01    4.875438e-01    1.425425e-01
    1.212583e+01    1.969892e+02    8.766720e-01    1.280912e+08    1.320838e-08    2.170311e-11    1.176727e-08    1.241436e-09    6.600000e-01    4.875438e-01    1.499772e-01
    1.161400e+01    1.931688e+02    9.871485e-01    1.373265e+08    1.328710e-08    2.304701e-11    1.187280e-08    1.249722e-09    6.700000e-01    4.875438e-01    1.575582e-01
    1.111747e+01    1.888486e+02    1.105954e+00    1.464441e+08    1.336262e-08    2.447400e-11    1.197414e-08    1.257640e-09    6.800000e-01    4.875438e-01    1.652614e-01
    1.063836e+01    1.841049e+02    1.233027e+00    1.553919e+08    1.343504e-08    2.598956e-11    1.207143e-08    1.265209e-09    6.900000e-01    4.875438e-01    1.730640e-01
    1.017823e+01    1.790135e+02    1.368259e+00    1.641279e+08    1.350449e-08    2.759952e-11    1.216481e-08    1.272447e-09    7.000000e-01    4.875438e-01    1.809449e-01
    9.738161e+00    1.736480e+02    1.511502e+00    1.726202e+08    1.357107e-08    2.931015e-11    1.225444e-08    1.279372e-09    7.100000e-01    4.875438e-01    1.888848e-01
    9.318788e+00    1.680776e+02    1.662581e+00    1.808465e+08    1.363491e-08    3.112820e-11    1.234046e-08    1.286000e-09    7.200000e-01    4.875438e-01    1.968667e-01
    8.920369e+00    1.623658e+02    1.821299e+00    1.887933e+08    1.369612e-08    3.306088e-11    1.242303e-08    1.292348e-09    7.300000e-01    4.875438e-01    2.048752e-01
    8.542851e+00    1.565694e+02    1.987442e+00    1.964548e+08    1.375482e-08    3.511596e-11    1.250228e-08    1.298433e-09    7.400000e-01    4.875438e-01    2.128971e-01
    8.185918e+00    1.507382e+02    2.160793e+00    2.038319e+08    1.381111e-08    3.730177e-11    1.257835e-08    1.304271e-09    7.500000e-01    4.875438e-01    2.209209e-01
    7.849071e+00    1.449155e+02    2.341130e+00    2.109311e+08    1.386511e-08    3.962726e-11    1.265138e-08    1.309877e-09    7.600000e-01    4.875438e-01    2.289372e-01
    7.531638e+00    1.391374e+02    2.528235e+00    2.177626e+08    1.391694e-08    4.210207e-11    1.272150e-08    1.315267e-09    7.700000e-01    4.875438e-01    2.369379e-01
    7.232846e+00    1.334337e+02    2.721896e+00    2.243403e+08    1.396669e-08    4.473653e-11    1.278884e-08    1.320455e-09    7.800000e-01    4.875438e-01    2.449164e-01
    6.951840e+00    1.278286e+02    2.921911e+00    2.306800e+08    1.401448e-08    4.754179e-11    1.285354e-08    1.325455e-09    7.900000e-01    4.875438e-01    2.528677e-01
    6.687719e+00    1.223409e+02    3.128088e+00    2.367987e+08    1.406040e-08    5.052980e-11    1.291570e-08    1.330281e-09    8.000000e-01    4.875438e-01    2.607876e-01
    6.439552e+00    1.169853e+02    3.340248e+00    2.427141e+08    1.410456e-08    5.371340e-11    1.297544e-08    1.334948e-09    8.100000e-01    4.875438e-01    2.686733e-01
    6.206410e+00    1.117720e+02    3.558229e+00    2.484439e+08    1.414706e-08    5.710650e-11    1.303288e-08    1.339467e-09    8.200000e-01    4.875438e-01    2.765226e-01
    5.987364e+00    1.067085e+02    3.781877e+00    2.540052e+08    1.418798e-08    6.072390e-11    1.308812e-08    1.343851e-09    8.300000e-01    4.875438e-01    2.843342e-01
    5.781513e+00    1.017992e+02    4.011054e+00    2.594142e+08    1.422743e-08    6.458170e-11    1.314127e-08    1.348112e-09    8.400000e-01    4.875438e-01    2.921073e-01
    5.587981e+00    9.704644e+01    4.245636e+00    2.646860e+08    1.426549e-08    6.869715e-11    1.319241e-08    1.352262e-09    8.500000e-01    4.875438e-01    2.998419e-01
    5.405935e+00    9.245075e+01    4.485509e+00    2.698349e+08    1.430226e-08    7.308870e-11    1.324164e-08    1.356313e-09    8.600000e-01    4.875438e-01    3.075381e-01
    5.234574e+00    8.801133e+01    4.730571e+00    2.748731e+08    1.433781e-08    7.777635e-11    1.328906e-08    1.360275e-09    8.700000e-01    4.875438e-01    3.151966e-01
    5.073143e+00    8.372630e+01    4.980730e+00    2.798119e+08    1.437223e-08    8.278150e-11    1.333473e-08    1.364160e-09    8.800000e-01    4.875438e-01    3.228184e-01
    4.920930e+00    7.959304e+01    5.235905e+00    2.846607e+08    1.440561e-08    8.812730e-11    1.337875e-08    1.367979e-09    8.900000e-01    4.875438e-01    3.304044e-01
    4.777270e+00    7.560841e+01    5.496015e+00    2.894279e+08    1.443801e-08    9.383850e-11    1.342119e-08    1.371740e-09    9.000000e-01    4.875438e-01    3.379559e-01
    4.641531e+00    7.176892e+01    5.761000e+00    2.941203e+08    1.446953e-08    9.994175e-11    1.346211e-08    1.375456e-09    9.100000e-01    4.875438e-01    3.454745e-01
    4.513133e+00    6.807090e+01    6.030795e+00    2.987433e+08    1.450022e-08    1.064657e-10    1.350157e-08    1.379134e-09    9.200000e-01    4.875438e-01    3.529614e-01
    4.391535e+00    6.451063e+01    6.305340e+00    3.033012e+08    1.453017e-08    1.134411e-10    1.353965e-08    1.382787e-09    9.300000e-01    4.875438e-01    3.604183e-01
    4.276233e+00    6.108441e+01    6.584580e+00    3.077968e+08    1.455946e-08    1.209007e-10    1.357639e-08    1.386423e-09    9.400000e-01    4.875438e-01    3.678466e-01
    4.166757e+00    5.778864e+01    6.868465e+00    3.122322e+08    1.458815e-08    1.288802e-10    1.361185e-08    1.390052e-09    9.500000e-01    4.875438e-01    3.752479e-01
    4.062675e+00    5.461987e+01    7.156945e+00    3.166081e+08    1.461631e-08    1.374172e-10    1.364607e-08    1.393682e-09    9.600000e-01    4.875438e-01    3.826237e-01
    3.963581e+00    5.157479e+01    7.449975e+00    3.209241e+08    1.464402e-08    1.465524e-10    1.367910e-08    1.397325e-09    9.700000e-01    4.875438e-01    3.899754e-01
    3.869105e+00    4.865031e+01    7.747505e+00    3.251792e+08    1.467134e-08    1.563290e-10    1.371099e-08    1.400987e-09    9.800000e-01    4.875438e-01    3.973046e-01
    3.778905e+00    4.584361e+01    8.049480e+00    3.293713e+08    1.469834e-08    1.667934e-10    1.374175e-08    1.404681e-09    9.900000e-01    4.875438e-01    4.046126e-01
    3.692661e+00    4.315194e+01    8.355850e+00    3.334975e+08    1.472508e-08    1.779949e-10    1.377144e-08    1.408414e-09    1.000000e+00    4.875438e-01    4.119007e-01
    3.610075e+00    4.057281e+01    8.666565e+00    3.375537e+08    1.475165e-08    1.899859e-10    1.380007e-08    1.412197e-09    1.010000e+00    4.875438e-01    4.191703e-01
    3.530874e+00    3.810390e+01    8.981570e+00    3.415359e+08    1.477808e-08    2.028223e-10    1.382767e-08    1.416037e-09    1.020000e+00    4.875438e-01    4.264225e-01
    3.454804e+00    3.574306e+01    9.300800e+00    3.454383e+08    1.480449e-08    2.165633e-10    1.385425e-08    1.419945e-09    1.030000e+00    4.875438e-01    4.336585e-01
    3.381627e+00    3.348825e+01    9.624195e+00    3.492551e+08    1.483090e-08    2.312714e-10    1.387985e-08    1.423930e-09    1.040000e+00    4.875438e-01    4.408794e-01
    3.311125e+00    3.133752e+01    9.951685e+00    3.529795e+08    1.485740e-08    2.470129e-10    1.390446e-08    1.428002e-09    1.050000e+00    4.875438e-01    4.480862e-01
    3.243092e+00    2.928903e+01    1.028320e+01    3.566040e+08    1.488406e-08    2.638570e-10    1.392811e-08    1.432169e-09    1.060000e+00    4.875438e-01    4.552800e-01
    3.177339e+00    2.734097e+01    1.061865e+01    3.601206e+08    1.491093e-08    2.818771e-10    1.395079e-08    1.436441e-09    1.070000e+00    4.875438e-01    4.624617e-01
    3.113686e+00    2.549155e+01    1.095795e+01    3.635204e+08    1.493810e-08    3.011490e-10    1.397250e-08    1.440828e-09    1.080000e+00    4.875438e-01    4.696320e-01
    3.051969e+00    2.373895e+01    1.130100e+01    3.667942e+08    1.496562e-08    3.217525e-10    1.399326e-08    1.445338e-09    1.090000e+00    4.875438e-01    4.767920e-01
    2.992032e+00    2.208133e+01    1.164771e+01    3.699320e+08    1.499358e-08    3.437696e-10    1.401305e-08    1.449982e-09    1.100000e+00    4.875438e-01    4.839422e-01
    2.933731e+00    2.051679e+01    1.199798e+01    3.729236e+08    1.502203e-08    3.672854e-10    1.403186e-08    1.454768e-09    1.110000e+00    4.875438e-01    4.910835e-01
    2.876933e+00    1.904329e+01    1.235165e+01    3.757583e+08    1.505104e-08    3.923870e-10    1.404968e-08    1.459704e-09    1.120000e+00    4.875438e-01    4.982165e-01
    2.821513e+00    1.765870e+01    1.270863e+01    3.784251e+08    1.508068e-08    4.191632e-10    1.406651e-08    1.464801e-09    1.130000e+00    4.875438e-01    5.053418e-01
    2.767357e+00    1.636072e+01    1.306875e+01    3.809133e+08    1.511101e-08    4.477038e-10    1.408232e-08    1.470065e-09    1.140000e+00    4.875438e-01    5.124601e-01
    2.714359e+00    1.514692e+01    1.343190e+01    3.832117e+08    1.514210e-08    4.780993e-10    1.409710e-08    1.475506e-09    1.150000e+00    4.875438e-01    5.195720e-01
    2.662429e+00    1.401466e+01    1.379788e+01    3.853099e+08    1.517401e-08    5.104395e-10    1.411083e-08    1.481130e-09    1.160000e+00    4.875438e-01    5.266778e-01
    2.611479e+00    1.296115e+01    1.416656e+01    3.871980e+08    1.520680e-08    5.448125e-10    1.412348e-08    1.486946e-09    1.170000e+00    4.875438e-01    5.337783e-01
    2.561439e+00    1.198339e+01    1.453774e+01    3.888667e+08    1.524053e-08    5.813050e-10    1.413503e-08    1.492959e-09    1.180000e+00    4.875438e-01    5.408737e-01
    2.512245e+00    1.107823e+01    1.491124e+01    3.903082e+08    1.527525e-08    6.199995e-10    1.414544e-08    1.499175e-09    1.190000e+00    4.875438e-01    5.479646e-01
    2.463847e+00    1.024234e+01    1.528688e+01    3.915158e+08    1.531100e-08    6.609730e-10    1.415472e-08    1.505600e-09    1.200000e+00    4.875438e-01    5.550513e-01
    2.416206e+00    9.472253e+00    1.566446e+01    3.924846e+08    1.534783e-08    7.042980e-10    1.416282e-08    1.512236e-09    1.210000e+00    4.875438e-01    5.621343e-01
    2.369294e+00    8.764391e+00    1.604379e+01    3.932117e+08    1.538579e-08    7.500385e-10    1.416972e-08    1.519089e-09    1.220000e+00    4.875438e-01    5.692139e-01
    2.323095e+00    8.115087e+00    1.642464e+01    3.936962e+08    1.542489e-08    7.982490e-10    1.417540e-08    1.526159e-09    1.230000e+00    4.875438e-01    5.762905e-01
    2.277600e+00    7.520625e+00    1.680684e+01    3.939393e+08    1.546516e-08    8.489760e-10    1.417982e-08    1.533447e-09    1.240000e+00    4.875438e-01    5.833645e-01
