# sky130 nfet_01v8 gm/ID Processed Lookup Table
# Corner: tt
# Temperature: 85C
# W = 2.0 um
# L = 4.5 um (4500 nm)
# Columns: gm/id [1/V]  gm/gds [V/V]  id/W [A/m]  ft [Hz]  Cgg/W [F/m]  Cgd/W [F/m]  Cgs/W [F/m]  Cdb/W [F/m]  vgs [V]  vth [V]  vdsat [V]
# vdsat = BSIM4 saturation voltage (|VDS|_sat, positive); use for headroom / saturation / cascode-bias calculations
#           gm/id          gm/gds            id/W              ft           Cgg/W           Cgd/W           Cgs/W           Cdb/W             vgs             vth           vdsat
    2.207434e+01    2.070379e+02    4.700657e-05    1.422968e+04    1.160570e-08    1.890528e-12    4.510244e-09    6.512600e-10    1.700000e-01    4.793155e-01    4.591959e-02
    2.206514e+01    2.067165e+02    5.861515e-05    1.745398e+04    1.179349e-08    2.024118e-12    4.800345e-09    6.852520e-10    1.800000e-01    4.793155e-01    4.592785e-02
    2.204638e+01    2.063669e+02    7.308025e-05    2.138330e+04    1.199176e-08    2.167155e-12    5.102765e-09    7.203160e-10    1.900000e-01    4.793155e-01    4.593814e-02
    2.201888e+01    2.059886e+02    9.109395e-05    2.616572e+04    1.220035e-08    2.320266e-12    5.417285e-09    7.564085e-10    2.000000e-01    4.793155e-01    4.595095e-02
    2.198327e+01    2.055807e+02    1.135120e-04    3.197907e+04    1.241906e-08    2.484111e-12    5.743600e-09    7.934770e-10    2.100000e-01    4.793155e-01    4.596687e-02
    2.194000e+01    2.051434e+02    1.413913e-04    3.903661e+04    1.264758e-08    2.659390e-12    6.081335e-09    8.314630e-10    2.200000e-01    4.793155e-01    4.598667e-02
    2.188937e+01    2.046775e+02    1.760353e-04    4.759364e+04    1.288559e-08    2.846844e-12    6.430025e-09    8.703010e-10    2.300000e-01    4.793155e-01    4.601124e-02
    2.183162e+01    2.041847e+02    2.190490e-04    5.795544e+04    1.313267e-08    3.047253e-12    6.789130e-09    9.099180e-10    2.400000e-01    4.793155e-01    4.604172e-02
    2.176690e+01    2.036681e+02    2.724060e-04    7.048655e+04    1.338836e-08    3.261445e-12    7.158025e-09    9.502340e-10    2.500000e-01    4.793155e-01    4.607947e-02
    2.169535e+01    2.031319e+02    3.385292e-04    8.562154e+04    1.365212e-08    3.490290e-12    7.536030e-09    9.911655e-10    2.600000e-01    4.793155e-01    4.612617e-02
    2.161714e+01    2.025829e+02    4.203882e-04    1.038781e+05    1.392338e-08    3.734713e-12    7.922385e-09    1.032622e-09    2.700000e-01    4.793155e-01    4.618387e-02
    2.153247e+01    2.020295e+02    5.216160e-04    1.258724e+05    1.420150e-08    3.995686e-12    8.316270e-09    1.074510e-09    2.800000e-01    4.793155e-01    4.625503e-02
    2.144159e+01    2.014833e+02    6.466510e-04    1.523364e+05    1.448583e-08    4.274239e-12    8.716815e-09    1.116732e-09    2.900000e-01    4.793155e-01    4.634265e-02
    2.134485e+01    2.009586e+02    8.009060e-04    1.841402e+05    1.477564e-08    4.571462e-12    9.123110e-09    1.159189e-09    3.000000e-01    4.793155e-01    4.645031e-02
    2.124274e+01    2.004738e+02    9.909720e-04    2.223175e+05    1.507018e-08    4.888503e-12    9.534195e-09    1.201779e-09    3.100000e-01    4.793155e-01    4.658234e-02
    2.113590e+01    2.000510e+02    1.224862e-03    2.680963e+05    1.536870e-08    5.226580e-12    9.949095e-09    1.244401e-09    3.200000e-01    4.793155e-01    4.674385e-02
    2.102507e+01    1.997171e+02    1.512305e-03    3.229365e+05    1.567040e-08    5.586975e-12    1.036681e-08    1.286954e-09    3.300000e-01    4.793155e-01    4.694095e-02
    2.091115e+01    1.995035e+02    1.865108e-03    3.885752e+05    1.597449e-08    5.971055e-12    1.078634e-08    1.329338e-09    3.400000e-01    4.793155e-01    4.718078e-02
    2.079518e+01    1.994468e+02    2.297569e-03    4.670813e+05    1.628017e-08    6.380255e-12    1.120666e-08    1.371457e-09    3.500000e-01    4.793155e-01    4.747175e-02
    2.067827e+01    1.995885e+02    2.827009e-03    5.609223e+05    1.658666e-08    6.816105e-12    1.162681e-08    1.413216e-09    3.600000e-01    4.793155e-01    4.782357e-02
    2.056151e+01    1.999743e+02    3.474385e-03    6.730418e+05    1.689317e-08    7.280215e-12    1.204579e-08    1.454525e-09    3.700000e-01    4.793155e-01    4.824747e-02
    2.044594e+01    2.006539e+02    4.265047e-03    8.069551e+05    1.719894e-08    7.774305e-12    1.246267e-08    1.495300e-09    3.800000e-01    4.793155e-01    4.875624e-02
    2.033236e+01    2.016796e+02    5.229645e-03    9.668560e+05    1.750324e-08    8.300185e-12    1.287654e-08    1.535460e-09    3.900000e-01    4.793155e-01    4.936433e-02
    2.022123e+01    2.031045e+02    6.405190e-03    1.157734e+06    1.780537e-08    8.859780e-12    1.328653e-08    1.574932e-09    4.000000e-01    4.793155e-01    5.008790e-02
    2.011242e+01    2.049798e+02    7.836370e-03    1.385508e+06    1.810466e-08    9.455135e-12    1.369182e-08    1.613647e-09    4.100000e-01    4.793155e-01    5.094478e-02
    2.000514e+01    2.073529e+02    9.576985e-03    1.657148e+06    1.840048e-08    1.008842e-11    1.409166e-08    1.651546e-09    4.200000e-01    4.793155e-01    5.195439e-02
    1.989774e+01    2.102631e+02    1.169169e-02    1.980794e+06    1.869226e-08    1.076196e-11    1.448534e-08    1.688574e-09    4.300000e-01    4.793155e-01    5.313760e-02
    1.978763e+01    2.137387e+02    1.425786e-02    2.365837e+06    1.897945e-08    1.147819e-11    1.487223e-08    1.724684e-09    4.400000e-01    4.793155e-01    5.451641e-02
    1.967129e+01    2.177926e+02    1.736767e-02    2.822948e+06    1.926157e-08    1.223971e-11    1.525174e-08    1.759836e-09    4.500000e-01    4.793155e-01    5.611365e-02
    1.954433e+01    2.224188e+02    2.113011e-02    3.364019e+06    1.953819e-08    1.304933e-11    1.562337e-08    1.793997e-09    4.600000e-01    4.793155e-01    5.795249e-02
    1.940173e+01    2.275895e+02    2.567312e-02    4.002014e+06    1.980891e-08    1.390999e-11    1.598665e-08    1.827140e-09    4.700000e-01    4.793155e-01    6.005589e-02
    1.923810e+01    2.332522e+02    3.114531e-02    4.750658e+06    2.007341e-08    1.482484e-11    1.634122e-08    1.859247e-09    4.800000e-01    4.793155e-01    6.244600e-02
    1.904813e+01    2.393292e+02    3.771729e-02    5.624006e+06    2.033140e-08    1.579725e-11    1.668675e-08    1.890302e-09    4.900000e-01    4.793155e-01    6.514348e-02
    1.882697e+01    2.457179e+02    4.558242e-02    6.635856e+06    2.058264e-08    1.683081e-11    1.702299e-08    1.920300e-09    5.000000e-01    4.793155e-01    6.816679e-02
    1.857066e+01    2.522926e+02    5.495645e-02    7.799029e+06    2.082695e-08    1.792934e-11    1.734973e-08    1.949236e-09    5.100000e-01    4.793155e-01    7.153155e-02
    1.827643e+01    2.589086e+02    6.607620e-02    9.124568e+06    2.106416e-08    1.909693e-11    1.766684e-08    1.977116e-09    5.200000e-01    4.793155e-01    7.524991e-02
    1.794298e+01    2.654075e+02    7.919700e-02    1.062092e+07    2.129421e-08    2.033796e-11    1.797421e-08    2.003946e-09    5.300000e-01    4.793155e-01    7.933006e-02
    1.757056e+01    2.716243e+02    9.458870e-02    1.229316e+07    2.151700e-08    2.165709e-11    1.827182e-08    2.029739e-09    5.400000e-01    4.793155e-01    8.377585e-02
    1.716094e+01    2.773945e+02    1.125307e-01    1.414236e+07    2.173252e-08    2.305934e-11    1.855966e-08    2.054511e-09    5.500000e-01    4.793155e-01    8.858659e-02
    1.671723e+01    2.825610e+02    1.333055e-01    1.616518e+07    2.194077e-08    2.455003e-11    1.883778e-08    2.078282e-09    5.600000e-01    4.793155e-01    9.375702e-02
    1.624366e+01    2.869823e+02    1.571924e-01    1.835366e+07    2.214180e-08    2.613493e-11    1.910626e-08    2.101073e-09    5.700000e-01    4.793155e-01    9.927747e-02
    1.574527e+01    2.905385e+02    1.844601e-01    2.069540e+07    2.233568e-08    2.782013e-11    1.936522e-08    2.122910e-09    5.800000e-01    4.793155e-01    1.051342e-01
    1.522761e+01    2.931345e+02    2.153601e-01    2.317399e+07    2.252249e-08    2.961224e-11    1.961480e-08    2.143821e-09    5.900000e-01    4.793155e-01    1.113098e-01
    1.469641e+01    2.947049e+02    2.501200e-01    2.576967e+07    2.270235e-08    3.151832e-11    1.985518e-08    2.163834e-09    6.000000e-01    4.793155e-01    1.177839e-01
    1.415736e+01    2.952137e+02    2.889385e-01    2.846027e+07    2.287540e-08    3.354593e-11    2.008655e-08    2.182980e-09    6.100000e-01    4.793155e-01    1.245337e-01
    1.361583e+01    2.946540e+02    3.319816e-01    3.122211e+07    2.304179e-08    3.570320e-11    2.030912e-08    2.201290e-09    6.200000e-01    4.793155e-01    1.315347e-01
    1.307678e+01    2.930461e+02    3.793801e-01    3.403111e+07    2.320169e-08    3.799886e-11    2.052313e-08    2.218798e-09    6.300000e-01    4.793155e-01    1.387614e-01
    1.254459e+01    2.904335e+02    4.312285e-01    3.686374e+07    2.335526e-08    4.044228e-11    2.072881e-08    2.235536e-09    6.400000e-01    4.793155e-01    1.461879e-01
    1.202303e+01    2.868796e+02    4.875857e-01    3.969784e+07    2.350271e-08    4.304356e-11    2.092641e-08    2.251539e-09    6.500000e-01    4.793155e-01    1.537887e-01
    1.151522e+01    2.824622e+02    5.484765e-01    4.251333e+07    2.364423e-08    4.581353e-11    2.111620e-08    2.266838e-09    6.600000e-01    4.793155e-01    1.615389e-01
    1.102365e+01    2.772697e+02    6.138955e-01    4.529267e+07    2.378002e-08    4.876384e-11    2.129843e-08    2.281470e-09    6.700000e-01    4.793155e-01    1.694149e-01
    1.055026e+01    2.713966e+02    6.838090e-01    4.802124e+07    2.391028e-08    5.190705e-11    2.147338e-08    2.295467e-09    6.800000e-01    4.793155e-01    1.773944e-01
    1.009640e+01    2.649393e+02    7.581605e-01    5.068738e+07    2.403522e-08    5.525670e-11    2.164131e-08    2.308861e-09    6.900000e-01    4.793155e-01    1.854570e-01
    9.662972e+00    2.579932e+02    8.368750e-01    5.328232e+07    2.415507e-08    5.882730e-11    2.180249e-08    2.321687e-09    7.000000e-01    4.793155e-01    1.935841e-01
    9.250431e+00    2.506497e+02    9.198625e-01    5.580008e+07    2.427002e-08    6.263455e-11    2.195718e-08    2.333976e-09    7.100000e-01    4.793155e-01    2.017591e-01
    8.858918e+00    2.429950e+02    1.007022e+00    5.823726e+07    2.438030e-08    6.669540e-11    2.210565e-08    2.345758e-09    7.200000e-01    4.793155e-01    2.099673e-01
    8.488247e+00    2.351077e+02    1.098249e+00    6.059253e+07    2.448610e-08    7.102795e-11    2.224816e-08    2.357068e-09    7.300000e-01    4.793155e-01    2.181958e-01
    8.138034e+00    2.270592e+02    1.193429e+00    6.286651e+07    2.458765e-08    7.565195e-11    2.238496e-08    2.367932e-09    7.400000e-01    4.793155e-01    2.264336e-01
    7.807684e+00    2.189122e+02    1.292455e+00    6.506123e+07    2.468513e-08    8.058860e-11    2.251629e-08    2.378381e-09    7.500000e-01    4.793155e-01    2.346716e-01
    7.496487e+00    2.107219e+02    1.395215e+00    6.717993e+07    2.477877e-08    8.586070e-11    2.264239e-08    2.388445e-09    7.600000e-01    4.793155e-01    2.429019e-01
    7.203632e+00    2.025352e+02    1.501605e+00    6.922671e+07    2.486874e-08    9.149295e-11    2.276350e-08    2.398151e-09    7.700000e-01    4.793155e-01    2.511182e-01
    6.928232e+00    1.943922e+02    1.611523e+00    7.120609e+07    2.495525e-08    9.751200e-11    2.287985e-08    2.407525e-09    7.800000e-01    4.793155e-01    2.593155e-01
    6.669372e+00    1.863261e+02    1.724875e+00    7.312308e+07    2.503849e-08    1.039467e-10    2.299164e-08    2.416595e-09    7.900000e-01    4.793155e-01    2.674898e-01
    6.426122e+00    1.783644e+02    1.841571e+00    7.498273e+07    2.511865e-08    1.108279e-10    2.309908e-08    2.425387e-09    8.000000e-01    4.793155e-01    2.756383e-01
    6.197543e+00    1.705294e+02    1.961532e+00    7.679005e+07    2.519591e-08    1.181892e-10    2.320238e-08    2.433924e-09    8.100000e-01    4.793155e-01    2.837587e-01
    5.982721e+00    1.628388e+02    2.084681e+00    7.854989e+07    2.527045e-08    1.260669e-10    2.330173e-08    2.442234e-09    8.200000e-01    4.793155e-01    2.918498e-01
    5.780767e+00    1.553069e+02    2.210952e+00    8.026691e+07    2.534243e-08    1.345000e-10    2.339730e-08    2.450338e-09    8.300000e-01    4.793155e-01    2.999108e-01
    5.590815e+00    1.479443e+02    2.340282e+00    8.194525e+07    2.541204e-08    1.435306e-10    2.348929e-08    2.458259e-09    8.400000e-01    4.793155e-01    3.079413e-01
    5.412051e+00    1.407597e+02    2.472616e+00    8.358890e+07    2.547945e-08    1.532043e-10    2.357784e-08    2.466023e-09    8.500000e-01    4.793155e-01    3.159416e-01
    5.243686e+00    1.337592e+02    2.607904e+00    8.520124e+07    2.554480e-08    1.635702e-10    2.366311e-08    2.473649e-09    8.600000e-01    4.793155e-01    3.239122e-01
    5.084990e+00    1.269478e+02    2.746102e+00    8.678539e+07    2.560827e-08    1.746813e-10    2.374525e-08    2.481162e-09    8.700000e-01    4.793155e-01    3.318538e-01
    4.935265e+00    1.203286e+02    2.887169e+00    8.834395e+07    2.567001e-08    1.865948e-10    2.382440e-08    2.488581e-09    8.800000e-01    4.793155e-01    3.397674e-01
    4.793859e+00    1.139043e+02    3.031070e+00    8.987907e+07    2.573018e-08    1.993722e-10    2.390069e-08    2.495929e-09    8.900000e-01    4.793155e-01    3.476541e-01
    4.660169e+00    1.076767e+02    3.177769e+00    9.139256e+07    2.578893e-08    2.130798e-10    2.397423e-08    2.503226e-09    9.000000e-01    4.793155e-01    3.555152e-01
    4.533623e+00    1.016469e+02    3.327238e+00    9.288584e+07    2.584640e-08    2.277890e-10    2.404516e-08    2.510494e-09    9.100000e-01    4.793155e-01    3.633519e-01
    4.413695e+00    9.581603e+01    3.479449e+00    9.435982e+07    2.590275e-08    2.435767e-10    2.411356e-08    2.517754e-09    9.200000e-01    4.793155e-01    3.711657e-01
    4.299895e+00    9.018467e+01    3.634375e+00    9.581521e+07    2.595812e-08    2.605252e-10    2.417954e-08    2.525025e-09    9.300000e-01    4.793155e-01    3.789580e-01
    4.191767e+00    8.475331e+01    3.791989e+00    9.725222e+07    2.601267e-08    2.787230e-10    2.424319e-08    2.532329e-09    9.400000e-01    4.793155e-01    3.867301e-01
    4.088888e+00    7.952239e+01    3.952269e+00    9.867083e+07    2.606652e-08    2.982650e-10    2.430458e-08    2.539688e-09    9.500000e-01    4.793155e-01    3.944834e-01
    3.990867e+00    7.449222e+01    4.115189e+00    1.000706e+08    2.611984e-08    3.192526e-10    2.436378e-08    2.547120e-09    9.600000e-01    4.793155e-01    4.022193e-01
    3.897340e+00    6.966297e+01    4.280724e+00    1.014509e+08    2.617276e-08    3.417942e-10    2.442088e-08    2.554647e-09    9.700000e-01    4.793155e-01    4.099392e-01
    3.807970e+00    6.503476e+01    4.448849e+00    1.028108e+08    2.622543e-08    3.660054e-10    2.447592e-08    2.562291e-09    9.800000e-01    4.793155e-01    4.176442e-01
    3.722441e+00    6.060747e+01    4.619536e+00    1.041488e+08    2.627799e-08    3.920090e-10    2.452895e-08    2.570071e-09    9.900000e-01    4.793155e-01    4.253356e-01
    3.640463e+00    5.638088e+01    4.792758e+00    1.054634e+08    2.633059e-08    4.199355e-10    2.458001e-08    2.578010e-09    1.000000e+00    4.793155e-01    4.330146e-01
    3.561766e+00    5.235449e+01    4.968483e+00    1.067527e+08    2.638337e-08    4.499229e-10    2.462914e-08    2.586128e-09    1.010000e+00    4.793155e-01    4.406823e-01
    3.486094e+00    4.852752e+01    5.146680e+00    1.080146e+08    2.643649e-08    4.821167e-10    2.467637e-08    2.594447e-09    1.020000e+00    4.793155e-01    4.483398e-01
    3.413216e+00    4.489883e+01    5.327305e+00    1.092466e+08    2.649009e-08    5.166700e-10    2.472170e-08    2.602989e-09    1.030000e+00    4.793155e-01    4.559881e-01
    3.342902e+00    4.146689e+01    5.510330e+00    1.104460e+08    2.654431e-08    5.537430e-10    2.476517e-08    2.611774e-09    1.040000e+00    4.793155e-01    4.636281e-01
    3.274954e+00    3.822969e+01    5.695700e+00    1.116098e+08    2.659930e-08    5.935030e-10    2.480677e-08    2.620824e-09    1.050000e+00    4.793155e-01    4.712608e-01
    3.209172e+00    3.518476e+01    5.883375e+00    1.127346e+08    2.665522e-08    6.361230e-10    2.484651e-08    2.630160e-09    1.060000e+00    4.793155e-01    4.788869e-01
    3.145377e+00    3.232900e+01    6.073295e+00    1.138171e+08    2.671221e-08    6.817815e-10    2.488436e-08    2.639804e-09    1.070000e+00    4.793155e-01    4.865073e-01
    3.083394e+00    2.965879e+01    6.265410e+00    1.148533e+08    2.677042e-08    7.306620e-10    2.492033e-08    2.649775e-09    1.080000e+00    4.793155e-01    4.941228e-01
    3.023068e+00    2.716988e+01    6.459650e+00    1.158395e+08    2.682999e-08    7.829505e-10    2.495438e-08    2.660094e-09    1.090000e+00    4.793155e-01    5.017340e-01
    2.964248e+00    2.485741e+01    6.655945e+00    1.167714e+08    2.689106e-08    8.388355e-10    2.498649e-08    2.670780e-09    1.100000e+00    4.793155e-01    5.093416e-01
    2.906796e+00    2.271585e+01    6.854220e+00    1.176449e+08    2.695378e-08    8.985050e-10    2.501663e-08    2.681851e-09    1.110000e+00    4.793155e-01    5.169461e-01
    2.850584e+00    2.073913e+01    7.054395e+00    1.184558e+08    2.701827e-08    9.621450e-10    2.504477e-08    2.693326e-09    1.120000e+00    4.793155e-01    5.245483e-01
    2.795499e+00    1.892056e+01    7.256375e+00    1.191999e+08    2.708466e-08    1.029938e-09    2.507086e-08    2.705219e-09    1.130000e+00    4.793155e-01    5.321485e-01
    2.741439e+00    1.725298e+01    7.460065e+00    1.198733e+08    2.715307e-08    1.102057e-09    2.509486e-08    2.717545e-09    1.140000e+00    4.793155e-01    5.397474e-01
    2.688313e+00    1.572872e+01    7.665365e+00    1.204723e+08    2.722361e-08    1.178669e-09    2.511673e-08    2.730318e-09    1.150000e+00    4.793155e-01    5.473454e-01
    2.636047e+00    1.433976e+01    7.872165e+00    1.209936e+08    2.729638e-08    1.259927e-09    2.513643e-08    2.743547e-09    1.160000e+00    4.793155e-01    5.549429e-01
    2.584580e+00    1.307780e+01    8.080355e+00    1.214347e+08    2.737145e-08    1.345967e-09    2.515390e-08    2.757242e-09    1.170000e+00    4.793155e-01    5.625403e-01
    2.533869e+00    1.193434e+01    8.289810e+00    1.217934e+08    2.744891e-08    1.436907e-09    2.516910e-08    2.771408e-09    1.180000e+00    4.793155e-01    5.701380e-01
    2.483880e+00    1.090082e+01    8.500420e+00    1.220686e+08    2.752879e-08    1.532844e-09    2.518200e-08    2.786048e-09    1.190000e+00    4.793155e-01    5.777365e-01
    2.434602e+00    9.968703e+00    8.712050e+00    1.222599e+08    2.761114e-08    1.633850e-09    2.519255e-08    2.801164e-09    1.200000e+00    4.793155e-01    5.853359e-01
    2.386031e+00    9.129594e+00    8.924585e+00    1.223679e+08    2.769598e-08    1.739967e-09    2.520072e-08    2.816752e-09    1.210000e+00    4.793155e-01    5.929367e-01
    2.338177e+00    8.375333e+00    9.137895e+00    1.223940e+08    2.778328e-08    1.851208e-09    2.520650e-08    2.832808e-09    1.220000e+00    4.793155e-01    6.005392e-01
    2.291060e+00    7.698086e+00    9.351865e+00    1.223406e+08    2.787303e-08    1.967556e-09    2.520986e-08    2.849324e-09    1.230000e+00    4.793155e-01    6.081435e-01
    2.244707e+00    7.090420e+00    9.566370e+00    1.222107e+08    2.796518e-08    2.088957e-09    2.521079e-08    2.866286e-09    1.240000e+00    4.793155e-01    6.157501e-01
    2.199150e+00    6.545345e+00    9.781300e+00    1.220083e+08    2.805966e-08    2.215322e-09    2.520931e-08    2.883682e-09    1.250000e+00    4.793155e-01    6.233591e-01
