# sky130 nfet_01v8 gm/ID Processed Lookup Table
# Corner: tt
# Temperature: 85C
# W = 2.0 um
# L = 2 um (2000 nm)
# Columns: gm/id [1/V]  gm/gds [V/V]  id/W [A/m]  ft [Hz]  Cgg/W [F/m]  Cgd/W [F/m]  Cgs/W [F/m]  Cdb/W [F/m]  vgs [V]  vth [V]  vdsat [V]
# vdsat = BSIM4 saturation voltage (|VDS|_sat, positive); use for headroom / saturation / cascode-bias calculations
#           gm/id          gm/gds            id/W              ft           Cgg/W           Cgd/W           Cgs/W           Cdb/W             vgs             vth           vdsat
    2.206804e+01    1.358461e+02    6.133190e-05    4.236283e+04    5.084935e-09    6.750280e-13    1.808636e-09    2.590555e-10    1.600000e-01    4.915010e-01    4.456468e-02
    2.206104e+01    1.356797e+02    7.647410e-05    5.203717e+04    5.159965e-09    7.219465e-13    1.927529e-09    2.729038e-10    1.700000e-01    4.915010e-01    4.456918e-02
    2.204663e+01    1.354973e+02    9.534445e-05    6.384848e+04    5.239710e-09    7.721355e-13    2.051984e-09    2.872429e-10    1.800000e-01    4.915010e-01    4.457479e-02
    2.202540e+01    1.352979e+02    1.188499e-04    7.825142e+04    5.324155e-09    8.258080e-13    2.181973e-09    3.020609e-10    1.900000e-01    4.915010e-01    4.458177e-02
    2.199776e+01    1.350805e+02    1.481141e-04    9.579361e+04    5.413255e-09    8.831885e-13    2.317438e-09    3.173423e-10    2.000000e-01    4.915010e-01    4.459046e-02
    2.196399e+01    1.348443e+02    1.845272e-04    1.171333e+05    5.506955e-09    9.445135e-13    2.458287e-09    3.330686e-10    2.100000e-01    4.915010e-01    4.460127e-02
    2.192427e+01    1.345888e+02    2.298077e-04    1.430613e+05    5.605155e-09    1.010033e-12    2.604390e-09    3.492178e-10    2.200000e-01    4.915010e-01    4.461471e-02
    2.187860e+01    1.343135e+02    2.860773e-04    1.745258e+05    5.707730e-09    1.080010e-12    2.755583e-09    3.657650e-10    2.300000e-01    4.915010e-01    4.463139e-02
    2.182704e+01    1.340185e+02    3.559518e-04    2.126623e+05    5.814545e-09    1.154721e-12    2.911667e-09    3.826819e-10    2.400000e-01    4.915010e-01    4.465209e-02
    2.176955e+01    1.337044e+02    4.426517e-04    2.588293e+05    5.925410e-09    1.234456e-12    3.072408e-09    3.999377e-10    2.500000e-01    4.915010e-01    4.467775e-02
    2.170607e+01    1.333721e+02    5.501365e-04    3.146483e+05    6.040130e-09    1.319524e-12    3.237537e-09    4.174985e-10    2.600000e-01    4.915010e-01    4.470953e-02
    2.163656e+01    1.330239e+02    6.832660e-04    3.820542e+05    6.158475e-09    1.410247e-12    3.406756e-09    4.353282e-10    2.700000e-01    4.915010e-01    4.474883e-02
    2.156098e+01    1.326625e+02    8.479970e-04    4.633510e+05    6.280190e-09    1.506962e-12    3.579733e-09    4.533883e-10    2.800000e-01    4.915010e-01    4.479737e-02
    2.147938e+01    1.322921e+02    1.051617e-03    5.612807e+05    6.405000e-09    1.610027e-12    3.756113e-09    4.716388e-10    2.900000e-01    4.915010e-01    4.485724e-02
    2.139185e+01    1.319183e+02    1.303027e-03    6.791020e+05    6.532610e-09    1.719817e-12    3.935512e-09    4.900378e-10    3.000000e-01    4.915010e-01    4.493095e-02
    2.129860e+01    1.315486e+02    1.613082e-03    8.206847e+05    6.662715e-09    1.836725e-12    4.117530e-09    5.085425e-10    3.100000e-01    4.915010e-01    4.502156e-02
    2.119994e+01    1.311922e+02    1.994999e-03    9.906256e+05    6.794975e-09    1.961167e-12    4.301748e-09    5.271095e-10    3.200000e-01    4.915010e-01    4.513272e-02
    2.109630e+01    1.308609e+02    2.464845e-03    1.194377e+06    6.929065e-09    2.093578e-12    4.487734e-09    5.456955e-10    3.300000e-01    4.915010e-01    4.526878e-02
    2.098831e+01    1.305688e+02    3.042122e-03    1.438418e+06    7.064625e-09    2.234419e-12    4.675049e-09    5.642565e-10    3.400000e-01    4.915010e-01    4.543495e-02
    2.087670e+01    1.303330e+02    3.750477e-03    1.730442e+06    7.201310e-09    2.384170e-12    4.863245e-09    5.827490e-10    3.500000e-01    4.915010e-01    4.563735e-02
    2.076238e+01    1.301734e+02    4.618548e-03    2.079598e+06    7.338770e-09    2.543340e-12    5.051880e-09    6.011315e-10    3.600000e-01    4.915010e-01    4.588320e-02
    2.064636e+01    1.301128e+02    5.680985e-03    2.496781e+06    7.476645e-09    2.712465e-12    5.240510e-09    6.193635e-10    3.700000e-01    4.915010e-01    4.618090e-02
    2.052969e+01    1.301771e+02    6.979695e-03    2.994968e+06    7.614595e-09    2.892108e-12    5.428705e-09    6.374055e-10    3.800000e-01    4.915010e-01    4.654021e-02
    2.041349e+01    1.303945e+02    8.565310e-03    3.589642e+06    7.752280e-09    3.082864e-12    5.616040e-09    6.552200e-10    3.900000e-01    4.915010e-01    4.697232e-02
    2.029874e+01    1.307954e+02    1.049900e-02    4.299274e+06    7.889365e-09    3.285357e-12    5.802110e-09    6.727725e-10    4.000000e-01    4.915010e-01    4.748996e-02
    2.018619e+01    1.314110e+02    1.285461e-02    5.145876e+06    8.025535e-09    3.500251e-12    5.986525e-09    6.900305e-10    4.100000e-01    4.915010e-01    4.810747e-02
    2.007620e+01    1.322727e+02    1.572124e-02    6.155616e+06    8.160500e-09    3.728241e-12    6.168925e-09    7.069645e-10    4.200000e-01    4.915010e-01    4.884087e-02
    1.996861e+01    1.334098e+02    1.920623e-02    7.359492e+06    8.293965e-09    3.970065e-12    6.348960e-09    7.235480e-10    4.300000e-01    4.915010e-01    4.970774e-02
    1.986254e+01    1.348486e+02    2.343873e-02    8.793955e+06    8.425675e-09    4.226499e-12    6.526315e-09    7.397560e-10    4.400000e-01    4.915010e-01    5.072721e-02
    1.975628e+01    1.366090e+02    2.857365e-02    1.050151e+07    8.555380e-09    4.498368e-12    6.700695e-09    7.555680e-10    4.500000e-01    4.915010e-01    5.191974e-02
    1.964719e+01    1.387030e+02    3.479612e-02    1.253108e+07    8.682865e-09    4.786541e-12    6.871840e-09    7.709660e-10    4.600000e-01    4.915010e-01    5.330686e-02
    1.953174e+01    1.411321e+02    4.232626e-02    1.493817e+07    8.807925e-09    5.091935e-12    7.039510e-09    7.859350e-10    4.700000e-01    4.915010e-01    5.491081e-02
    1.940555e+01    1.438849e+02    5.142400e-02    1.778450e+07    8.930385e-09    5.415535e-12    7.203510e-09    8.004635e-10    4.800000e-01    4.915010e-01    5.675411e-02
    1.926363e+01    1.469355e+02    6.239385e-02    2.113718e+07    9.050090e-09    5.758360e-12    7.363650e-09    8.145415e-10    4.900000e-01    4.915010e-01    5.885895e-02
    1.910071e+01    1.502418e+02    7.558880e-02    2.506712e+07    9.166905e-09    6.121515e-12    7.519785e-09    8.281625e-10    5.000000e-01    4.915010e-01    6.124665e-02
    1.891155e+01    1.537460e+02    9.141350e-02    2.964669e+07    9.280715e-09    6.506155e-12    7.671795e-09    8.413230e-10    5.100000e-01    4.915010e-01    6.393697e-02
    1.869140e+01    1.573747e+02    1.103256e-01    3.494670e+07    9.391435e-09    6.913520e-12    7.819585e-09    8.540215e-10    5.200000e-01    4.915010e-01    6.694742e-02
    1.843639e+01    1.610414e+02    1.328346e-01    4.103265e+07    9.498995e-09    7.344910e-12    7.963080e-09    8.662585e-10    5.300000e-01    4.915010e-01    7.029263e-02
    1.814383e+01    1.646488e+02    1.594991e-01    4.796062e+07    9.603340e-09    7.801720e-12    8.102235e-09    8.780365e-10    5.400000e-01    4.915010e-01    7.398375e-02
    1.781244e+01    1.680935e+02    1.909195e-01    5.577295e+07    9.704435e-09    8.285425e-12    8.237025e-09    8.893610e-10    5.500000e-01    4.915010e-01    7.802798e-02
    1.744248e+01    1.712706e+02    2.277294e-01    6.449421e+07    9.802270e-09    8.797600e-12    8.367445e-09    9.002385e-10    5.600000e-01    4.915010e-01    8.242819e-02
    1.703565e+01    1.740786e+02    2.705828e-01    7.412807e+07    9.896835e-09    9.339910e-12    8.493515e-09    9.106760e-10    5.700000e-01    4.915010e-01    8.718273e-02
    1.659498e+01    1.764245e+02    3.201399e-01    8.465480e+07    9.988150e-09    9.914135e-12    8.615255e-09    9.206835e-10    5.800000e-01    4.915010e-01    9.228546e-02
    1.612462e+01    1.782286e+02    3.770505e-01    9.603080e+07    1.007624e-08    1.052217e-11    8.732725e-09    9.302710e-10    5.900000e-01    4.915010e-01    9.772587e-02
    1.562948e+01    1.794275e+02    4.419373e-01    1.081890e+08    1.016114e-08    1.116605e-11    8.845980e-09    9.394505e-10    6.000000e-01    4.915010e-01    1.034894e-01
    1.511499e+01    1.799772e+02    5.153800e-01    1.210412e+08    1.024289e-08    1.184790e-11    8.955095e-09    9.482335e-10    6.100000e-01    4.915010e-01    1.095580e-01
    1.458682e+01    1.798540e+02    5.978995e-01    1.344819e+08    1.032156e-08    1.257003e-11    9.060150e-09    9.566340e-10    6.200000e-01    4.915010e-01    1.159105e-01
    1.405055e+01    1.790546e+02    6.899465e-01    1.483926e+08    1.039721e-08    1.333488e-11    9.161235e-09    9.646640e-10    6.300000e-01    4.915010e-01    1.225237e-01
    1.351152e+01    1.775941e+02    7.918915e-01    1.626475e+08    1.046990e-08    1.414508e-11    9.258455e-09    9.723385e-10    6.400000e-01    4.915010e-01    1.293725e-01
    1.297463e+01    1.755049e+02    9.040200e-01    1.771185e+08    1.053973e-08    1.500340e-11    9.351910e-09    9.796710e-10    6.500000e-01    4.915010e-01    1.364310e-01
    1.244426e+01    1.728328e+02    1.026529e+00    1.916804e+08    1.060676e-08    1.591283e-11    9.441720e-09    9.866755e-10    6.600000e-01    4.915010e-01    1.436732e-01
    1.192417e+01    1.696342e+02    1.159531e+00    2.062160e+08    1.067108e-08    1.687656e-11    9.527990e-09    9.933670e-10    6.700000e-01    4.915010e-01    1.510731e-01
    1.141753e+01    1.659728e+02    1.303055e+00    2.206190e+08    1.073278e-08    1.789797e-11    9.610835e-09    9.997595e-10    6.800000e-01    4.915010e-01    1.586057e-01
    1.092687e+01    1.619158e+02    1.457058e+00    2.347972e+08    1.079195e-08    1.898073e-11    9.690380e-09    1.005867e-09    6.900000e-01    4.915010e-01    1.662474e-01
    1.045414e+01    1.575318e+02    1.621430e+00    2.486735e+08    1.084869e-08    2.012872e-11    9.766745e-09    1.011705e-09    7.000000e-01    4.915010e-01    1.739760e-01
    1.000074e+01    1.528878e+02    1.796009e+00    2.621874e+08    1.090307e-08    2.134610e-11    9.840045e-09    1.017285e-09    7.100000e-01    4.915010e-01    1.817712e-01
    9.567620e+00    1.480474e+02    1.980583e+00    2.752940e+08    1.095520e-08    2.263735e-11    9.910395e-09    1.022622e-09    7.200000e-01    4.915010e-01    1.896144e-01
    9.155286e+00    1.430695e+02    2.174913e+00    2.879631e+08    1.100517e-08    2.400723e-11    9.977920e-09    1.027729e-09    7.300000e-01    4.915010e-01    1.974893e-01
    8.763897e+00    1.380074e+02    2.378731e+00    3.001785e+08    1.105308e-08    2.546088e-11    1.004274e-08    1.032620e-09    7.400000e-01    4.915010e-01    2.053815e-01
    8.393321e+00    1.329078e+02    2.591757e+00    3.119353e+08    1.109899e-08    2.700377e-11    1.010495e-08    1.037306e-09    7.500000e-01    4.915010e-01    2.132785e-01
    8.043185e+00    1.278113e+02    2.813703e+00    3.232387e+08    1.114303e-08    2.864177e-11    1.016468e-08    1.041801e-09    7.600000e-01    4.915010e-01    2.211697e-01
    7.712929e+00    1.227523e+02    3.044284e+00    3.341017e+08    1.118526e-08    3.038120e-11    1.022203e-08    1.046115e-09    7.700000e-01    4.915010e-01    2.290462e-01
    7.401854e+00    1.177592e+02    3.283218e+00    3.445436e+08    1.122577e-08    3.222880e-11    1.027710e-08    1.050262e-09    7.800000e-01    4.915010e-01    2.369006e-01
    7.109159e+00    1.128548e+02    3.530234e+00    3.545881e+08    1.126465e-08    3.419184e-11    1.033000e-08    1.054252e-09    7.900000e-01    4.915010e-01    2.447271e-01
    6.833974e+00    1.080570e+02    3.785074e+00    3.642614e+08    1.130199e-08    3.627808e-11    1.038082e-08    1.058095e-09    8.000000e-01    4.915010e-01    2.525211e-01
    6.575384e+00    1.033796e+02    4.047498e+00    3.735917e+08    1.133785e-08    3.849586e-11    1.042967e-08    1.061803e-09    8.100000e-01    4.915010e-01    2.602790e-01
    6.332462e+00    9.883242e+01    4.317279e+00    3.826077e+08    1.137233e-08    4.085416e-11    1.047663e-08    1.065385e-09    8.200000e-01    4.915010e-01    2.679983e-01
    6.104273e+00    9.442216e+01    4.594212e+00    3.913372e+08    1.140549e-08    4.336257e-11    1.052178e-08    1.068852e-09    8.300000e-01    4.915010e-01    2.756773e-01
    5.889898e+00    9.015286e+01    4.878106e+00    3.998079e+08    1.143741e-08    4.603143e-11    1.056522e-08    1.072213e-09    8.400000e-01    4.915010e-01    2.833152e-01
    5.688442e+00    8.602651e+01    5.168790e+00    4.080455e+08    1.146816e-08    4.887180e-11    1.060702e-08    1.075476e-09    8.500000e-01    4.915010e-01    2.909113e-01
    5.499045e+00    8.204329e+01    5.466105e+00    4.160735e+08    1.149782e-08    5.189560e-11    1.064726e-08    1.078652e-09    8.600000e-01    4.915010e-01    2.984660e-01
    5.320878e+00    7.820200e+01    5.769910e+00    4.239137e+08    1.152644e-08    5.511555e-11    1.068601e-08    1.081747e-09    8.700000e-01    4.915010e-01    3.059796e-01
    5.153151e+00    7.450049e+01    6.080085e+00    4.315855e+08    1.155409e-08    5.854540e-11    1.072334e-08    1.084772e-09    8.800000e-01    4.915010e-01    3.134530e-01
    4.995131e+00    7.093582e+01    6.396505e+00    4.391061e+08    1.158085e-08    6.219985e-11    1.075932e-08    1.087733e-09    8.900000e-01    4.915010e-01    3.208873e-01
    4.846108e+00    6.750453e+01    6.719080e+00    4.464903e+08    1.160676e-08    6.609470e-11    1.079400e-08    1.090639e-09    9.000000e-01    4.915010e-01    3.282837e-01
    4.705435e+00    6.420282e+01    7.047705e+00    4.537508e+08    1.163189e-08    7.024690e-11    1.082744e-08    1.093496e-09    9.100000e-01    4.915010e-01    3.356436e-01
    4.572498e+00    6.102665e+01    7.382300e+00    4.608976e+08    1.165631e-08    7.467460e-11    1.085970e-08    1.096314e-09    9.200000e-01    4.915010e-01    3.429685e-01
    4.446723e+00    5.797200e+01    7.722790e+00    4.679395e+08    1.168005e-08    7.939730e-11    1.089083e-08    1.099098e-09    9.300000e-01    4.915010e-01    3.502599e-01
    4.327582e+00    5.503489e+01    8.069100e+00    4.748826e+08    1.170319e-08    8.443595e-11    1.092088e-08    1.101857e-09    9.400000e-01    4.915010e-01    3.575195e-01
    4.214580e+00    5.221125e+01    8.421165e+00    4.817315e+08    1.172577e-08    8.981285e-11    1.094988e-08    1.104597e-09    9.500000e-01    4.915010e-01    3.647488e-01
    4.107263e+00    4.949739e+01    8.778915e+00    4.884890e+08    1.174786e-08    9.555210e-11    1.097789e-08    1.107323e-09    9.600000e-01    4.915010e-01    3.719495e-01
    4.005208e+00    4.688964e+01    9.142290e+00    4.951564e+08    1.176950e-08    1.016792e-10    1.100494e-08    1.110046e-09    9.700000e-01    4.915010e-01    3.791230e-01
    3.908021e+00    4.438456e+01    9.511230e+00    5.017334e+08    1.179073e-08    1.082218e-10    1.103106e-08    1.112769e-09    9.800000e-01    4.915010e-01    3.862708e-01
    3.815342e+00    4.197896e+01    9.885670e+00    5.082180e+08    1.181162e-08    1.152090e-10    1.105629e-08    1.115500e-09    9.900000e-01    4.915010e-01    3.933946e-01
    3.726834e+00    3.966985e+01    1.026555e+01    5.146078e+08    1.183222e-08    1.226722e-10    1.108065e-08    1.118245e-09    1.000000e+00    4.915010e-01    4.004955e-01
    3.642186e+00    3.745445e+01    1.065081e+01    5.208978e+08    1.185257e-08    1.306447e-10    1.110418e-08    1.121012e-09    1.010000e+00    4.915010e-01    4.075751e-01
    3.561113e+00    3.533017e+01    1.104138e+01    5.270830e+08    1.187271e-08    1.391621e-10    1.112689e-08    1.123806e-09    1.020000e+00    4.915010e-01    4.146347e-01
    3.483349e+00    3.329465e+01    1.143717e+01    5.331567e+08    1.189272e-08    1.482619e-10    1.114880e-08    1.126634e-09    1.030000e+00    4.915010e-01    4.216753e-01
    3.408647e+00    3.134566e+01    1.183814e+01    5.391114e+08    1.191262e-08    1.579845e-10    1.116993e-08    1.129502e-09    1.040000e+00    4.915010e-01    4.286983e-01
    3.336777e+00    2.948116e+01    1.224419e+01    5.449381e+08    1.193247e-08    1.683720e-10    1.119030e-08    1.132416e-09    1.050000e+00    4.915010e-01    4.357047e-01
    3.267529e+00    2.769924e+01    1.265523e+01    5.506278e+08    1.195231e-08    1.794696e-10    1.120992e-08    1.135384e-09    1.060000e+00    4.915010e-01    4.426957e-01
    3.200704e+00    2.599810e+01    1.307118e+01    5.561691e+08    1.197220e-08    1.913243e-10    1.122879e-08    1.138412e-09    1.070000e+00    4.915010e-01    4.496721e-01
    3.136121e+00    2.437605e+01    1.349194e+01    5.615509e+08    1.199218e-08    2.039861e-10    1.124692e-08    1.141505e-09    1.080000e+00    4.915010e-01    4.566349e-01
    3.073605e+00    2.283145e+01    1.391740e+01    5.667611e+08    1.201230e-08    2.175072e-10    1.126433e-08    1.144672e-09    1.090000e+00    4.915010e-01    4.635849e-01
    3.013002e+00    2.136274e+01    1.434743e+01    5.717861e+08    1.203262e-08    2.319421e-10    1.128100e-08    1.147917e-09    1.100000e+00    4.915010e-01    4.705231e-01
    2.954160e+00    1.996835e+01    1.478193e+01    5.766122e+08    1.205317e-08    2.473479e-10    1.129693e-08    1.151247e-09    1.110000e+00    4.915010e-01    4.774502e-01
    2.896940e+00    1.864673e+01    1.522075e+01    5.812249e+08    1.207401e-08    2.637835e-10    1.131213e-08    1.154668e-09    1.120000e+00    4.915010e-01    4.843670e-01
    2.841218e+00    1.739633e+01    1.566375e+01    5.856093e+08    1.209518e-08    2.813101e-10    1.132658e-08    1.158187e-09    1.130000e+00    4.915010e-01    4.912740e-01
    2.786873e+00    1.621554e+01    1.611078e+01    5.897498e+08    1.211675e-08    2.999904e-10    1.134028e-08    1.161809e-09    1.140000e+00    4.915010e-01    4.981720e-01
    2.733795e+00    1.510269e+01    1.656166e+01    5.936308e+08    1.213874e-08    3.198887e-10    1.135322e-08    1.165541e-09    1.150000e+00    4.915010e-01    5.050616e-01
    2.681882e+00    1.405604e+01    1.701624e+01    5.972370e+08    1.216121e-08    3.410703e-10    1.136538e-08    1.169389e-09    1.160000e+00    4.915010e-01    5.119433e-01
    2.631045e+00    1.307378e+01    1.747432e+01    6.005530e+08    1.218421e-08    3.636010e-10    1.137675e-08    1.173357e-09    1.170000e+00    4.915010e-01    5.188177e-01
    2.581200e+00    1.215396e+01    1.793569e+01    6.035639e+08    1.220778e-08    3.875470e-10    1.138732e-08    1.177451e-09    1.180000e+00    4.915010e-01    5.256853e-01
    2.532275e+00    1.129456e+01    1.840016e+01    6.062567e+08    1.223196e-08    4.129738e-10    1.139706e-08    1.181676e-09    1.190000e+00    4.915010e-01    5.325466e-01
    2.484205e+00    1.049343e+01    1.886750e+01    6.086185e+08    1.225679e-08    4.399457e-10    1.140596e-08    1.186037e-09    1.200000e+00    4.915010e-01    5.394020e-01
    2.436938e+00    9.748291e+00    1.933749e+01    6.106385e+08    1.228233e-08    4.685254e-10    1.141399e-08    1.190537e-09    1.210000e+00    4.915010e-01    5.462520e-01
    2.390429e+00    9.056778e+00    1.980991e+01    6.123085e+08    1.230858e-08    4.987726e-10    1.142115e-08    1.195180e-09    1.220000e+00    4.915010e-01    5.530969e-01
    2.344646e+00    8.416419e+00    2.028449e+01    6.136219e+08    1.233562e-08    5.307435e-10    1.142740e-08    1.199971e-09    1.230000e+00    4.915010e-01    5.599372e-01
    2.299565e+00    7.824654e+00    2.076102e+01    6.145753e+08    1.236344e-08    5.644905e-10    1.143273e-08    1.204909e-09    1.240000e+00    4.915010e-01    5.667731e-01
