# sky130 pfet_01v8 gm/ID Processed Lookup Table
# Corner: fs
# Temperature: 25C
# W = 2.0 um
# L = 4.32 um (4320 nm)
# Columns: gm/id [1/V]  gm/gds [V/V]  id/W [A/m]  ft [Hz]  Cgg/W [F/m]  Cgd/W [F/m]  Cgs/W [F/m]  Vov [V]
#         gm/id          gm/gds            id/W              ft           Cgg/W           Cgd/W           Cgs/W             Vov
    1.925832e+00    4.190293e+00    5.126075e+00    5.441644e+07    2.887310e-08    3.018187e-09    2.626507e-08   -2.790969e+00
    1.946255e+00    4.331791e+00    5.076695e+00    5.457669e+07    2.881336e-08    2.936435e-09    2.627179e-08   -2.785969e+00
    1.966957e+00    4.481182e+00    5.027270e+00    5.473280e+07    2.875409e-08    2.855776e-09    2.627795e-08   -2.780969e+00
    1.987933e+00    4.639019e+00    4.977811e+00    5.488440e+07    2.869534e-08    2.776255e-09    2.628353e-08   -2.775969e+00
    2.009184e+00    4.805901e+00    4.928318e+00    5.503121e+07    2.863713e-08    2.697913e-09    2.628853e-08   -2.770969e+00
    2.030707e+00    4.982468e+00    4.878794e+00    5.517286e+07    2.857948e-08    2.620788e-09    2.629294e-08   -2.765969e+00
    2.052501e+00    5.169411e+00    4.829245e+00    5.530905e+07    2.852243e-08    2.544917e-09    2.629676e-08   -2.760969e+00
    2.074563e+00    5.367468e+00    4.779675e+00    5.543942e+07    2.846599e-08    2.470333e-09    2.629998e-08   -2.755969e+00
    2.096888e+00    5.577434e+00    4.730089e+00    5.556357e+07    2.841021e-08    2.397068e-09    2.630260e-08   -2.750969e+00
    2.119473e+00    5.800159e+00    4.680492e+00    5.568119e+07    2.835509e-08    2.325151e-09    2.630461e-08   -2.745969e+00
    2.142313e+00    6.036557e+00    4.630889e+00    5.579190e+07    2.830065e-08    2.254607e-09    2.630601e-08   -2.740969e+00
    2.165404e+00    6.287599e+00    4.581286e+00    5.589532e+07    2.824692e-08    2.185462e-09    2.630681e-08   -2.735969e+00
    2.188740e+00    6.554329e+00    4.531688e+00    5.599111e+07    2.819390e-08    2.117733e-09    2.630699e-08   -2.730969e+00
    2.212314e+00    6.837856e+00    4.482101e+00    5.607889e+07    2.814163e-08    2.051438e-09    2.630656e-08   -2.725969e+00
    2.236121e+00    7.139365e+00    4.432532e+00    5.615832e+07    2.809010e-08    1.986594e-09    2.630553e-08   -2.720969e+00
    2.260155e+00    7.460109e+00    4.382987e+00    5.622907e+07    2.803933e-08    1.923210e-09    2.630388e-08   -2.715969e+00
    2.284409e+00    7.801429e+00    4.333471e+00    5.629078e+07    2.798934e-08    1.861295e-09    2.630163e-08   -2.710969e+00
    2.308874e+00    8.164732e+00    4.283995e+00    5.634316e+07    2.794011e-08    1.800856e-09    2.629877e-08   -2.705969e+00
    2.333545e+00    8.551514e+00    4.234562e+00    5.638586e+07    2.789167e-08    1.741897e-09    2.629532e-08   -2.700969e+00
    2.358414e+00    8.963348e+00    4.185182e+00    5.641864e+07    2.784402e-08    1.684416e-09    2.629127e-08   -2.695969e+00
    2.383475e+00    9.401897e+00    4.135860e+00    5.644122e+07    2.779715e-08    1.628413e-09    2.628663e-08   -2.690969e+00
    2.408722e+00    9.868903e+00    4.086607e+00    5.645340e+07    2.775106e-08    1.573883e-09    2.628140e-08   -2.685969e+00
    2.434147e+00    1.036618e+01    4.037429e+00    5.645491e+07    2.770576e-08    1.520818e-09    2.627559e-08   -2.680969e+00
    2.459746e+00    1.089563e+01    3.988333e+00    5.644560e+07    2.766124e-08    1.469209e-09    2.626920e-08   -2.675969e+00
    2.485514e+00    1.145924e+01    3.939328e+00    5.642534e+07    2.761750e-08    1.419046e-09    2.626224e-08   -2.670969e+00
    2.511445e+00    1.205906e+01    3.890423e+00    5.639398e+07    2.757452e-08    1.370314e-09    2.625473e-08   -2.665969e+00
    2.537538e+00    1.269723e+01    3.841625e+00    5.635146e+07    2.753230e-08    1.322997e-09    2.624665e-08   -2.660969e+00
    2.563790e+00    1.337594e+01    3.792943e+00    5.629774e+07    2.749084e-08    1.277079e-09    2.623802e-08   -2.655969e+00
    2.590200e+00    1.409747e+01    3.744385e+00    5.623283e+07    2.745010e-08    1.232539e-09    2.622884e-08   -2.650969e+00
    2.616765e+00    1.486411e+01    3.695959e+00    5.615668e+07    2.741009e-08    1.189359e-09    2.621914e-08   -2.645969e+00
    2.643488e+00    1.567829e+01    3.647673e+00    5.606940e+07    2.737080e-08    1.147515e-09    2.620889e-08   -2.640969e+00
    2.670371e+00    1.654240e+01    3.599535e+00    5.597107e+07    2.733220e-08    1.106985e-09    2.619813e-08   -2.635969e+00
    2.697416e+00    1.745891e+01    3.551555e+00    5.586179e+07    2.729429e-08    1.067744e-09    2.618683e-08   -2.630969e+00
    2.724627e+00    1.843035e+01    3.503738e+00    5.574171e+07    2.725703e-08    1.029766e-09    2.617504e-08   -2.625969e+00
    2.752010e+00    1.945923e+01    3.456094e+00    5.561102e+07    2.722042e-08    9.930270e-10    2.616273e-08   -2.620969e+00
    2.779571e+00    2.054812e+01    3.408628e+00    5.546989e+07    2.718444e-08    9.574985e-10    2.614992e-08   -2.615969e+00
    2.807318e+00    2.169959e+01    3.361351e+00    5.531856e+07    2.714906e-08    9.231535e-10    2.613662e-08   -2.610969e+00
    2.835260e+00    2.291623e+01    3.314267e+00    5.515727e+07    2.711427e-08    8.899635e-10    2.612283e-08   -2.605969e+00
    2.863405e+00    2.420060e+01    3.267385e+00    5.498621e+07    2.708005e-08    8.579005e-10    2.610854e-08   -2.600969e+00
    2.891765e+00    2.555531e+01    3.220711e+00    5.480574e+07    2.704637e-08    8.269360e-10    2.609378e-08   -2.595969e+00
    2.920350e+00    2.698290e+01    3.174252e+00    5.461603e+07    2.701321e-08    7.970405e-10    2.607855e-08   -2.590969e+00
    2.949174e+00    2.848597e+01    3.128013e+00    5.441745e+07    2.698056e-08    7.681855e-10    2.606284e-08   -2.585969e+00
    2.978248e+00    3.006703e+01    3.082003e+00    5.421024e+07    2.694839e-08    7.403420e-10    2.604666e-08   -2.580969e+00
    3.007586e+00    3.172859e+01    3.036226e+00    5.399468e+07    2.691667e-08    7.134810e-10    2.603002e-08   -2.575969e+00
    3.037202e+00    3.347316e+01    2.990688e+00    5.377109e+07    2.688538e-08    6.875740e-10    2.601290e-08   -2.570969e+00
    3.067114e+00    3.530321e+01    2.945395e+00    5.353975e+07    2.685451e-08    6.625920e-10    2.599533e-08   -2.565969e+00
    3.097334e+00    3.722116e+01    2.900351e+00    5.330094e+07    2.682402e-08    6.385075e-10    2.597730e-08   -2.560969e+00
    3.127878e+00    3.922940e+01    2.855563e+00    5.305492e+07    2.679390e-08    6.152915e-10    2.595881e-08   -2.555969e+00
    3.158761e+00    4.133029e+01    2.811034e+00    5.280198e+07    2.676411e-08    5.929175e-10    2.593985e-08   -2.550969e+00
    3.190004e+00    4.352621e+01    2.766771e+00    5.254243e+07    2.673465e-08    5.713580e-10    2.592044e-08   -2.545969e+00
    3.221621e+00    4.581940e+01    2.722776e+00    5.227646e+07    2.670547e-08    5.505860e-10    2.590057e-08   -2.540969e+00
    3.253630e+00    4.821216e+01    2.679054e+00    5.200437e+07    2.667657e-08    5.305760e-10    2.588024e-08   -2.535969e+00
    3.286047e+00    5.070673e+01    2.635611e+00    5.172638e+07    2.664791e-08    5.113020e-10    2.585944e-08   -2.530969e+00
    3.318894e+00    5.330532e+01    2.592448e+00    5.144276e+07    2.661947e-08    4.927388e-10    2.583817e-08   -2.525969e+00
    3.352186e+00    5.601010e+01    2.549571e+00    5.115369e+07    2.659123e-08    4.748621e-10    2.581644e-08   -2.520969e+00
    3.385944e+00    5.882328e+01    2.506983e+00    5.085944e+07    2.656316e-08    4.576478e-10    2.579424e-08   -2.515969e+00
    3.420185e+00    6.174693e+01    2.464687e+00    5.056014e+07    2.653525e-08    4.410728e-10    2.577156e-08   -2.510969e+00
    3.454930e+00    6.478327e+01    2.422687e+00    5.025608e+07    2.650746e-08    4.251142e-10    2.574839e-08   -2.505969e+00
    3.490197e+00    6.793432e+01    2.380986e+00    4.994736e+07    2.647978e-08    4.097499e-10    2.572474e-08   -2.500969e+00
    3.526009e+00    7.120232e+01    2.339587e+00    4.963423e+07    2.645218e-08    3.949586e-10    2.570060e-08   -2.495969e+00
    3.562384e+00    7.458930e+01    2.298493e+00    4.931682e+07    2.642464e-08    3.807192e-10    2.567595e-08   -2.490969e+00
    3.599342e+00    7.809735e+01    2.257707e+00    4.899528e+07    2.639713e-08    3.670117e-10    2.565080e-08   -2.485969e+00
    3.636910e+00    8.172872e+01    2.217231e+00    4.866982e+07    2.636963e-08    3.538163e-10    2.562514e-08   -2.480969e+00
    3.675104e+00    8.548545e+01    2.177069e+00    4.834052e+07    2.634211e-08    3.411141e-10    2.559896e-08   -2.475969e+00
    3.713946e+00    8.936974e+01    2.137223e+00    4.800752e+07    2.631457e-08    3.288867e-10    2.557224e-08   -2.470969e+00
    3.753464e+00    9.338377e+01    2.097694e+00    4.767100e+07    2.628696e-08    3.171163e-10    2.554497e-08   -2.465969e+00
    3.793680e+00    9.752986e+01    2.058487e+00    4.733107e+07    2.625927e-08    3.057856e-10    2.551715e-08   -2.460969e+00
    3.834613e+00    1.018102e+02    2.019603e+00    4.698779e+07    2.623147e-08    2.948781e-10    2.548878e-08   -2.455969e+00
    3.876292e+00    1.062270e+02    1.981044e+00    4.664130e+07    2.620355e-08    2.843778e-10    2.545982e-08   -2.450969e+00
    3.918742e+00    1.107829e+02    1.942813e+00    4.629172e+07    2.617546e-08    2.742691e-10    2.543028e-08   -2.445969e+00
    3.961986e+00    1.154799e+02    1.904911e+00    4.593910e+07    2.614721e-08    2.645370e-10    2.540013e-08   -2.440969e+00
    4.006055e+00    1.203209e+02    1.867341e+00    4.558357e+07    2.611874e-08    2.551673e-10    2.536937e-08   -2.435969e+00
    4.050972e+00    1.253082e+02    1.830105e+00    4.522519e+07    2.609006e-08    2.461459e-10    2.533797e-08   -2.430969e+00
    4.096769e+00    1.304445e+02    1.793205e+00    4.486402e+07    2.606113e-08    2.374595e-10    2.530593e-08   -2.425969e+00
    4.143474e+00    1.357325e+02    1.756642e+00    4.450017e+07    2.603193e-08    2.290952e-10    2.527322e-08   -2.420969e+00
    4.191116e+00    1.411749e+02    1.720419e+00    4.413369e+07    2.600242e-08    2.210406e-10    2.523985e-08   -2.415969e+00
    4.239723e+00    1.467746e+02    1.684538e+00    4.376462e+07    2.597260e-08    2.132838e-10    2.520577e-08   -2.410969e+00
    4.289333e+00    1.525347e+02    1.649000e+00    4.339303e+07    2.594243e-08    2.058133e-10    2.517097e-08   -2.405969e+00
    4.339975e+00    1.584582e+02    1.613808e+00    4.301899e+07    2.591188e-08    1.986180e-10    2.513543e-08   -2.400969e+00
    4.391683e+00    1.645482e+02    1.578962e+00    4.264251e+07    2.588094e-08    1.916872e-10    2.509915e-08   -2.395969e+00
    4.444494e+00    1.708080e+02    1.544465e+00    4.226366e+07    2.584958e-08    1.850109e-10    2.506209e-08   -2.390969e+00
    4.498445e+00    1.772413e+02    1.510319e+00    4.188250e+07    2.581776e-08    1.785790e-10    2.502424e-08   -2.385969e+00
    4.553567e+00    1.838512e+02    1.476525e+00    4.149900e+07    2.578547e-08    1.723822e-10    2.498556e-08   -2.380969e+00
    4.609905e+00    1.906416e+02    1.443085e+00    4.111323e+07    2.575268e-08    1.664115e-10    2.494604e-08   -2.375969e+00
    4.667498e+00    1.976162e+02    1.410000e+00    4.072522e+07    2.571936e-08    1.606580e-10    2.490565e-08   -2.370969e+00
    4.726389e+00    2.047791e+02    1.377274e+00    4.033499e+07    2.568549e-08    1.551134e-10    2.486436e-08   -2.365969e+00
    4.786615e+00    2.121342e+02    1.344906e+00    3.994255e+07    2.565102e-08    1.497697e-10    2.482217e-08   -2.360969e+00
    4.848227e+00    2.196858e+02    1.312899e+00    3.954793e+07    2.561595e-08    1.446191e-10    2.477902e-08   -2.355969e+00
    4.911267e+00    2.274383e+02    1.281254e+00    3.915113e+07    2.558024e-08    1.396543e-10    2.473490e-08   -2.350969e+00
    4.975781e+00    2.353960e+02    1.249973e+00    3.875216e+07    2.554385e-08    1.348680e-10    2.468978e-08   -2.345969e+00
    5.041821e+00    2.435637e+02    1.219059e+00    3.835100e+07    2.550676e-08    1.302534e-10    2.464363e-08   -2.340969e+00
    5.109439e+00    2.519463e+02    1.188511e+00    3.794770e+07    2.546896e-08    1.258040e-10    2.459642e-08   -2.335969e+00
    5.178684e+00    2.605486e+02    1.158333e+00    3.754223e+07    2.543038e-08    1.215134e-10    2.454812e-08   -2.330969e+00
    5.249611e+00    2.693759e+02    1.128526e+00    3.713459e+07    2.539102e-08    1.173757e-10    2.449869e-08   -2.325969e+00
    5.322278e+00    2.784334e+02    1.099091e+00    3.672477e+07    2.535083e-08    1.133849e-10    2.444811e-08   -2.320969e+00
    5.396739e+00    2.877264e+02    1.070029e+00    3.631273e+07    2.530978e-08    1.095356e-10    2.439633e-08   -2.315969e+00
    5.473062e+00    2.972607e+02    1.041344e+00    3.589851e+07    2.526785e-08    1.058222e-10    2.434332e-08   -2.310969e+00
    5.551296e+00    3.070419e+02    1.013036e+00    3.548203e+07    2.522500e-08    1.022398e-10    2.428905e-08   -2.305969e+00
    5.631520e+00    3.170762e+02    9.851080e-01    3.506335e+07    2.518119e-08    9.878330e-11    2.423348e-08   -2.300969e+00
    5.713785e+00    3.273690e+02    9.575605e-01    3.464236e+07    2.513639e-08    9.544805e-11    2.417657e-08   -2.295969e+00
    5.798169e+00    3.379270e+02    9.303955e-01    3.421907e+07    2.509056e-08    9.222945e-11    2.411828e-08   -2.290969e+00
    5.884741e+00    3.487563e+02    9.036150e-01    3.379347e+07    2.504368e-08    8.912315e-11    2.405858e-08   -2.285969e+00
    5.973563e+00    3.598632e+02    8.772210e-01    3.336549e+07    2.499569e-08    8.612495e-11    2.399742e-08   -2.280969e+00
    6.064717e+00    3.712539e+02    8.512145e-01    3.293508e+07    2.494657e-08    8.323080e-11    2.393476e-08   -2.275969e+00
    6.158279e+00    3.829354e+02    8.255975e-01    3.250224e+07    2.489629e-08    8.043690e-11    2.387055e-08   -2.270969e+00
    6.254325e+00    3.949143e+02    8.003725e-01    3.206693e+07    2.484479e-08    7.773950e-11    2.380476e-08   -2.265969e+00
    6.352933e+00    4.071968e+02    7.755405e-01    3.162908e+07    2.479204e-08    7.513500e-11    2.373733e-08   -2.260969e+00
    6.454185e+00    4.197897e+02    7.511035e-01    3.118864e+07    2.473802e-08    7.262005e-11    2.366822e-08   -2.255969e+00
    6.558164e+00    4.326997e+02    7.270635e-01    3.074559e+07    2.468266e-08    7.019125e-11    2.359740e-08   -2.250969e+00
    6.664956e+00    4.459332e+02    7.034220e-01    3.029987e+07    2.462593e-08    6.784560e-11    2.352480e-08   -2.245969e+00
    6.774639e+00    4.594964e+02    6.801815e-01    2.985141e+07    2.456780e-08    6.557990e-11    2.345039e-08   -2.240969e+00
    6.887309e+00    4.733959e+02    6.573430e-01    2.940019e+07    2.450822e-08    6.339140e-11    2.337410e-08   -2.235969e+00
    7.003052e+00    4.876374e+02    6.349085e-01    2.894613e+07    2.444715e-08    6.127715e-11    2.329590e-08   -2.230969e+00
    7.121949e+00    5.022268e+02    6.128805e-01    2.848919e+07    2.438455e-08    5.923460e-11    2.321573e-08   -2.225969e+00
    7.244097e+00    5.171693e+02    5.912600e-01    2.802933e+07    2.432037e-08    5.726110e-11    2.313354e-08   -2.220969e+00
    7.369575e+00    5.324699e+02    5.700495e-01    2.756649e+07    2.425458e-08    5.535415e-11    2.304928e-08   -2.215969e+00
    7.498476e+00    5.481332e+02    5.492505e-01    2.710063e+07    2.418713e-08    5.351135e-11    2.296290e-08   -2.210969e+00
    7.630881e+00    5.641630e+02    5.288650e-01    2.663170e+07    2.411797e-08    5.173050e-11    2.287434e-08   -2.205969e+00
    7.766888e+00    5.805622e+02    5.088940e-01    2.615967e+07    2.404707e-08    5.000935e-11    2.278356e-08   -2.200969e+00
    7.906561e+00    5.973331e+02    4.893402e-01    2.568451e+07    2.397438e-08    4.834575e-11    2.269049e-08   -2.195969e+00
    8.049991e+00    6.144768e+02    4.702047e-01    2.520619e+07    2.389985e-08    4.673771e-11    2.259509e-08   -2.190969e+00
    8.197247e+00    6.319945e+02    4.514893e-01    2.472469e+07    2.382346e-08    4.518325e-11    2.249730e-08   -2.185969e+00
    8.348403e+00    6.498840e+02    4.331955e-01    2.424000e+07    2.374515e-08    4.368050e-11    2.239708e-08   -2.180969e+00
    8.503518e+00    6.681434e+02    4.153249e-01    2.375214e+07    2.366487e-08    4.222766e-11    2.229435e-08   -2.175969e+00
    8.662653e+00    6.867685e+02    3.978787e-01    2.326110e+07    2.358259e-08    4.082296e-11    2.218908e-08   -2.170969e+00
    8.825850e+00    7.057539e+02    3.808584e-01    2.276693e+07    2.349826e-08    3.946476e-11    2.208121e-08   -2.165969e+00
    8.993151e+00    7.250914e+02    3.642651e-01    2.226968e+07    2.341185e-08    3.815143e-11    2.197069e-08   -2.160969e+00
    9.164579e+00    7.447711e+02    3.480998e-01    2.176940e+07    2.332330e-08    3.688142e-11    2.185746e-08   -2.155969e+00
    9.340150e+00    7.647806e+02    3.323635e-01    2.126619e+07    2.323259e-08    3.565325e-11    2.174148e-08   -2.150969e+00
    9.519860e+00    7.851050e+02    3.170568e-01    2.076016e+07    2.313967e-08    3.446549e-11    2.162269e-08   -2.145969e+00
    9.703692e+00    8.057263e+02    3.021802e-01    2.025143e+07    2.304451e-08    3.331675e-11    2.150105e-08   -2.140969e+00
    9.891603e+00    8.266237e+02    2.877342e-01    1.974018e+07    2.294707e-08    3.220570e-11    2.137651e-08   -2.135969e+00
    1.008354e+01    8.477729e+02    2.737187e-01    1.922661e+07    2.284730e-08    3.113106e-11    2.124901e-08   -2.130969e+00
    1.027941e+01    8.691462e+02    2.601335e-01    1.871093e+07    2.274519e-08    3.009161e-11    2.111853e-08   -2.125969e+00
    1.047912e+01    8.907118e+02    2.469783e-01    1.819341e+07    2.264068e-08    2.908616e-11    2.098502e-08   -2.120969e+00
    1.068252e+01    9.124344e+02    2.342521e-01    1.767435e+07    2.253377e-08    2.811355e-11    2.084842e-08   -2.115969e+00
    1.088945e+01    9.342743e+02    2.219539e-01    1.715409e+07    2.242442e-08    2.717270e-11    2.070871e-08   -2.110969e+00
    1.109971e+01    9.561876e+02    2.100820e-01    1.663300e+07    2.231259e-08    2.626255e-11    2.056586e-08   -2.105969e+00
    1.131306e+01    9.781259e+02    1.986347e-01    1.611150e+07    2.219827e-08    2.538208e-11    2.041983e-08   -2.100969e+00
    1.152923e+01    1.000037e+03    1.876095e-01    1.559007e+07    2.208144e-08    2.453029e-11    2.027058e-08   -2.095969e+00
    1.174791e+01    1.021863e+03    1.770037e-01    1.506919e+07    2.196207e-08    2.370624e-11    2.011809e-08   -2.090969e+00
    1.196876e+01    1.043544e+03    1.668140e-01    1.454943e+07    2.184016e-08    2.290901e-11    1.996235e-08   -2.085969e+00
    1.219136e+01    1.065014e+03    1.570368e-01    1.403138e+07    2.171568e-08    2.213773e-11    1.980332e-08   -2.080969e+00
    1.241530e+01    1.086203e+03    1.476677e-01    1.351567e+07    2.158864e-08    2.139154e-11    1.964101e-08   -2.075969e+00
    1.264010e+01    1.107038e+03    1.387017e-01    1.300297e+07    2.145902e-08    2.066963e-11    1.947538e-08   -2.070969e+00
    1.286522e+01    1.127445e+03    1.301337e-01    1.249398e+07    2.132683e-08    1.997120e-11    1.930644e-08   -2.065969e+00
    1.309011e+01    1.147344e+03    1.219576e-01    1.198945e+07    2.119206e-08    1.929548e-11    1.913419e-08   -2.060969e+00
    1.331417e+01    1.166655e+03    1.141671e-01    1.149015e+07    2.105472e-08    1.864175e-11    1.895862e-08   -2.055969e+00
    1.353676e+01    1.185298e+03    1.067548e-01    1.099684e+07    2.091482e-08    1.800930e-11    1.877975e-08   -2.050969e+00
    1.375721e+01    1.203192e+03    9.971325e-02    1.051035e+07    2.077239e-08    1.739742e-11    1.859759e-08   -2.045969e+00
    1.397482e+01    1.220255e+03    9.303420e-02    1.003146e+07    2.062743e-08    1.680547e-11    1.841216e-08   -2.040969e+00
    1.418887e+01    1.236410e+03    8.670890e-02    9.560977e+06    2.047998e-08    1.623282e-11    1.822349e-08   -2.035969e+00
