# sky130 pfet_01v8 gm/ID Processed Lookup Table
# Corner: fs
# Temperature: 25C
# W = 2.0 um
# L = 5.4 um (5400 nm)
# Columns: gm/id [1/V]  gm/gds [V/V]  id/W [A/m]  ft [Hz]  Cgg/W [F/m]  Cgd/W [F/m]  Cgs/W [F/m]  Vov [V]
#         gm/id          gm/gds            id/W              ft           Cgg/W           Cgd/W           Cgs/W             Vov
    1.937981e+00    4.336222e+00    4.069287e+00    3.475821e+07    3.611026e-08    3.907796e-09    3.280243e-08   -2.793399e+00
    1.958606e+00    4.486975e+00    4.029839e+00    3.486206e+07    3.603311e-08    3.802765e-09    3.281091e-08   -2.788399e+00
    1.979507e+00    4.646375e+00    3.990359e+00    3.496322e+07    3.595654e-08    3.699059e-09    3.281867e-08   -2.783399e+00
    2.000684e+00    4.815045e+00    3.950851e+00    3.506146e+07    3.588056e-08    3.596737e-09    3.282574e-08   -2.778399e+00
    2.022135e+00    4.993664e+00    3.911316e+00    3.515658e+07    3.580524e-08    3.495856e-09    3.283208e-08   -2.773399e+00
    2.043858e+00    5.182958e+00    3.871760e+00    3.524834e+07    3.573061e-08    3.396469e-09    3.283769e-08   -2.768399e+00
    2.065848e+00    5.383710e+00    3.832184e+00    3.533652e+07    3.565669e-08    3.298629e-09    3.284256e-08   -2.763399e+00
    2.088104e+00    5.596767e+00    3.792594e+00    3.542088e+07    3.558355e-08    3.202381e-09    3.284668e-08   -2.758399e+00
    2.110621e+00    5.823040e+00    3.752992e+00    3.550119e+07    3.551119e-08    3.107771e-09    3.285004e-08   -2.753399e+00
    2.133397e+00    6.063509e+00    3.713384e+00    3.557723e+07    3.543965e-08    3.014839e-09    3.285266e-08   -2.748399e+00
    2.156424e+00    6.319225e+00    3.673773e+00    3.564874e+07    3.536897e-08    2.923624e-09    3.285451e-08   -2.743399e+00
    2.179696e+00    6.591310e+00    3.634163e+00    3.571544e+07    3.529916e-08    2.834159e-09    3.285560e-08   -2.738399e+00
    2.203210e+00    6.880985e+00    3.594561e+00    3.577716e+07    3.523026e-08    2.746476e-09    3.285592e-08   -2.733399e+00
    2.226959e+00    7.189551e+00    3.554969e+00    3.583365e+07    3.516229e-08    2.660601e-09    3.285548e-08   -2.728399e+00
    2.250935e+00    7.518383e+00    3.515395e+00    3.588465e+07    3.509526e-08    2.576557e-09    3.285427e-08   -2.723399e+00
    2.275131e+00    7.868969e+00    3.475842e+00    3.592993e+07    3.502920e-08    2.494362e-09    3.285229e-08   -2.718399e+00
    2.299542e+00    8.242898e+00    3.436317e+00    3.596932e+07    3.496411e-08    2.414033e-09    3.284955e-08   -2.713399e+00
    2.324159e+00    8.641843e+00    3.396824e+00    3.600257e+07    3.490001e-08    2.335581e-09    3.284604e-08   -2.708399e+00
    2.348975e+00    9.067598e+00    3.357371e+00    3.602950e+07    3.483691e-08    2.259014e-09    3.284178e-08   -2.703399e+00
    2.373984e+00    9.522065e+00    3.317962e+00    3.604994e+07    3.477482e-08    2.184337e-09    3.283676e-08   -2.698399e+00
    2.399177e+00    1.000724e+01    3.278605e+00    3.606370e+07    3.471374e-08    2.111550e-09    3.283101e-08   -2.693399e+00
    2.424549e+00    1.052525e+01    3.239305e+00    3.607064e+07    3.465367e-08    2.040652e-09    3.282450e-08   -2.688399e+00
    2.450093e+00    1.107834e+01    3.200069e+00    3.607061e+07    3.459461e-08    1.971636e-09    3.281726e-08   -2.683399e+00
    2.475806e+00    1.166885e+01    3.160903e+00    3.606357e+07    3.453656e-08    1.904493e-09    3.280929e-08   -2.678399e+00
    2.501679e+00    1.229926e+01    3.121813e+00    3.604935e+07    3.447952e-08    1.839211e-09    3.280060e-08   -2.673399e+00
    2.527711e+00    1.297213e+01    3.082807e+00    3.602792e+07    3.442347e-08    1.775776e-09    3.279119e-08   -2.668399e+00
    2.553899e+00    1.369019e+01    3.043891e+00    3.599925e+07    3.436841e-08    1.714169e-09    3.278106e-08   -2.663399e+00
    2.580239e+00    1.445621e+01    3.005071e+00    3.596327e+07    3.431433e-08    1.654371e-09    3.277025e-08   -2.658399e+00
    2.606731e+00    1.527315e+01    2.966355e+00    3.592003e+07    3.426122e-08    1.596359e-09    3.275874e-08   -2.653399e+00
    2.633375e+00    1.614399e+01    2.927749e+00    3.586953e+07    3.420905e-08    1.540109e-09    3.274654e-08   -2.648399e+00
    2.660174e+00    1.707188e+01    2.889258e+00    3.581184e+07    3.415781e-08    1.485593e-09    3.273367e-08   -2.643399e+00
    2.687126e+00    1.806002e+01    2.850892e+00    3.574696e+07    3.410749e-08    1.432784e-09    3.272013e-08   -2.638399e+00
    2.714239e+00    1.911174e+01    2.812654e+00    3.567506e+07    3.405805e-08    1.381652e-09    3.270593e-08   -2.633399e+00
    2.741517e+00    2.023045e+01    2.774551e+00    3.559620e+07    3.400949e-08    1.332165e-09    3.269107e-08   -2.628399e+00
    2.768964e+00    2.141959e+01    2.736591e+00    3.551049e+07    3.396179e-08    1.284289e-09    3.267558e-08   -2.623399e+00
    2.796588e+00    2.268275e+01    2.698778e+00    3.541809e+07    3.391491e-08    1.237992e-09    3.265944e-08   -2.618399e+00
    2.824396e+00    2.402352e+01    2.661119e+00    3.531913e+07    3.386883e-08    1.193239e-09    3.264267e-08   -2.613399e+00
    2.852401e+00    2.544561e+01    2.623620e+00    3.521378e+07    3.382352e-08    1.149993e-09    3.262528e-08   -2.608399e+00
    2.880609e+00    2.695271e+01    2.586285e+00    3.510220e+07    3.377897e-08    1.108219e-09    3.260727e-08   -2.603399e+00
    2.909035e+00    2.854865e+01    2.549121e+00    3.498460e+07    3.373514e-08    1.067880e-09    3.258865e-08   -2.598399e+00
    2.937687e+00    3.023720e+01    2.512132e+00    3.486110e+07    3.369201e-08    1.028939e-09    3.256942e-08   -2.593399e+00
    2.966580e+00    3.202224e+01    2.475324e+00    3.473194e+07    3.364954e-08    9.913575e-10    3.254958e-08   -2.588399e+00
    2.995729e+00    3.390765e+01    2.438701e+00    3.459730e+07    3.360771e-08    9.550995e-10    3.252915e-08   -2.583399e+00
    3.025143e+00    3.589731e+01    2.402268e+00    3.445733e+07    3.356648e-08    9.201275e-10    3.250813e-08   -2.578399e+00
    3.054843e+00    3.799516e+01    2.366030e+00    3.431228e+07    3.352584e-08    8.864040e-10    3.248651e-08   -2.573399e+00
    3.084840e+00    4.020511e+01    2.329991e+00    3.416229e+07    3.348575e-08    8.538915e-10    3.246429e-08   -2.568399e+00
    3.115151e+00    4.253111e+01    2.294155e+00    3.400757e+07    3.344617e-08    8.225535e-10    3.244150e-08   -2.563399e+00
    3.145793e+00    4.497707e+01    2.258526e+00    3.384830e+07    3.340708e-08    7.923540e-10    3.241812e-08   -2.558399e+00
    3.176783e+00    4.754697e+01    2.223108e+00    3.368466e+07    3.336845e-08    7.632565e-10    3.239415e-08   -2.553399e+00
    3.208137e+00    5.024472e+01    2.187904e+00    3.351682e+07    3.333024e-08    7.352260e-10    3.236960e-08   -2.548399e+00
    3.239873e+00    5.307425e+01    2.152918e+00    3.334495e+07    3.329243e-08    7.082270e-10    3.234446e-08   -2.543399e+00
    3.272009e+00    5.603950e+01    2.118153e+00    3.316922e+07    3.325498e-08    6.822260e-10    3.231873e-08   -2.538399e+00
    3.304561e+00    5.914432e+01    2.083613e+00    3.298976e+07    3.321787e-08    6.571895e-10    3.229241e-08   -2.533399e+00
    3.337549e+00    6.239267e+01    2.049300e+00    3.280675e+07    3.318106e-08    6.330835e-10    3.226550e-08   -2.528399e+00
    3.370992e+00    6.578839e+01    2.015217e+00    3.262030e+07    3.314451e-08    6.098770e-10    3.223798e-08   -2.523399e+00
    3.404908e+00    6.933546e+01    1.981368e+00    3.243059e+07    3.310822e-08    5.875375e-10    3.220987e-08   -2.518399e+00
    3.439319e+00    7.303772e+01    1.947755e+00    3.223775e+07    3.307213e-08    5.660355e-10    3.218114e-08   -2.513399e+00
    3.474242e+00    7.689897e+01    1.914379e+00    3.204186e+07    3.303621e-08    5.453405e-10    3.215181e-08   -2.508399e+00
    3.509697e+00    8.092319e+01    1.881245e+00    3.184309e+07    3.300045e-08    5.254230e-10    3.212185e-08   -2.503399e+00
    3.545709e+00    8.511425e+01    1.848354e+00    3.164156e+07    3.296480e-08    5.062555e-10    3.209127e-08   -2.498399e+00
    3.582290e+00    8.947587e+01    1.815708e+00    3.143730e+07    3.292925e-08    4.878105e-10    3.206004e-08   -2.493399e+00
    3.619471e+00    9.401209e+01    1.783311e+00    3.123049e+07    3.289375e-08    4.700610e-10    3.202817e-08   -2.488399e+00
    3.657264e+00    9.872662e+01    1.751163e+00    3.102118e+07    3.285827e-08    4.529813e-10    3.199564e-08   -2.483399e+00
    3.695701e+00    1.036236e+02    1.719267e+00    3.080950e+07    3.282279e-08    4.365465e-10    3.196244e-08   -2.478399e+00
    3.734797e+00    1.087069e+02    1.687625e+00    3.059551e+07    3.278728e-08    4.207321e-10    3.192857e-08   -2.473399e+00
    3.774578e+00    1.139802e+02    1.656238e+00    3.037929e+07    3.275169e-08    4.055150e-10    3.189401e-08   -2.468399e+00
    3.815067e+00    1.194478e+02    1.625109e+00    3.016091e+07    3.271602e-08    3.908723e-10    3.185873e-08   -2.463399e+00
    3.856290e+00    1.251135e+02    1.594240e+00    2.994047e+07    3.268021e-08    3.767823e-10    3.182273e-08   -2.458399e+00
    3.898269e+00    1.309814e+02    1.563631e+00    2.971800e+07    3.264425e-08    3.632236e-10    3.178601e-08   -2.453399e+00
    3.941034e+00    1.370556e+02    1.533286e+00    2.949360e+07    3.260810e-08    3.501761e-10    3.174852e-08   -2.448399e+00
    3.984604e+00    1.433401e+02    1.503205e+00    2.926729e+07    3.257173e-08    3.376200e-10    3.171028e-08   -2.443399e+00
    4.029013e+00    1.498393e+02    1.473390e+00    2.903916e+07    3.253512e-08    3.255363e-10    3.167123e-08   -2.438399e+00
    4.074286e+00    1.565574e+02    1.443842e+00    2.880924e+07    3.249822e-08    3.139068e-10    3.163140e-08   -2.433399e+00
    4.120451e+00    1.634986e+02    1.414564e+00    2.857758e+07    3.246101e-08    3.027139e-10    3.159073e-08   -2.428399e+00
    4.167536e+00    1.706673e+02    1.385556e+00    2.834421e+07    3.242345e-08    2.919405e-10    3.154921e-08   -2.423399e+00
    4.215576e+00    1.780681e+02    1.356820e+00    2.810921e+07    3.238552e-08    2.815703e-10    3.150684e-08   -2.418399e+00
    4.264602e+00    1.857055e+02    1.328359e+00    2.787260e+07    3.234719e-08    2.715878e-10    3.146356e-08   -2.413399e+00
    4.314637e+00    1.935840e+02    1.300172e+00    2.763437e+07    3.230841e-08    2.619778e-10    3.141938e-08   -2.408399e+00
    4.365726e+00    2.017086e+02    1.272261e+00    2.739461e+07    3.226917e-08    2.527256e-10    3.137425e-08   -2.403399e+00
    4.417895e+00    2.100838e+02    1.244629e+00    2.715332e+07    3.222942e-08    2.438174e-10    3.132817e-08   -2.398399e+00
    4.471186e+00    2.187150e+02    1.217276e+00    2.691054e+07    3.218913e-08    2.352398e-10    3.128109e-08   -2.393399e+00
    4.525633e+00    2.276070e+02    1.190203e+00    2.666629e+07    3.214828e-08    2.269797e-10    3.123300e-08   -2.388399e+00
    4.581272e+00    2.367649e+02    1.163412e+00    2.642058e+07    3.210682e-08    2.190249e-10    3.118385e-08   -2.383399e+00
    4.638140e+00    2.461940e+02    1.136904e+00    2.617341e+07    3.206472e-08    2.113634e-10    3.113363e-08   -2.378399e+00
    4.696285e+00    2.559000e+02    1.110681e+00    2.592485e+07    3.202195e-08    2.039839e-10    3.108231e-08   -2.373399e+00
    4.755746e+00    2.658883e+02    1.084744e+00    2.567486e+07    3.197848e-08    1.968752e-10    3.102985e-08   -2.368399e+00
    4.816567e+00    2.761648e+02    1.059094e+00    2.542350e+07    3.193425e-08    1.900269e-10    3.097621e-08   -2.363399e+00
    4.878789e+00    2.867351e+02    1.033732e+00    2.517073e+07    3.188925e-08    1.834288e-10    3.092137e-08   -2.358399e+00
    4.942459e+00    2.976051e+02    1.008661e+00    2.491658e+07    3.184343e-08    1.770712e-10    3.086529e-08   -2.353399e+00
    5.007628e+00    3.087811e+02    9.838800e-01    2.466105e+07    3.179676e-08    1.709447e-10    3.080792e-08   -2.348399e+00
    5.074345e+00    3.202695e+02    9.593920e-01    2.440414e+07    3.174920e-08    1.650405e-10    3.074925e-08   -2.343399e+00
    5.142662e+00    3.320765e+02    9.351975e-01    2.414585e+07    3.170070e-08    1.593499e-10    3.068922e-08   -2.338399e+00
    5.212628e+00    3.442086e+02    9.112985e-01    2.388619e+07    3.165124e-08    1.538647e-10    3.062780e-08   -2.333399e+00
    5.284303e+00    3.566727e+02    8.876955e-01    2.362513e+07    3.160077e-08    1.485769e-10    3.056495e-08   -2.328399e+00
    5.357742e+00    3.694755e+02    8.643900e-01    2.336269e+07    3.154924e-08    1.434790e-10    3.050062e-08   -2.323399e+00
    5.433000e+00    3.826237e+02    8.413840e-01    2.309883e+07    3.149663e-08    1.385637e-10    3.043477e-08   -2.318399e+00
    5.510140e+00    3.961247e+02    8.186785e-01    2.283356e+07    3.144289e-08    1.338239e-10    3.036736e-08   -2.313399e+00
    5.589228e+00    4.099855e+02    7.962740e-01    2.256687e+07    3.138797e-08    1.292530e-10    3.029834e-08   -2.308399e+00
    5.670322e+00    4.242133e+02    7.741730e-01    2.229873e+07    3.133184e-08    1.248446e-10    3.022766e-08   -2.303399e+00
    5.753490e+00    4.388156e+02    7.523765e-01    2.202912e+07    3.127444e-08    1.205923e-10    3.015527e-08   -2.298399e+00
    5.838804e+00    4.537996e+02    7.308855e-01    2.175804e+07    3.121574e-08    1.164904e-10    3.008114e-08   -2.293399e+00
    5.926328e+00    4.691727e+02    7.097020e-01    2.148545e+07    3.115569e-08    1.125331e-10    3.000519e-08   -2.288399e+00
    6.016138e+00    4.849424e+02    6.888270e-01    2.121134e+07    3.109424e-08    1.087150e-10    2.992740e-08   -2.283399e+00
    6.108310e+00    5.011160e+02    6.682615e-01    2.093568e+07    3.103135e-08    1.050307e-10    2.984770e-08   -2.278399e+00
    6.202912e+00    5.177013e+02    6.480080e-01    2.065843e+07    3.096697e-08    1.014754e-10    2.976604e-08   -2.273399e+00
    6.300029e+00    5.347049e+02    6.280670e-01    2.037959e+07    3.090105e-08    9.804415e-11    2.968235e-08   -2.268399e+00
    6.399740e+00    5.521343e+02    6.084400e-01    2.009911e+07    3.083355e-08    9.473230e-11    2.959660e-08   -2.263399e+00
    6.502126e+00    5.699962e+02    5.891285e-01    1.981696e+07    3.076441e-08    9.153545e-11    2.950870e-08   -2.258399e+00
    6.607264e+00    5.882972e+02    5.701345e-01    1.953312e+07    3.069358e-08    8.844935e-11    2.941863e-08   -2.253399e+00
    6.715241e+00    6.070444e+02    5.514590e-01    1.924755e+07    3.062101e-08    8.546980e-11    2.932631e-08   -2.248399e+00
    6.826142e+00    6.262427e+02    5.331035e-01    1.896021e+07    3.054666e-08    8.259300e-11    2.923168e-08   -2.243399e+00
    6.940059e+00    6.458980e+02    5.150690e-01    1.867109e+07    3.047047e-08    7.981510e-11    2.913467e-08   -2.238399e+00
    7.057072e+00    6.660162e+02    4.973577e-01    1.838013e+07    3.039239e-08    7.713245e-11    2.903524e-08   -2.233399e+00
    7.177268e+00    6.865999e+02    4.799706e-01    1.808731e+07    3.031237e-08    7.454165e-11    2.893331e-08   -2.228399e+00
    7.300735e+00    7.076538e+02    4.629093e-01    1.779261e+07    3.023034e-08    7.203925e-11    2.882883e-08   -2.223399e+00
    7.427559e+00    7.291799e+02    4.461753e-01    1.749598e+07    3.014627e-08    6.962215e-11    2.872172e-08   -2.218399e+00
    7.557827e+00    7.511801e+02    4.297699e-01    1.719740e+07    3.006010e-08    6.728715e-11    2.861193e-08   -2.213399e+00
    7.691623e+00    7.736548e+02    4.136945e-01    1.689684e+07    2.997176e-08    6.503140e-11    2.849937e-08   -2.208399e+00
    7.829025e+00    7.966029e+02    3.979506e-01    1.659429e+07    2.988123e-08    6.285195e-11    2.838401e-08   -2.203399e+00
    7.970118e+00    8.200222e+02    3.825393e-01    1.628972e+07    2.978842e-08    6.074615e-11    2.826577e-08   -2.198399e+00
    8.114972e+00    8.439081e+02    3.674622e-01    1.598311e+07    2.969329e-08    5.871130e-11    2.814457e-08   -2.193399e+00
    8.263661e+00    8.682548e+02    3.527203e-01    1.567447e+07    2.959580e-08    5.674495e-11    2.802035e-08   -2.188399e+00
    8.416246e+00    8.930540e+02    3.383149e-01    1.536379e+07    2.949588e-08    5.484460e-11    2.789306e-08   -2.183399e+00
    8.572790e+00    9.182952e+02    3.242472e-01    1.505107e+07    2.939348e-08    5.300795e-11    2.776261e-08   -2.178399e+00
    8.733342e+00    9.439654e+02    3.105182e-01    1.473634e+07    2.928856e-08    5.123275e-11    2.762896e-08   -2.173399e+00
    8.897940e+00    9.700483e+02    2.971289e-01    1.441961e+07    2.918105e-08    4.951682e-11    2.749202e-08   -2.168399e+00
    9.066616e+00    9.965246e+02    2.840802e-01    1.410093e+07    2.907090e-08    4.785813e-11    2.735174e-08   -2.163399e+00
    9.239389e+00    1.023373e+03    2.713727e-01    1.378033e+07    2.895809e-08    4.625466e-11    2.720806e-08   -2.158399e+00
    9.416265e+00    1.050566e+03    2.590072e-01    1.345790e+07    2.884253e-08    4.470448e-11    2.706091e-08   -2.153399e+00
    9.597229e+00    1.078073e+03    2.469840e-01    1.313370e+07    2.872419e-08    4.320577e-11    2.691022e-08   -2.148399e+00
    9.782252e+00    1.105862e+03    2.353036e-01    1.280783e+07    2.860304e-08    4.175674e-11    2.675596e-08   -2.143399e+00
    9.971281e+00    1.133892e+03    2.239661e-01    1.248040e+07    2.847900e-08    4.035567e-11    2.659805e-08   -2.138399e+00
    1.016425e+01    1.162120e+03    2.129713e-01    1.215155e+07    2.835207e-08    3.900093e-11    2.643644e-08   -2.133399e+00
    1.036106e+01    1.190498e+03    2.023190e-01    1.182144e+07    2.822218e-08    3.769094e-11    2.627107e-08   -2.128399e+00
    1.056158e+01    1.218972e+03    1.920087e-01    1.149024e+07    2.808929e-08    3.642417e-11    2.610190e-08   -2.123399e+00
    1.076568e+01    1.247484e+03    1.820395e-01    1.115817e+07    2.795338e-08    3.519914e-11    2.592887e-08   -2.118399e+00
    1.097315e+01    1.275968e+03    1.724105e-01    1.082543e+07    2.781441e-08    3.401446e-11    2.575195e-08   -2.113399e+00
    1.118379e+01    1.304355e+03    1.631202e-01    1.049231e+07    2.767234e-08    3.286877e-11    2.557108e-08   -2.108399e+00
    1.139735e+01    1.332571e+03    1.541668e-01    1.015906e+07    2.752716e-08    3.176073e-11    2.538625e-08   -2.103399e+00
    1.161353e+01    1.360535e+03    1.455484e-01    9.826007e+06    2.737884e-08    3.068910e-11    2.519740e-08   -2.098399e+00
    1.183201e+01    1.388160e+03    1.372627e-01    9.493482e+06    2.722735e-08    2.965267e-11    2.500451e-08   -2.093399e+00
    1.205241e+01    1.415358e+03    1.293065e-01    9.161852e+06    2.707268e-08    2.865024e-11    2.480755e-08   -2.088399e+00
    1.227433e+01    1.442033e+03    1.216769e-01    8.831504e+06    2.691483e-08    2.768071e-11    2.460650e-08   -2.083399e+00
    1.249732e+01    1.468089e+03    1.143702e-01    8.502856e+06    2.675377e-08    2.674298e-11    2.440135e-08   -2.078399e+00
    1.272087e+01    1.493423e+03    1.073823e-01    8.176347e+06    2.658951e-08    2.583600e-11    2.419209e-08   -2.073399e+00
    1.294445e+01    1.517932e+03    1.007087e-01    7.852434e+06    2.642204e-08    2.495875e-11    2.397872e-08   -2.068399e+00
    1.316749e+01    1.541512e+03    9.434440e-02    7.531595e+06    2.625138e-08    2.411026e-11    2.376122e-08   -2.063399e+00
    1.338937e+01    1.564060e+03    8.828400e-02    7.214328e+06    2.607754e-08    2.328960e-11    2.353963e-08   -2.058399e+00
    1.360945e+01    1.585473e+03    8.252170e-02    6.901132e+06    2.590052e-08    2.249584e-11    2.331393e-08   -2.053399e+00
    1.382705e+01    1.605647e+03    7.705110e-02    6.592518e+06    2.572037e-08    2.172812e-11    2.308418e-08   -2.048399e+00
    1.404148e+01    1.624491e+03    7.186545e-02    6.289003e+06    2.553710e-08    2.098559e-11    2.285038e-08   -2.043399e+00
    1.425200e+01    1.641910e+03    6.695765e-02    5.991085e+06    2.535075e-08    2.026743e-11    2.261258e-08   -2.038399e+00
