# sky130 pfet_01v8 gm/ID Processed Lookup Table
# Corner: fs
# Temperature: 25C
# W = 2.0 um
# L = 5.76 um (5760 nm)
# Columns: gm/id [1/V]  gm/gds [V/V]  id/W [A/m]  ft [Hz]  Cgg/W [F/m]  Cgd/W [F/m]  Cgs/W [F/m]  Vov [V]
#         gm/id          gm/gds            id/W              ft           Cgg/W           Cgd/W           Cgs/W             Vov
    1.941057e+00    4.381251e+00    3.805731e+00    3.051886e+07    3.852372e-08    4.208677e-09    3.497878e-08   -2.794007e+00
    1.961723e+00    4.534744e+00    3.768779e+00    3.061025e+07    3.844072e-08    4.095823e-09    3.498783e-08   -2.789007e+00
    1.982665e+00    4.697100e+00    3.731799e+00    3.069927e+07    3.835832e-08    3.984369e-09    3.499614e-08   -2.784007e+00
    2.003882e+00    4.868963e+00    3.694791e+00    3.078572e+07    3.827655e-08    3.874379e-09    3.500369e-08   -2.779007e+00
    2.025372e+00    5.051030e+00    3.657761e+00    3.086941e+07    3.819547e-08    3.765916e-09    3.501049e-08   -2.774007e+00
    2.047131e+00    5.244047e+00    3.620709e+00    3.095010e+07    3.811512e-08    3.659037e-09    3.501650e-08   -2.769007e+00
    2.069158e+00    5.448831e+00    3.583641e+00    3.102765e+07    3.803553e-08    3.553798e-09    3.502171e-08   -2.764007e+00
    2.091450e+00    5.666254e+00    3.546559e+00    3.110183e+07    3.795673e-08    3.450252e-09    3.502614e-08   -2.759007e+00
    2.114000e+00    5.897255e+00    3.509467e+00    3.117241e+07    3.787879e-08    3.348448e-09    3.502977e-08   -2.754007e+00
    2.136807e+00    6.142849e+00    3.472370e+00    3.123920e+07    3.780172e-08    3.248432e-09    3.503258e-08   -2.749007e+00
    2.159865e+00    6.404125e+00    3.435271e+00    3.130200e+07    3.772555e-08    3.150244e-09    3.503458e-08   -2.744007e+00
    2.183166e+00    6.682252e+00    3.398175e+00    3.136057e+07    3.765032e-08    3.053924e-09    3.503578e-08   -2.739007e+00
    2.206707e+00    6.978489e+00    3.361085e+00    3.141472e+07    3.757605e-08    2.959505e-09    3.503615e-08   -2.734007e+00
    2.230480e+00    7.294177e+00    3.324007e+00    3.146421e+07    3.750278e-08    2.867017e-09    3.503570e-08   -2.729007e+00
    2.254478e+00    7.630759e+00    3.286945e+00    3.150886e+07    3.743052e-08    2.776486e-09    3.503443e-08   -2.724007e+00
    2.278696e+00    7.989782e+00    3.249905e+00    3.154850e+07    3.735928e-08    2.687934e-09    3.503234e-08   -2.719007e+00
    2.303125e+00    8.372883e+00    3.212892e+00    3.158289e+07    3.728909e-08    2.601379e-09    3.502944e-08   -2.714007e+00
    2.327758e+00    8.781819e+00    3.175910e+00    3.161187e+07    3.721996e-08    2.516835e-09    3.502573e-08   -2.709007e+00
    2.352588e+00    9.218453e+00    3.138966e+00    3.163527e+07    3.715191e-08    2.434312e-09    3.502120e-08   -2.704007e+00
    2.377608e+00    9.684758e+00    3.102065e+00    3.165292e+07    3.708494e-08    2.353815e-09    3.501587e-08   -2.699007e+00
    2.402812e+00    1.018285e+01    3.065213e+00    3.166470e+07    3.701904e-08    2.275347e-09    3.500973e-08   -2.694007e+00
    2.428191e+00    1.071492e+01    3.028415e+00    3.167044e+07    3.695424e-08    2.198906e-09    3.500281e-08   -2.689007e+00
    2.453741e+00    1.128334e+01    2.991679e+00    3.167007e+07    3.689053e-08    2.124486e-09    3.499510e-08   -2.684007e+00
    2.479457e+00    1.189056e+01    2.955010e+00    3.166348e+07    3.682790e-08    2.052080e-09    3.498660e-08   -2.679007e+00
    2.505333e+00    1.253917e+01    2.918413e+00    3.165058e+07    3.676635e-08    1.981674e-09    3.497733e-08   -2.674007e+00
    2.531365e+00    1.323189e+01    2.881896e+00    3.163134e+07    3.670588e-08    1.913254e-09    3.496729e-08   -2.669007e+00
    2.557553e+00    1.397157e+01    2.845464e+00    3.160572e+07    3.664647e-08    1.846802e-09    3.495650e-08   -2.664007e+00
    2.583891e+00    1.476114e+01    2.809124e+00    3.157367e+07    3.658813e-08    1.782297e-09    3.494494e-08   -2.659007e+00
    2.610381e+00    1.560371e+01    2.772881e+00    3.153522e+07    3.653081e-08    1.719715e-09    3.493266e-08   -2.654007e+00
    2.637021e+00    1.650248e+01    2.736743e+00    3.149040e+07    3.647452e-08    1.659030e-09    3.491964e-08   -2.649007e+00
    2.663815e+00    1.746076e+01    2.700715e+00    3.143924e+07    3.641924e-08    1.600215e-09    3.490589e-08   -2.644007e+00
    2.690764e+00    1.848198e+01    2.664803e+00    3.138180e+07    3.636495e-08    1.543239e-09    3.489143e-08   -2.639007e+00
    2.717872e+00    1.956967e+01    2.629013e+00    3.131816e+07    3.631162e-08    1.488070e-09    3.487626e-08   -2.634007e+00
    2.745145e+00    2.072747e+01    2.593351e+00    3.124843e+07    3.625923e-08    1.434675e-09    3.486039e-08   -2.629007e+00
    2.772588e+00    2.195910e+01    2.557824e+00    3.117269e+07    3.620777e-08    1.383019e-09    3.484382e-08   -2.624007e+00
    2.800208e+00    2.326838e+01    2.522435e+00    3.109108e+07    3.615720e-08    1.333066e-09    3.482658e-08   -2.619007e+00
    2.828014e+00    2.465920e+01    2.487192e+00    3.100371e+07    3.610750e-08    1.284778e-09    3.480866e-08   -2.614007e+00
    2.856016e+00    2.613555e+01    2.452099e+00    3.091075e+07    3.605863e-08    1.238117e-09    3.479007e-08   -2.609007e+00
    2.884226e+00    2.770148e+01    2.417162e+00    3.081235e+07    3.601059e-08    1.193045e-09    3.477081e-08   -2.604007e+00
    2.912651e+00    2.936108e+01    2.382385e+00    3.070864e+07    3.596333e-08    1.149522e-09    3.475090e-08   -2.599007e+00
    2.941305e+00    3.111852e+01    2.347773e+00    3.059979e+07    3.591682e-08    1.107508e-09    3.473034e-08   -2.594007e+00
    2.970202e+00    3.297803e+01    2.313331e+00    3.048597e+07    3.587103e-08    1.066962e-09    3.470913e-08   -2.589007e+00
    2.999355e+00    3.494387e+01    2.279064e+00    3.036735e+07    3.582593e-08    1.027847e-09    3.468728e-08   -2.584007e+00
    3.028780e+00    3.702036e+01    2.244975e+00    3.024411e+07    3.578150e-08    9.901190e-10    3.466479e-08   -2.579007e+00
    3.058488e+00    3.921178e+01    2.211070e+00    3.011639e+07    3.573769e-08    9.537400e-10    3.464167e-08   -2.574007e+00
    3.088496e+00    4.152251e+01    2.177351e+00    2.998435e+07    3.569448e-08    9.186700e-10    3.461792e-08   -2.569007e+00
    3.118823e+00    4.395699e+01    2.143823e+00    2.984819e+07    3.565183e-08    8.848685e-10    3.459353e-08   -2.564007e+00
    3.149482e+00    4.651955e+01    2.110490e+00    2.970804e+07    3.560972e-08    8.522965e-10    3.456852e-08   -2.559007e+00
    3.180489e+00    4.921463e+01    2.077355e+00    2.956407e+07    3.556810e-08    8.209160e-10    3.454288e-08   -2.554007e+00
    3.211863e+00    5.204667e+01    2.044421e+00    2.941641e+07    3.552694e-08    7.906875e-10    3.451661e-08   -2.549007e+00
    3.243623e+00    5.502015e+01    2.011692e+00    2.926525e+07    3.548622e-08    7.615745e-10    3.448971e-08   -2.544007e+00
    3.275784e+00    5.813946e+01    1.979171e+00    2.911071e+07    3.544588e-08    7.335390e-10    3.446218e-08   -2.539007e+00
    3.308364e+00    6.140903e+01    1.946860e+00    2.895291e+07    3.540592e-08    7.065455e-10    3.443402e-08   -2.534007e+00
    3.341384e+00    6.483341e+01    1.914762e+00    2.879200e+07    3.536629e-08    6.805580e-10    3.440522e-08   -2.529007e+00
    3.374860e+00    6.841698e+01    1.882881e+00    2.862811e+07    3.532695e-08    6.555420e-10    3.437578e-08   -2.524007e+00
    3.408814e+00    7.216424e+01    1.851219e+00    2.846136e+07    3.528788e-08    6.314630e-10    3.434569e-08   -2.519007e+00
    3.443265e+00    7.607972e+01    1.819777e+00    2.829187e+07    3.524903e-08    6.082885e-10    3.431496e-08   -2.514007e+00
    3.478229e+00    8.016773e+01    1.788560e+00    2.811972e+07    3.521039e-08    5.859860e-10    3.428355e-08   -2.509007e+00
    3.513731e+00    8.443295e+01    1.757567e+00    2.794504e+07    3.517191e-08    5.645240e-10    3.425150e-08   -2.504007e+00
    3.549789e+00    8.887972e+01    1.726804e+00    2.776794e+07    3.513356e-08    5.438715e-10    3.421876e-08   -2.499007e+00
    3.586421e+00    9.351250e+01    1.696271e+00    2.758847e+07    3.509530e-08    5.239995e-10    3.418534e-08   -2.494007e+00
    3.623654e+00    9.833590e+01    1.665969e+00    2.740676e+07    3.505711e-08    5.048790e-10    3.415123e-08   -2.489007e+00
    3.661506e+00    1.033545e+02    1.635902e+00    2.722287e+07    3.501895e-08    4.864820e-10    3.411640e-08   -2.484007e+00
    3.700001e+00    1.085728e+02    1.606071e+00    2.703691e+07    3.498080e-08    4.687812e-10    3.408087e-08   -2.479007e+00
    3.739161e+00    1.139953e+02    1.576478e+00    2.684893e+07    3.494261e-08    4.517507e-10    3.404461e-08   -2.474007e+00
    3.779007e+00    1.196266e+02    1.547125e+00    2.665898e+07    3.490435e-08    4.353651e-10    3.400760e-08   -2.469007e+00
    3.819567e+00    1.254714e+02    1.518012e+00    2.646717e+07    3.486599e-08    4.195998e-10    3.396984e-08   -2.464007e+00
    3.860864e+00    1.315344e+02    1.489144e+00    2.627356e+07    3.482750e-08    4.044311e-10    3.393131e-08   -2.459007e+00
    3.902916e+00    1.378201e+02    1.460520e+00    2.607814e+07    3.478885e-08    3.898362e-10    3.389199e-08   -2.454007e+00
    3.945759e+00    1.443334e+02    1.432141e+00    2.588105e+07    3.474999e-08    3.757930e-10    3.385186e-08   -2.449007e+00
    3.989413e+00    1.510791e+02    1.404011e+00    2.568229e+07    3.471090e-08    3.622802e-10    3.381090e-08   -2.444007e+00
    4.033910e+00    1.580621e+02    1.376130e+00    2.548195e+07    3.467155e-08    3.492773e-10    3.376910e-08   -2.439007e+00
    4.079271e+00    1.652871e+02    1.348499e+00    2.528001e+07    3.463190e-08    3.367645e-10    3.372644e-08   -2.434007e+00
    4.125529e+00    1.727593e+02    1.321122e+00    2.507656e+07    3.459192e-08    3.247227e-10    3.368290e-08   -2.429007e+00
    4.172714e+00    1.804837e+02    1.293997e+00    2.487164e+07    3.455157e-08    3.131338e-10    3.363844e-08   -2.424007e+00
    4.220856e+00    1.884653e+02    1.267127e+00    2.466525e+07    3.451082e-08    3.019799e-10    3.359307e-08   -2.419007e+00
    4.269982e+00    1.967095e+02    1.240514e+00    2.445744e+07    3.446964e-08    2.912441e-10    3.354673e-08   -2.414007e+00
    4.320130e+00    2.052216e+02    1.214158e+00    2.424826e+07    3.442798e-08    2.809100e-10    3.349941e-08   -2.409007e+00
    4.371329e+00    2.140067e+02    1.188061e+00    2.403770e+07    3.438583e-08    2.709620e-10    3.345109e-08   -2.404007e+00
    4.423616e+00    2.230707e+02    1.162224e+00    2.382581e+07    3.434313e-08    2.613848e-10    3.340173e-08   -2.399007e+00
    4.477029e+00    2.324190e+02    1.136649e+00    2.361261e+07    3.429987e-08    2.521642e-10    3.335132e-08   -2.394007e+00
    4.531598e+00    2.420572e+02    1.111336e+00    2.339810e+07    3.425599e-08    2.432859e-10    3.329981e-08   -2.389007e+00
    4.587369e+00    2.519914e+02    1.086288e+00    2.318233e+07    3.421146e-08    2.347368e-10    3.324717e-08   -2.384007e+00
    4.644375e+00    2.622274e+02    1.061505e+00    2.296530e+07    3.416625e-08    2.265037e-10    3.319339e-08   -2.379007e+00
    4.702659e+00    2.727712e+02    1.036989e+00    2.274702e+07    3.412032e-08    2.185745e-10    3.313841e-08   -2.374007e+00
    4.762264e+00    2.836290e+02    1.012740e+00    2.252749e+07    3.407364e-08    2.109373e-10    3.308223e-08   -2.369007e+00
    4.823233e+00    2.948072e+02    9.887595e-01    2.230674e+07    3.402615e-08    2.035805e-10    3.302478e-08   -2.364007e+00
    4.885611e+00    3.063122e+02    9.650495e-01    2.208477e+07    3.397783e-08    1.964934e-10    3.296603e-08   -2.359007e+00
    4.949441e+00    3.181507e+02    9.416115e-01    2.186158e+07    3.392863e-08    1.896653e-10    3.290596e-08   -2.354007e+00
    5.014778e+00    3.303292e+02    9.184455e-01    2.163719e+07    3.387852e-08    1.830863e-10    3.284452e-08   -2.349007e+00
    5.081667e+00    3.428546e+02    8.955535e-01    2.141157e+07    3.382747e-08    1.767466e-10    3.278167e-08   -2.344007e+00
    5.150159e+00    3.557339e+02    8.729370e-01    2.118474e+07    3.377540e-08    1.706370e-10    3.271737e-08   -2.339007e+00
    5.220310e+00    3.689740e+02    8.505965e-01    2.095669e+07    3.372231e-08    1.647484e-10    3.265158e-08   -2.334007e+00
    5.292174e+00    3.825825e+02    8.285335e-01    2.072743e+07    3.366813e-08    1.590725e-10    3.258424e-08   -2.329007e+00
    5.365806e+00    3.965662e+02    8.067495e-01    2.049693e+07    3.361282e-08    1.536010e-10    3.251534e-08   -2.324007e+00
    5.441266e+00    4.109328e+02    7.852455e-01    2.026520e+07    3.355635e-08    1.483259e-10    3.244480e-08   -2.319007e+00
    5.518616e+00    4.256898e+02    7.640225e-01    2.003222e+07    3.349867e-08    1.432399e-10    3.237258e-08   -2.314007e+00
    5.597915e+00    4.408448e+02    7.430825e-01    1.979798e+07    3.343972e-08    1.383356e-10    3.229864e-08   -2.309007e+00
    5.679230e+00    4.564053e+02    7.224260e-01    1.956246e+07    3.337947e-08    1.336061e-10    3.222292e-08   -2.304007e+00
    5.762628e+00    4.723791e+02    7.020545e-01    1.932565e+07    3.331788e-08    1.290446e-10    3.214539e-08   -2.299007e+00
    5.848176e+00    4.887739e+02    6.819695e-01    1.908755e+07    3.325488e-08    1.246449e-10    3.206597e-08   -2.294007e+00
    5.935944e+00    5.055972e+02    6.621720e-01    1.884811e+07    3.319044e-08    1.204006e-10    3.198462e-08   -2.289007e+00
    6.026000e+00    5.228568e+02    6.426640e-01    1.860732e+07    3.312450e-08    1.163061e-10    3.190128e-08   -2.284007e+00
    6.118430e+00    5.405604e+02    6.234455e-01    1.836517e+07    3.305702e-08    1.123557e-10    3.181589e-08   -2.279007e+00
    6.213298e+00    5.587150e+02    6.045190e-01    1.812162e+07    3.298793e-08    1.085438e-10    3.172840e-08   -2.274007e+00
    6.310685e+00    5.773281e+02    5.858855e-01    1.787666e+07    3.291720e-08    1.048653e-10    3.163876e-08   -2.269007e+00
    6.410675e+00    5.964073e+02    5.675460e-01    1.763026e+07    3.284478e-08    1.013151e-10    3.154690e-08   -2.264007e+00
    6.513341e+00    6.159584e+02    5.495025e-01    1.738238e+07    3.277060e-08    9.788860e-11    3.145275e-08   -2.259007e+00
    6.618775e+00    6.359885e+02    5.317555e-01    1.713301e+07    3.269461e-08    9.458110e-11    3.135626e-08   -2.254007e+00
    6.727054e+00    6.565037e+02    5.143070e-01    1.688211e+07    3.261677e-08    9.138815e-11    3.125737e-08   -2.249007e+00
    6.838262e+00    6.775097e+02    4.971584e-01    1.662965e+07    3.253701e-08    8.830555e-11    3.115599e-08   -2.244007e+00
    6.952490e+00    6.990106e+02    4.803107e-01    1.637561e+07    3.245528e-08    8.532925e-11    3.105209e-08   -2.239007e+00
    7.069822e+00    7.210112e+02    4.637653e-01    1.611995e+07    3.237153e-08    8.245525e-11    3.094558e-08   -2.234007e+00
    7.190345e+00    7.435151e+02    4.475237e-01    1.586265e+07    3.228570e-08    7.967990e-11    3.083641e-08   -2.229007e+00
    7.314146e+00    7.665245e+02    4.315873e-01    1.560368e+07    3.219772e-08    7.699955e-11    3.072449e-08   -2.224007e+00
    7.441308e+00    7.900407e+02    4.159573e-01    1.534302e+07    3.210756e-08    7.441080e-11    3.060977e-08   -2.219007e+00
    7.571920e+00    8.140643e+02    4.006351e-01    1.508063e+07    3.201515e-08    7.191020e-11    3.049217e-08   -2.214007e+00
    7.706064e+00    8.385938e+02    3.856219e-01    1.481650e+07    3.192042e-08    6.949470e-11    3.037164e-08   -2.209007e+00
    7.843819e+00    8.636263e+02    3.709192e-01    1.455061e+07    3.182334e-08    6.716110e-11    3.024809e-08   -2.204007e+00
    7.985265e+00    8.891575e+02    3.565281e-01    1.428294e+07    3.172383e-08    6.490655e-11    3.012145e-08   -2.199007e+00
    8.130478e+00    9.151809e+02    3.424499e-01    1.401348e+07    3.162184e-08    6.272820e-11    2.999166e-08   -2.194007e+00
    8.279525e+00    9.416876e+02    3.286857e-01    1.374222e+07    3.151732e-08    6.062335e-11    2.985864e-08   -2.189007e+00
    8.432469e+00    9.686667e+02    3.152366e-01    1.346917e+07    3.141020e-08    5.858930e-11    2.972233e-08   -2.184007e+00
    8.589369e+00    9.961041e+02    3.021038e-01    1.319433e+07    3.130043e-08    5.662365e-11    2.958265e-08   -2.179007e+00
    8.750274e+00    1.023983e+03    2.892881e-01    1.291771e+07    3.118796e-08    5.472390e-11    2.943954e-08   -2.174007e+00
    8.915223e+00    1.052284e+03    2.767906e-01    1.263933e+07    3.107273e-08    5.288775e-11    2.929292e-08   -2.169007e+00
    9.084242e+00    1.080983e+03    2.646119e-01    1.235924e+07    3.095469e-08    5.111300e-11    2.914273e-08   -2.164007e+00
    9.257351e+00    1.110053e+03    2.527528e-01    1.207748e+07    3.083377e-08    4.939750e-11    2.898891e-08   -2.159007e+00
    9.434549e+00    1.139462e+03    2.412139e-01    1.179409e+07    3.070994e-08    4.773914e-11    2.883137e-08   -2.154007e+00
    9.615825e+00    1.169176e+03    2.299955e-01    1.150917e+07    3.058314e-08    4.613597e-11    2.867007e-08   -2.149007e+00
    9.801141e+00    1.199153e+03    2.190980e-01    1.122278e+07    3.045333e-08    4.458607e-11    2.850494e-08   -2.144007e+00
    9.990449e+00    1.229348e+03    2.085213e-01    1.093503e+07    3.032045e-08    4.308760e-11    2.833591e-08   -2.139007e+00
    1.018367e+01    1.259712e+03    1.982657e-01    1.064605e+07    3.018445e-08    4.163879e-11    2.816294e-08   -2.134007e+00
    1.038071e+01    1.290188e+03    1.883305e-01    1.035598e+07    3.004531e-08    4.023795e-11    2.798595e-08   -2.129007e+00
    1.058143e+01    1.320715e+03    1.787154e-01    1.006496e+07    2.990297e-08    3.888344e-11    2.780492e-08   -2.124007e+00
    1.078569e+01    1.351228e+03    1.694196e-01    9.773197e+06    2.975740e-08    3.757367e-11    2.761975e-08   -2.119007e+00
    1.099329e+01    1.381651e+03    1.604419e-01    9.480878e+06    2.960857e-08    3.630713e-11    2.743045e-08   -2.114007e+00
    1.120403e+01    1.411909e+03    1.517812e-01    9.188234e+06    2.945644e-08    3.508236e-11    2.723693e-08   -2.109007e+00
    1.141762e+01    1.441915e+03    1.434358e-01    8.895515e+06    2.930098e-08    3.389795e-11    2.703917e-08   -2.104007e+00
    1.163380e+01    1.471583e+03    1.354036e-01    8.602999e+06    2.914217e-08    3.275254e-11    2.683714e-08   -2.099007e+00
    1.185221e+01    1.500816e+03    1.276824e-01    8.310980e+06    2.897998e-08    3.164483e-11    2.663079e-08   -2.094007e+00
    1.207250e+01    1.529518e+03    1.202694e-01    8.019784e+06    2.881441e-08    3.057355e-11    2.642011e-08   -2.089007e+00
    1.229423e+01    1.557582e+03    1.131618e-01    7.729753e+06    2.864544e-08    2.953750e-11    2.620507e-08   -2.084007e+00
    1.251696e+01    1.584905e+03    1.063559e-01    7.441258e+06    2.847306e-08    2.853551e-11    2.598567e-08   -2.079007e+00
    1.274019e+01    1.611375e+03    9.984785e-02    7.154682e+06    2.829726e-08    2.756644e-11    2.576189e-08   -2.074007e+00
    1.296337e+01    1.636884e+03    9.363355e-02    6.870436e+06    2.811806e-08    2.662921e-11    2.553372e-08   -2.069007e+00
    1.318594e+01    1.661319e+03    8.770815e-02    6.588940e+06    2.793545e-08    2.572278e-11    2.530116e-08   -2.064007e+00
    1.340727e+01    1.684569e+03    8.206660e-02    6.310627e+06    2.774945e-08    2.484612e-11    2.506425e-08   -2.059007e+00
    1.362671e+01    1.706528e+03    7.670335e-02    6.035941e+06    2.756009e-08    2.399828e-11    2.482298e-08   -2.054007e+00
    1.384359e+01    1.727090e+03    7.161240e-02    5.765329e+06    2.736737e-08    2.317829e-11    2.457737e-08   -2.049007e+00
    1.405721e+01    1.746157e+03    6.678745e-02    5.499242e+06    2.717135e-08    2.238527e-11    2.432747e-08   -2.044007e+00
    1.426684e+01    1.763634e+03    6.222165e-02    5.238122e+06    2.697205e-08    2.161832e-11    2.407332e-08   -2.039007e+00
