# sky130 pfet_01v8 gm/ID Processed Lookup Table
# Corner: fs
# Temperature: 25C
# W = 2.0 um
# L = 1.98 um (1980 nm)
# Columns: gm/id [1/V]  gm/gds [V/V]  id/W [A/m]  ft [Hz]  Cgg/W [F/m]  Cgd/W [F/m]  Cgs/W [F/m]  Vov [V]
#         gm/id          gm/gds            id/W              ft           Cgg/W           Cgd/W           Cgs/W             Vov
    1.826111e+00    3.439614e+00    1.140529e+01    2.506959e+08    1.322228e-08    1.355789e-09    1.185055e-08   -2.779401e+00
    1.845413e+00    3.539516e+00    1.130109e+01    2.515233e+08    1.319640e-08    1.319519e-09    1.185398e-08   -2.774401e+00
    1.864994e+00    3.644296e+00    1.119674e+01    2.523360e+08    1.317073e-08    1.283736e-09    1.185716e-08   -2.769401e+00
    1.884856e+00    3.754262e+00    1.109227e+01    2.531328e+08    1.314529e-08    1.248459e-09    1.186009e-08   -2.764401e+00
    1.905002e+00    3.869742e+00    1.098767e+01    2.539125e+08    1.312010e-08    1.213705e-09    1.186275e-08   -2.759401e+00
    1.925430e+00    3.991083e+00    1.088295e+01    2.546738e+08    1.309515e-08    1.179491e-09    1.186515e-08   -2.754401e+00
    1.946141e+00    4.118653e+00    1.077813e+01    2.554155e+08    1.307046e-08    1.145832e-09    1.186729e-08   -2.749401e+00
    1.967137e+00    4.252851e+00    1.067320e+01    2.561360e+08    1.304604e-08    1.112742e-09    1.186916e-08   -2.744401e+00
    1.988415e+00    4.394098e+00    1.056818e+01    2.568341e+08    1.302191e-08    1.080233e-09    1.187076e-08   -2.739401e+00
    2.009976e+00    4.542842e+00    1.046307e+01    2.575082e+08    1.299807e-08    1.048320e-09    1.187209e-08   -2.734401e+00
    2.031817e+00    4.699561e+00    1.035787e+01    2.581572e+08    1.297452e-08    1.017010e-09    1.187316e-08   -2.729401e+00
    2.053938e+00    4.864757e+00    1.025262e+01    2.587792e+08    1.295128e-08    9.863155e-10    1.187395e-08   -2.724401e+00
    2.076336e+00    5.038970e+00    1.014729e+01    2.593729e+08    1.292836e-08    9.562430e-10    1.187446e-08   -2.719401e+00
    2.099007e+00    5.222764e+00    1.004193e+01    2.599367e+08    1.290575e-08    9.268010e-10    1.187471e-08   -2.714401e+00
    2.121950e+00    5.416741e+00    9.936515e+00    2.604692e+08    1.288348e-08    8.979950e-10    1.187469e-08   -2.709401e+00
    2.145160e+00    5.621530e+00    9.831080e+00    2.609687e+08    1.286153e-08    8.698290e-10    1.187439e-08   -2.704401e+00
    2.168632e+00    5.837800e+00    9.725630e+00    2.614338e+08    1.283991e-08    8.423075e-10    1.187382e-08   -2.699401e+00
    2.192364e+00    6.066249e+00    9.620170e+00    2.618627e+08    1.281864e-08    8.154320e-10    1.187299e-08   -2.694401e+00
    2.216347e+00    6.307610e+00    9.514725e+00    2.622542e+08    1.279770e-08    7.892045e-10    1.187190e-08   -2.689401e+00
    2.240582e+00    6.562652e+00    9.409295e+00    2.626068e+08    1.277709e-08    7.636245e-10    1.187053e-08   -2.684401e+00
    2.265058e+00    6.832173e+00    9.303905e+00    2.629189e+08    1.275684e-08    7.386915e-10    1.186890e-08   -2.679401e+00
    2.289772e+00    7.117007e+00    9.198565e+00    2.631893e+08    1.273691e-08    7.144025e-10    1.186702e-08   -2.674401e+00
    2.314719e+00    7.418021e+00    9.093285e+00    2.634166e+08    1.271734e-08    6.907555e-10    1.186487e-08   -2.669401e+00
    2.339893e+00    7.736108e+00    8.988085e+00    2.635996e+08    1.269809e-08    6.677455e-10    1.186247e-08   -2.664401e+00
    2.365287e+00    8.072193e+00    8.882980e+00    2.637371e+08    1.267919e-08    6.453680e-10    1.185981e-08   -2.659401e+00
    2.390900e+00    8.427230e+00    8.777980e+00    2.638282e+08    1.266062e-08    6.236165e-10    1.185691e-08   -2.654401e+00
    2.416724e+00    8.802192e+00    8.673110e+00    2.638720e+08    1.264238e-08    6.024855e-10    1.185376e-08   -2.649401e+00
    2.442755e+00    9.198077e+00    8.568380e+00    2.638675e+08    1.262446e-08    5.819665e-10    1.185036e-08   -2.644401e+00
    2.468989e+00    9.615901e+00    8.463810e+00    2.638142e+08    1.260686e-08    5.620515e-10    1.184672e-08   -2.639401e+00
    2.495423e+00    1.005670e+01    8.359415e+00    2.637114e+08    1.258958e-08    5.427325e-10    1.184284e-08   -2.634401e+00
    2.522054e+00    1.052151e+01    8.255215e+00    2.635588e+08    1.257261e-08    5.239990e-10    1.183873e-08   -2.629401e+00
    2.548883e+00    1.101140e+01    8.151220e+00    2.633561e+08    1.255594e-08    5.058420e-10    1.183439e-08   -2.624401e+00
    2.575906e+00    1.152742e+01    8.047455e+00    2.631031e+08    1.253957e-08    4.882505e-10    1.182982e-08   -2.619401e+00
    2.603122e+00    1.207065e+01    7.943935e+00    2.627998e+08    1.252349e-08    4.712139e-10    1.182501e-08   -2.614401e+00
    2.630538e+00    1.264214e+01    7.840670e+00    2.624465e+08    1.250769e-08    4.547211e-10    1.181999e-08   -2.609401e+00
    2.658150e+00    1.324294e+01    7.737685e+00    2.620432e+08    1.249217e-08    4.387604e-10    1.181475e-08   -2.604401e+00
    2.685962e+00    1.387413e+01    7.634995e+00    2.615904e+08    1.247691e-08    4.233203e-10    1.180928e-08   -2.599401e+00
    2.713979e+00    1.453673e+01    7.532620e+00    2.610887e+08    1.246191e-08    4.083885e-10    1.180361e-08   -2.594401e+00
    2.742206e+00    1.523178e+01    7.430570e+00    2.605386e+08    1.244716e-08    3.939531e-10    1.179772e-08   -2.589401e+00
    2.770649e+00    1.596029e+01    7.328865e+00    2.599408e+08    1.243266e-08    3.800017e-10    1.179162e-08   -2.584401e+00
    2.799316e+00    1.672326e+01    7.227515e+00    2.592961e+08    1.241838e-08    3.665219e-10    1.178531e-08   -2.579401e+00
    2.828212e+00    1.752168e+01    7.126545e+00    2.586056e+08    1.240433e-08    3.535014e-10    1.177879e-08   -2.574401e+00
    2.857346e+00    1.835649e+01    7.025970e+00    2.578700e+08    1.239048e-08    3.409277e-10    1.177207e-08   -2.569401e+00
    2.886731e+00    1.922864e+01    6.925795e+00    2.570904e+08    1.237685e-08    3.287882e-10    1.176514e-08   -2.564401e+00
    2.916374e+00    2.013906e+01    6.826045e+00    2.562678e+08    1.236341e-08    3.170708e-10    1.175801e-08   -2.559401e+00
    2.946290e+00    2.108863e+01    6.726725e+00    2.554035e+08    1.235016e-08    3.057631e-10    1.175069e-08   -2.554401e+00
    2.976487e+00    2.207826e+01    6.627860e+00    2.544984e+08    1.233708e-08    2.948530e-10    1.174316e-08   -2.549401e+00
    3.006981e+00    2.310876e+01    6.529455e+00    2.535538e+08    1.232416e-08    2.843283e-10    1.173544e-08   -2.544401e+00
    3.037783e+00    2.418101e+01    6.431525e+00    2.525708e+08    1.231141e-08    2.741773e-10    1.172751e-08   -2.539401e+00
    3.068908e+00    2.529582e+01    6.334085e+00    2.515505e+08    1.229880e-08    2.643881e-10    1.171939e-08   -2.534401e+00
    3.100374e+00    2.645400e+01    6.237140e+00    2.504942e+08    1.228632e-08    2.549492e-10    1.171107e-08   -2.529401e+00
    3.132191e+00    2.765636e+01    6.140710e+00    2.494029e+08    1.227398e-08    2.458494e-10    1.170256e-08   -2.524401e+00
    3.164376e+00    2.890366e+01    6.044805e+00    2.482780e+08    1.226175e-08    2.370774e-10    1.169384e-08   -2.519401e+00
    3.196946e+00    3.019670e+01    5.949435e+00    2.471204e+08    1.224962e-08    2.286225e-10    1.168493e-08   -2.514401e+00
    3.229918e+00    3.153623e+01    5.854610e+00    2.459311e+08    1.223760e-08    2.204739e-10    1.167581e-08   -2.509401e+00
    3.263308e+00    3.292303e+01    5.760340e+00    2.447114e+08    1.222566e-08    2.126212e-10    1.166650e-08   -2.504401e+00
    3.297136e+00    3.435789e+01    5.666635e+00    2.434622e+08    1.221380e-08    2.050542e-10    1.165698e-08   -2.499401e+00
    3.331417e+00    3.584157e+01    5.573505e+00    2.421846e+08    1.220200e-08    1.977632e-10    1.164726e-08   -2.494401e+00
    3.366171e+00    3.737481e+01    5.480960e+00    2.408796e+08    1.219026e-08    1.907383e-10    1.163734e-08   -2.489401e+00
    3.401416e+00    3.895844e+01    5.389010e+00    2.395480e+08    1.217857e-08    1.839703e-10    1.162721e-08   -2.484401e+00
    3.437173e+00    4.059326e+01    5.297660e+00    2.381908e+08    1.216692e-08    1.774500e-10    1.161686e-08   -2.479401e+00
    3.473458e+00    4.228006e+01    5.206925e+00    2.368089e+08    1.215530e-08    1.711684e-10    1.160631e-08   -2.474401e+00
    3.510295e+00    4.401969e+01    5.116805e+00    2.354029e+08    1.214369e-08    1.651171e-10    1.159553e-08   -2.469401e+00
    3.547705e+00    4.581300e+01    5.027310e+00    2.339740e+08    1.213209e-08    1.592877e-10    1.158454e-08   -2.464401e+00
    3.585706e+00    4.766088e+01    4.938453e+00    2.325226e+08    1.212050e-08    1.536721e-10    1.157333e-08   -2.459401e+00
    3.624321e+00    4.956420e+01    4.850235e+00    2.310495e+08    1.210890e-08    1.482623e-10    1.156189e-08   -2.454401e+00
    3.663573e+00    5.152394e+01    4.762667e+00    2.295556e+08    1.209727e-08    1.430511e-10    1.155022e-08   -2.449401e+00
    3.703483e+00    5.354104e+01    4.675753e+00    2.280413e+08    1.208561e-08    1.380308e-10    1.153831e-08   -2.444401e+00
    3.744075e+00    5.561650e+01    4.589503e+00    2.265074e+08    1.207391e-08    1.331945e-10    1.152617e-08   -2.439401e+00
    3.785375e+00    5.775142e+01    4.503921e+00    2.249544e+08    1.206217e-08    1.285353e-10    1.151379e-08   -2.434401e+00
    3.827404e+00    5.994681e+01    4.419015e+00    2.233830e+08    1.205036e-08    1.240466e-10    1.150115e-08   -2.429401e+00
    3.870190e+00    6.220386e+01    4.334790e+00    2.217935e+08    1.203848e-08    1.197220e-10    1.148826e-08   -2.424401e+00
    3.913756e+00    6.452370e+01    4.251252e+00    2.201866e+08    1.202652e-08    1.155553e-10    1.147510e-08   -2.419401e+00
    3.958132e+00    6.690761e+01    4.168408e+00    2.185626e+08    1.201448e-08    1.115407e-10    1.146168e-08   -2.414401e+00
    4.003344e+00    6.935684e+01    4.086263e+00    2.169221e+08    1.200233e-08    1.076724e-10    1.144798e-08   -2.409401e+00
    4.049419e+00    7.187273e+01    4.004823e+00    2.152655e+08    1.199007e-08    1.039448e-10    1.143401e-08   -2.404401e+00
    4.096387e+00    7.445670e+01    3.924093e+00    2.135931e+08    1.197770e-08    1.003526e-10    1.141975e-08   -2.399401e+00
    4.144279e+00    7.711017e+01    3.844078e+00    2.119054e+08    1.196519e-08    9.689070e-11    1.140519e-08   -2.394401e+00
    4.193127e+00    7.983471e+01    3.764785e+00    2.102026e+08    1.195254e-08    9.355425e-11    1.139034e-08   -2.389401e+00
    4.242959e+00    8.263187e+01    3.686218e+00    2.084852e+08    1.193973e-08    9.033840e-11    1.137517e-08   -2.384401e+00
    4.293810e+00    8.550331e+01    3.608382e+00    2.067533e+08    1.192677e-08    8.723865e-11    1.135968e-08   -2.379401e+00
    4.345713e+00    8.845075e+01    3.531283e+00    2.050073e+08    1.191364e-08    8.425050e-11    1.134386e-08   -2.374401e+00
    4.398705e+00    9.147608e+01    3.454925e+00    2.032475e+08    1.190032e-08    8.136980e-11    1.132770e-08   -2.369401e+00
    4.452821e+00    9.458107e+01    3.379313e+00    2.014740e+08    1.188679e-08    7.859250e-11    1.131120e-08   -2.364401e+00
    4.508101e+00    9.776779e+01    3.304451e+00    1.996871e+08    1.187308e-08    7.591460e-11    1.129434e-08   -2.359401e+00
    4.564581e+00    1.010382e+02    3.230346e+00    1.978870e+08    1.185913e-08    7.333235e-11    1.127711e-08   -2.354401e+00
    4.622301e+00    1.043945e+02    3.157001e+00    1.960738e+08    1.184496e-08    7.084220e-11    1.125951e-08   -2.349401e+00
    4.681304e+00    1.078389e+02    3.084422e+00    1.942477e+08    1.183055e-08    6.844060e-11    1.124151e-08   -2.344401e+00
    4.741632e+00    1.113737e+02    3.012612e+00    1.924089e+08    1.181588e-08    6.612425e-11    1.122311e-08   -2.339401e+00
    4.803332e+00    1.150014e+02    2.941576e+00    1.905576e+08    1.180094e-08    6.388990e-11    1.120431e-08   -2.334401e+00
    4.866446e+00    1.187243e+02    2.871320e+00    1.886935e+08    1.178573e-08    6.173450e-11    1.118507e-08   -2.329401e+00
    4.931026e+00    1.225453e+02    2.801846e+00    1.868172e+08    1.177023e-08    5.965505e-11    1.116541e-08   -2.324401e+00
    4.997117e+00    1.264668e+02    2.733161e+00    1.849285e+08    1.175442e-08    5.764870e-11    1.114529e-08   -2.319401e+00
    5.064771e+00    1.304920e+02    2.665268e+00    1.830274e+08    1.173829e-08    5.571275e-11    1.112470e-08   -2.314401e+00
    5.134042e+00    1.346234e+02    2.598173e+00    1.811141e+08    1.172183e-08    5.384445e-11    1.110364e-08   -2.309401e+00
    5.204987e+00    1.388644e+02    2.531879e+00    1.791885e+08    1.170503e-08    5.204140e-11    1.108208e-08   -2.304401e+00
    5.277658e+00    1.432181e+02    2.466391e+00    1.772506e+08    1.168787e-08    5.030115e-11    1.106002e-08   -2.299401e+00
    5.352114e+00    1.476876e+02    2.401712e+00    1.753004e+08    1.167034e-08    4.862130e-11    1.103744e-08   -2.294401e+00
    5.428416e+00    1.522763e+02    2.337849e+00    1.733380e+08    1.165242e-08    4.699965e-11    1.101431e-08   -2.289401e+00
    5.506628e+00    1.569879e+02    2.274806e+00    1.713631e+08    1.163410e-08    4.543403e-11    1.099064e-08   -2.284401e+00
    5.586811e+00    1.618258e+02    2.212586e+00    1.693758e+08    1.161537e-08    4.392237e-11    1.096639e-08   -2.279401e+00
    5.669032e+00    1.667938e+02    2.151195e+00    1.673760e+08    1.159619e-08    4.246269e-11    1.094155e-08   -2.274401e+00
    5.753363e+00    1.718959e+02    2.090635e+00    1.653636e+08    1.157658e-08    4.105307e-11    1.091611e-08   -2.269401e+00
    5.839871e+00    1.771360e+02    2.030914e+00    1.633384e+08    1.155650e-08    3.969168e-11    1.089003e-08   -2.264401e+00
    5.928630e+00    1.825181e+02    1.972034e+00    1.613005e+08    1.153595e-08    3.837675e-11    1.086333e-08   -2.259401e+00
    6.019712e+00    1.880464e+02    1.914001e+00    1.592495e+08    1.151490e-08    3.710659e-11    1.083596e-08   -2.254401e+00
    6.113196e+00    1.937254e+02    1.856818e+00    1.571853e+08    1.149333e-08    3.587956e-11    1.080791e-08   -2.249401e+00
    6.209163e+00    1.995592e+02    1.800492e+00    1.551080e+08    1.147124e-08    3.469410e-11    1.077915e-08   -2.244401e+00
    6.307688e+00    2.055525e+02    1.745024e+00    1.530170e+08    1.144860e-08    3.354872e-11    1.074969e-08   -2.239401e+00
    6.408858e+00    2.117100e+02    1.690422e+00    1.509123e+08    1.142540e-08    3.244196e-11    1.071947e-08   -2.234401e+00
    6.512756e+00    2.180361e+02    1.636690e+00    1.487939e+08    1.140161e-08    3.137242e-11    1.068850e-08   -2.229401e+00
    6.619470e+00    2.245357e+02    1.583830e+00    1.466613e+08    1.137723e-08    3.033878e-11    1.065674e-08   -2.224401e+00
    6.729085e+00    2.312137e+02    1.531850e+00    1.445144e+08    1.135223e-08    2.933976e-11    1.062418e-08   -2.219401e+00
    6.841687e+00    2.380747e+02    1.480752e+00    1.423531e+08    1.132659e-08    2.837411e-11    1.059079e-08   -2.214401e+00
    6.957372e+00    2.451237e+02    1.430543e+00    1.401769e+08    1.130030e-08    2.744066e-11    1.055655e-08   -2.209401e+00
    7.076230e+00    2.523654e+02    1.381225e+00    1.379858e+08    1.127333e-08    2.653826e-11    1.052144e-08   -2.204401e+00
    7.198346e+00    2.598047e+02    1.332806e+00    1.357795e+08    1.124567e-08    2.566581e-11    1.048543e-08   -2.199401e+00
    7.323820e+00    2.674465e+02    1.285287e+00    1.335579e+08    1.121730e-08    2.482227e-11    1.044850e-08   -2.194401e+00
    7.452738e+00    2.752953e+02    1.238675e+00    1.313207e+08    1.118820e-08    2.400661e-11    1.041062e-08   -2.189401e+00
    7.585189e+00    2.833555e+02    1.192974e+00    1.290677e+08    1.115835e-08    2.321786e-11    1.037178e-08   -2.184401e+00
    7.721268e+00    2.916317e+02    1.148187e+00    1.267988e+08    1.112772e-08    2.245508e-11    1.033195e-08   -2.179401e+00
    7.861051e+00    3.001276e+02    1.104321e+00    1.245138e+08    1.109631e-08    2.171738e-11    1.029110e-08   -2.174401e+00
    8.004635e+00    3.088475e+02    1.061378e+00    1.222127e+08    1.106408e-08    2.100387e-11    1.024921e-08   -2.169401e+00
    8.152090e+00    3.177944e+02    1.019363e+00    1.198952e+08    1.103103e-08    2.031373e-11    1.020625e-08   -2.164401e+00
    8.303496e+00    3.269715e+02    9.782795e-01    1.175614e+08    1.099713e-08    1.964616e-11    1.016221e-08   -2.159401e+00
    8.458932e+00    3.363817e+02    9.381320e-01    1.152115e+08    1.096235e-08    1.900037e-11    1.011704e-08   -2.154401e+00
    8.618443e+00    3.460265e+02    8.989245e-01    1.128454e+08    1.092668e-08    1.837563e-11    1.007074e-08   -2.149401e+00
    8.782097e+00    3.559074e+02    8.606600e-01    1.104632e+08    1.089012e-08    1.777122e-11    1.002326e-08   -2.144401e+00
    8.949938e+00    3.660248e+02    8.233415e-01    1.080652e+08    1.085262e-08    1.718644e-11    9.974610e-09   -2.139401e+00
    9.121990e+00    3.763782e+02    7.869725e-01    1.056516e+08    1.081417e-08    1.662063e-11    9.924735e-09   -2.134401e+00
    9.298295e+00    3.869667e+02    7.515550e-01    1.032231e+08    1.077476e-08    1.607316e-11    9.873625e-09   -2.129401e+00
    9.478846e+00    3.977874e+02    7.170915e-01    1.007799e+08    1.073436e-08    1.554340e-11    9.821255e-09   -2.124401e+00
    9.663640e+00    4.088367e+02    6.835835e-01    9.832286e+07    1.069296e-08    1.503078e-11    9.767600e-09   -2.119401e+00
    9.852642e+00    4.201089e+02    6.510325e-01    9.585255e+07    1.065055e-08    1.453470e-11    9.712635e-09   -2.114401e+00
    1.004582e+01    4.315981e+02    6.194395e-01    9.337013e+07    1.060709e-08    1.405462e-11    9.656340e-09   -2.109401e+00
    1.024308e+01    4.432957e+02    5.888050e-01    9.087655e+07    1.056259e-08    1.359002e-11    9.598700e-09   -2.104401e+00
    1.044434e+01    4.551908e+02    5.591275e-01    8.837302e+07    1.051701e-08    1.314037e-11    9.539680e-09   -2.099401e+00
    1.064946e+01    4.672718e+02    5.304070e-01    8.586099e+07    1.047035e-08    1.270519e-11    9.479275e-09   -2.094401e+00
    1.085831e+01    4.795243e+02    5.026415e-01    8.334214e+07    1.042260e-08    1.228400e-11    9.417460e-09   -2.089401e+00
    1.107068e+01    4.919312e+02    4.758278e-01    8.081823e+07    1.037373e-08    1.187635e-11    9.354215e-09   -2.084401e+00
    1.128636e+01    5.044741e+02    4.499628e-01    7.829128e+07    1.032374e-08    1.148179e-11    9.289525e-09   -2.079401e+00
    1.150507e+01    5.171307e+02    4.250417e-01    7.576345e+07    1.027262e-08    1.109989e-11    9.223380e-09   -2.074401e+00
    1.172652e+01    5.298768e+02    4.010594e-01    7.323727e+07    1.022036e-08    1.073025e-11    9.155760e-09   -2.069401e+00
    1.195038e+01    5.426860e+02    3.780091e-01    7.071534e+07    1.016694e-08    1.037246e-11    9.086655e-09   -2.064401e+00
    1.217624e+01    5.555279e+02    3.558832e-01    6.820056e+07    1.011237e-08    1.002616e-11    9.016055e-09   -2.059401e+00
    1.240368e+01    5.683710e+02    3.346728e-01    6.569595e+07    1.005663e-08    9.690955e-12    8.943945e-09   -2.054401e+00
    1.263223e+01    5.811798e+02    3.143679e-01    6.320482e+07    9.999725e-09    9.366510e-12    8.870330e-09   -2.049401e+00
    1.286136e+01    5.939170e+02    2.949571e-01    6.073059e+07    9.941650e-09    9.052470e-12    8.795195e-09   -2.044401e+00
    1.309052e+01    6.065421e+02    2.764280e-01    5.827690e+07    9.882400e-09    8.748505e-12    8.718540e-09   -2.039401e+00
    1.331909e+01    6.190138e+02    2.587664e-01    5.584744e+07    9.821985e-09    8.454300e-12    8.640365e-09   -2.034401e+00
    1.354643e+01    6.312871e+02    2.419573e-01    5.344612e+07    9.760400e-09    8.169535e-12    8.560670e-09   -2.029401e+00
    1.377187e+01    6.433176e+02    2.259841e-01    5.107685e+07    9.697655e-09    7.893920e-12    8.479465e-09   -2.024401e+00
