# sky130 pfet_01v8 gm/ID Processed Lookup Table
# Corner: fs
# Temperature: 25C
# W = 2.0 um
# L = 0.72 um (720 nm)
# Columns: gm/id [1/V]  gm/gds [V/V]  id/W [A/m]  ft [Hz]  Cgg/W [F/m]  Cgd/W [F/m]  Cgs/W [F/m]  Vov [V]
#         gm/id          gm/gds            id/W              ft           Cgg/W           Cgd/W           Cgs/W             Vov
    1.656487e+00    2.591305e+00    3.216083e+01    1.804135e+09    4.699659e-09    3.339827e-10    4.348735e-09   -2.746338e+00
    1.674034e+00    2.654405e+00    3.189416e+01    1.810683e+09    4.693027e-09    3.245682e-10    4.349739e-09   -2.741338e+00
    1.691842e+00    2.720114e+00    3.162691e+01    1.817146e+09    4.686482e-09    3.153379e-10    4.350653e-09   -2.736338e+00
    1.709917e+00    2.788576e+00    3.135909e+01    1.823521e+09    4.680023e-09    3.062931e-10    4.351478e-09   -2.731338e+00
    1.728260e+00    2.859942e+00    3.109070e+01    1.829799e+09    4.673650e-09    2.974346e-10    4.352214e-09   -2.726338e+00
    1.746876e+00    2.934383e+00    3.082177e+01    1.835979e+09    4.667368e-09    2.887631e-10    4.352860e-09   -2.721338e+00
    1.765768e+00    3.012068e+00    3.055229e+01    1.842054e+09    4.661173e-09    2.802791e-10    4.353417e-09   -2.716338e+00
    1.784938e+00    3.093183e+00    3.028229e+01    1.848017e+09    4.655068e-09    2.719827e-10    4.353886e-09   -2.711338e+00
    1.804389e+00    3.177925e+00    3.001177e+01    1.853862e+09    4.649053e-09    2.638738e-10    4.354267e-09   -2.706338e+00
    1.824123e+00    3.266501e+00    2.974076e+01    1.859584e+09    4.643127e-09    2.559520e-10    4.354560e-09   -2.701338e+00
    1.844141e+00    3.359131e+00    2.946927e+01    1.865174e+09    4.637291e-09    2.482167e-10    4.354767e-09   -2.696338e+00
    1.864449e+00    3.456055e+00    2.919731e+01    1.870629e+09    4.631543e-09    2.406670e-10    4.354887e-09   -2.691338e+00
    1.885045e+00    3.557518e+00    2.892490e+01    1.875940e+09    4.625886e-09    2.333018e-10    4.354921e-09   -2.686338e+00
    1.905932e+00    3.663784e+00    2.865207e+01    1.881100e+09    4.620317e-09    2.261198e-10    4.354872e-09   -2.681338e+00
    1.927109e+00    3.775127e+00    2.837882e+01    1.886100e+09    4.614836e-09    2.191196e-10    4.354739e-09   -2.676338e+00
    1.948580e+00    3.891846e+00    2.810518e+01    1.890934e+09    4.609442e-09    2.122993e-10    4.354522e-09   -2.671338e+00
    1.970339e+00    4.014239e+00    2.783118e+01    1.895591e+09    4.604134e-09    2.056571e-10    4.354225e-09   -2.666338e+00
    1.992390e+00    4.142641e+00    2.755682e+01    1.900066e+09    4.598912e-09    1.991910e-10    4.353846e-09   -2.661338e+00
    2.014731e+00    4.277387e+00    2.728215e+01    1.904348e+09    4.593774e-09    1.928986e-10    4.353387e-09   -2.656338e+00
    2.037363e+00    4.418837e+00    2.700717e+01    1.908430e+09    4.588718e-09    1.867777e-10    4.352848e-09   -2.651338e+00
    2.060278e+00    4.567357e+00    2.673193e+01    1.912299e+09    4.583744e-09    1.808256e-10    4.352232e-09   -2.646338e+00
    2.083478e+00    4.723338e+00    2.645643e+01    1.915949e+09    4.578850e-09    1.750400e-10    4.351540e-09   -2.641338e+00
    2.106961e+00    4.887185e+00    2.618072e+01    1.919370e+09    4.574034e-09    1.694178e-10    4.350772e-09   -2.636338e+00
    2.130721e+00    5.059311e+00    2.590482e+01    1.922552e+09    4.569296e-09    1.639563e-10    4.349928e-09   -2.631338e+00
    2.154754e+00    5.240144e+00    2.562877e+01    1.925484e+09    4.564631e-09    1.586528e-10    4.349010e-09   -2.626338e+00
    2.179059e+00    5.430131e+00    2.535260e+01    1.928159e+09    4.560042e-09    1.535039e-10    4.348020e-09   -2.621338e+00
    2.203627e+00    5.629716e+00    2.507634e+01    1.930564e+09    4.555523e-09    1.485068e-10    4.346959e-09   -2.616338e+00
    2.228458e+00    5.839366e+00    2.480002e+01    1.932692e+09    4.551074e-09    1.436583e-10    4.345826e-09   -2.611338e+00
    2.253543e+00    6.059535e+00    2.452369e+01    1.934534e+09    4.546692e-09    1.389553e-10    4.344623e-09   -2.606338e+00
    2.278877e+00    6.290691e+00    2.424738e+01    1.936078e+09    4.542376e-09    1.343944e-10    4.343352e-09   -2.601338e+00
    2.304457e+00    6.533307e+00    2.397114e+01    1.937319e+09    4.538124e-09    1.299727e-10    4.342012e-09   -2.596338e+00
    2.330273e+00    6.787829e+00    2.369499e+01    1.938244e+09    4.533933e-09    1.256866e-10    4.340606e-09   -2.591338e+00
    2.356325e+00    7.054728e+00    2.341899e+01    1.938851e+09    4.529801e-09    1.215331e-10    4.339133e-09   -2.586338e+00
    2.382603e+00    7.334428e+00    2.314318e+01    1.939128e+09    4.525726e-09    1.175089e-10    4.337594e-09   -2.581338e+00
    2.409106e+00    7.627377e+00    2.286760e+01    1.939073e+09    4.521706e-09    1.136106e-10    4.335992e-09   -2.576338e+00
    2.435825e+00    7.933959e+00    2.259229e+01    1.938676e+09    4.517739e-09    1.098351e-10    4.334325e-09   -2.571338e+00
    2.462760e+00    8.254571e+00    2.231730e+01    1.937936e+09    4.513823e-09    1.061791e-10    4.332594e-09   -2.566338e+00
    2.489906e+00    8.589567e+00    2.204268e+01    1.936847e+09    4.509955e-09    1.026395e-10    4.330801e-09   -2.561338e+00
    2.517259e+00    8.939267e+00    2.176848e+01    1.935406e+09    4.506133e-09    9.921300e-11    4.328947e-09   -2.556338e+00
    2.544819e+00    9.303958e+00    2.149473e+01    1.933612e+09    4.502354e-09    9.589660e-11    4.327031e-09   -2.551338e+00
    2.572583e+00    9.683883e+00    2.122149e+01    1.931463e+09    4.498617e-09    9.268710e-11    4.325053e-09   -2.546338e+00
    2.600554e+00    1.007927e+01    2.094881e+01    1.928961e+09    4.494919e-09    8.958150e-11    4.323016e-09   -2.541338e+00
    2.628729e+00    1.049027e+01    2.067672e+01    1.926104e+09    4.491257e-09    8.657680e-11    4.320917e-09   -2.536338e+00
    2.657116e+00    1.091703e+01    2.040529e+01    1.922898e+09    4.487630e-09    8.367000e-11    4.318760e-09   -2.531338e+00
    2.685711e+00    1.135959e+01    2.013454e+01    1.919341e+09    4.484036e-09    8.085820e-11    4.316543e-09   -2.526338e+00
    2.714520e+00    1.181802e+01    1.986454e+01    1.915438e+09    4.480471e-09    7.813850e-11    4.314266e-09   -2.521338e+00
    2.743552e+00    1.229229e+01    1.959533e+01    1.911196e+09    4.476934e-09    7.550820e-11    4.311929e-09   -2.516338e+00
    2.772809e+00    1.278237e+01    1.932695e+01    1.906618e+09    4.473422e-09    7.296450e-11    4.309534e-09   -2.511338e+00
    2.802301e+00    1.328816e+01    1.905945e+01    1.901710e+09    4.469933e-09    7.050475e-11    4.307081e-09   -2.506338e+00
    2.832036e+00    1.380954e+01    1.879286e+01    1.896478e+09    4.466464e-09    6.812625e-11    4.304567e-09   -2.501338e+00
    2.862021e+00    1.434636e+01    1.852724e+01    1.890930e+09    4.463014e-09    6.582650e-11    4.301995e-09   -2.496338e+00
    2.892271e+00    1.489844e+01    1.826262e+01    1.885074e+09    4.459579e-09    6.360300e-11    4.299362e-09   -2.491338e+00
    2.922793e+00    1.546558e+01    1.799905e+01    1.878915e+09    4.456159e-09    6.145325e-11    4.296671e-09   -2.486338e+00
    2.953603e+00    1.604754e+01    1.773656e+01    1.872463e+09    4.452750e-09    5.937495e-11    4.293920e-09   -2.481338e+00
    2.984708e+00    1.664410e+01    1.747520e+01    1.865724e+09    4.449349e-09    5.736575e-11    4.291108e-09   -2.476338e+00
    3.016130e+00    1.725503e+01    1.721499e+01    1.858711e+09    4.445956e-09    5.542335e-11    4.288235e-09   -2.471338e+00
    3.047878e+00    1.788006e+01    1.695598e+01    1.851427e+09    4.442568e-09    5.354565e-11    4.285301e-09   -2.466338e+00
    3.079966e+00    1.851895e+01    1.669821e+01    1.843881e+09    4.439181e-09    5.173040e-11    4.282305e-09   -2.461338e+00
    3.112411e+00    1.917146e+01    1.644169e+01    1.836082e+09    4.435794e-09    4.997567e-11    4.279247e-09   -2.456338e+00
    3.145233e+00    1.983739e+01    1.618648e+01    1.828041e+09    4.432405e-09    4.827935e-11    4.276126e-09   -2.451338e+00
    3.178442e+00    2.051647e+01    1.593260e+01    1.819761e+09    4.429010e-09    4.663951e-11    4.272940e-09   -2.446338e+00
    3.212060e+00    2.120854e+01    1.568008e+01    1.811252e+09    4.425609e-09    4.505428e-11    4.269690e-09   -2.441338e+00
    3.246104e+00    2.191344e+01    1.542896e+01    1.802524e+09    4.422197e-09    4.352180e-11    4.266374e-09   -2.436338e+00
    3.280589e+00    2.263096e+01    1.517925e+01    1.793579e+09    4.418774e-09    4.204030e-11    4.262992e-09   -2.431338e+00
    3.315537e+00    2.336100e+01    1.493099e+01    1.784428e+09    4.415337e-09    4.060806e-11    4.259540e-09   -2.426338e+00
    3.350964e+00    2.410345e+01    1.468422e+01    1.775076e+09    4.411882e-09    3.922340e-11    4.256021e-09   -2.421338e+00
    3.386893e+00    2.485822e+01    1.443894e+01    1.765530e+09    4.408409e-09    3.788472e-11    4.252431e-09   -2.416338e+00
    3.423340e+00    2.562529e+01    1.419520e+01    1.755797e+09    4.404914e-09    3.659044e-11    4.248769e-09   -2.411338e+00
    3.460328e+00    2.640459e+01    1.395300e+01    1.745881e+09    4.401395e-09    3.533906e-11    4.245035e-09   -2.406338e+00
    3.497875e+00    2.719617e+01    1.371239e+01    1.735790e+09    4.397848e-09    3.412911e-11    4.241225e-09   -2.401338e+00
    3.536006e+00    2.800005e+01    1.347337e+01    1.725528e+09    4.394273e-09    3.295917e-11    4.237340e-09   -2.396338e+00
    3.574738e+00    2.881629e+01    1.323597e+01    1.715101e+09    4.390666e-09    3.182788e-11    4.233377e-09   -2.391338e+00
    3.614096e+00    2.964498e+01    1.300022e+01    1.704513e+09    4.387025e-09    3.073392e-11    4.229334e-09   -2.386338e+00
    3.654100e+00    3.048627e+01    1.276614e+01    1.693769e+09    4.383348e-09    2.967601e-11    4.225210e-09   -2.381338e+00
    3.694777e+00    3.134029e+01    1.253374e+01    1.682874e+09    4.379630e-09    2.865291e-11    4.221003e-09   -2.376338e+00
    3.736147e+00    3.220724e+01    1.230305e+01    1.671831e+09    4.375870e-09    2.766343e-11    4.216709e-09   -2.371338e+00
    3.778235e+00    3.308730e+01    1.207409e+01    1.660645e+09    4.372065e-09    2.670641e-11    4.212329e-09   -2.366338e+00
    3.821068e+00    3.398073e+01    1.184687e+01    1.649320e+09    4.368212e-09    2.578076e-11    4.207859e-09   -2.361338e+00
    3.864671e+00    3.488777e+01    1.162142e+01    1.637858e+09    4.364309e-09    2.488540e-11    4.203297e-09   -2.356338e+00
    3.909068e+00    3.580871e+01    1.139775e+01    1.626263e+09    4.360352e-09    2.401928e-11    4.198640e-09   -2.351338e+00
    3.954288e+00    3.674386e+01    1.117588e+01    1.614538e+09    4.356338e-09    2.318142e-11    4.193886e-09   -2.346338e+00
    4.000357e+00    3.769355e+01    1.095582e+01    1.602687e+09    4.352265e-09    2.237084e-11    4.189032e-09   -2.341338e+00
    4.047305e+00    3.865815e+01    1.073761e+01    1.590711e+09    4.348129e-09    2.158661e-11    4.184076e-09   -2.336338e+00
    4.095161e+00    3.963800e+01    1.052125e+01    1.578613e+09    4.343928e-09    2.082785e-11    4.179015e-09   -2.331338e+00
    4.143957e+00    4.063356e+01    1.030676e+01    1.566397e+09    4.339657e-09    2.009368e-11    4.173845e-09   -2.326338e+00
    4.193723e+00    4.164521e+01    1.009415e+01    1.554063e+09    4.335315e-09    1.938326e-11    4.168564e-09   -2.321338e+00
    4.244490e+00    4.267341e+01    9.883440e+00    1.541615e+09    4.330898e-09    1.869579e-11    4.163168e-09   -2.316338e+00
    4.296293e+00    4.371862e+01    9.674650e+00    1.529053e+09    4.326401e-09    1.803050e-11    4.157654e-09   -2.311338e+00
    4.349166e+00    4.478135e+01    9.467795e+00    1.516380e+09    4.321822e-09    1.738664e-11    4.152020e-09   -2.306338e+00
    4.403146e+00    4.586208e+01    9.262885e+00    1.503598e+09    4.317157e-09    1.676347e-11    4.146259e-09   -2.301338e+00
    4.458268e+00    4.696137e+01    9.059940e+00    1.490707e+09    4.312402e-09    1.616031e-11    4.140370e-09   -2.296338e+00
    4.514570e+00    4.807974e+01    8.858975e+00    1.477710e+09    4.307555e-09    1.557649e-11    4.134349e-09   -2.291338e+00
    4.572094e+00    4.921775e+01    8.660000e+00    1.464607e+09    4.302610e-09    1.501135e-11    4.128192e-09   -2.286338e+00
    4.630877e+00    5.037604e+01    8.463035e+00    1.451400e+09    4.297564e-09    1.446429e-11    4.121893e-09   -2.281338e+00
    4.690965e+00    5.155518e+01    8.268090e+00    1.438090e+09    4.292413e-09    1.393467e-11    4.115450e-09   -2.276338e+00
    4.752397e+00    5.275579e+01    8.075185e+00    1.424677e+09    4.287153e-09    1.342195e-11    4.108857e-09   -2.271338e+00
    4.815222e+00    5.397857e+01    7.884330e+00    1.411162e+09    4.281781e-09    1.292554e-11    4.102110e-09   -2.266338e+00
    4.879483e+00    5.522417e+01    7.695545e+00    1.397546e+09    4.276290e-09    1.244492e-11    4.095205e-09   -2.261338e+00
    4.945233e+00    5.649327e+01    7.508835e+00    1.383830e+09    4.270678e-09    1.197956e-11    4.088137e-09   -2.256338e+00
    5.012519e+00    5.778653e+01    7.324220e+00    1.370013e+09    4.264940e-09    1.152896e-11    4.080899e-09   -2.251338e+00
    5.081396e+00    5.910478e+01    7.141710e+00    1.356097e+09    4.259070e-09    1.109265e-11    4.073489e-09   -2.246338e+00
    5.151913e+00    6.044873e+01    6.961325e+00    1.342080e+09    4.253065e-09    1.067015e-11    4.065900e-09   -2.241338e+00
    5.224127e+00    6.181912e+01    6.783075e+00    1.327965e+09    4.246919e-09    1.026101e-11    4.058126e-09   -2.236338e+00
    5.298096e+00    6.321677e+01    6.606975e+00    1.313749e+09    4.240628e-09    9.864810e-12    4.050163e-09   -2.231338e+00
    5.373881e+00    6.464246e+01    6.433035e+00    1.299434e+09    4.234186e-09    9.481125e-12    4.042004e-09   -2.226338e+00
    5.451540e+00    6.609702e+01    6.261275e+00    1.285018e+09    4.227589e-09    9.109555e-12    4.033643e-09   -2.221338e+00
    5.531137e+00    6.758133e+01    6.091705e+00    1.270502e+09    4.220832e-09    8.749715e-12    4.025074e-09   -2.216338e+00
    5.612743e+00    6.909620e+01    5.924335e+00    1.255885e+09    4.213908e-09    8.401230e-12    4.016291e-09   -2.211338e+00
    5.696414e+00    7.064251e+01    5.759190e+00    1.241167e+09    4.206811e-09    8.063740e-12    4.007288e-09   -2.206338e+00
    5.782227e+00    7.222114e+01    5.596275e+00    1.226346e+09    4.199538e-09    7.736900e-12    3.998057e-09   -2.201338e+00
    5.870255e+00    7.383302e+01    5.435605e+00    1.211422e+09    4.192081e-09    7.420375e-12    3.988593e-09   -2.196338e+00
    5.960569e+00    7.547904e+01    5.277195e+00    1.196394e+09    4.184435e-09    7.113840e-12    3.978888e-09   -2.191338e+00
    6.053243e+00    7.716011e+01    5.121060e+00    1.181261e+09    4.176595e-09    6.816985e-12    3.968935e-09   -2.186338e+00
    6.148360e+00    7.887717e+01    4.967210e+00    1.166022e+09    4.168552e-09    6.529515e-12    3.958727e-09   -2.181338e+00
    6.245997e+00    8.063114e+01    4.815662e+00    1.150675e+09    4.160303e-09    6.251140e-12    3.948256e-09   -2.176338e+00
    6.346235e+00    8.242297e+01    4.666429e+00    1.135221e+09    4.151840e-09    5.981580e-12    3.937515e-09   -2.171338e+00
    6.449159e+00    8.425357e+01    4.519524e+00    1.119656e+09    4.143156e-09    5.720570e-12    3.926495e-09   -2.166338e+00
    6.554857e+00    8.612387e+01    4.374962e+00    1.103980e+09    4.134246e-09    5.467845e-12    3.915189e-09   -2.161338e+00
    6.663411e+00    8.803478e+01    4.232756e+00    1.088191e+09    4.125103e-09    5.223160e-12    3.903590e-09   -2.156338e+00
    6.774915e+00    8.998720e+01    4.092920e+00    1.072289e+09    4.115718e-09    4.986276e-12    3.891688e-09   -2.151338e+00
    6.889459e+00    9.198202e+01    3.955469e+00    1.056270e+09    4.106088e-09    4.756959e-12    3.879475e-09   -2.146338e+00
    7.007131e+00    9.402005e+01    3.820415e+00    1.040134e+09    4.096202e-09    4.534987e-12    3.866944e-09   -2.141338e+00
    7.128024e+00    9.610214e+01    3.687772e+00    1.023880e+09    4.086056e-09    4.320144e-12    3.854084e-09   -2.136338e+00
    7.252231e+00    9.822904e+01    3.557554e+00    1.007505e+09    4.075642e-09    4.112222e-12    3.840888e-09   -2.131338e+00
    7.379845e+00    1.004014e+02    3.429774e+00    9.910088e+08    4.064951e-09    3.911022e-12    3.827347e-09   -2.126338e+00
    7.510956e+00    1.026200e+02    3.304446e+00    9.743895e+08    4.053979e-09    3.716349e-12    3.813451e-09   -2.121338e+00
    7.645656e+00    1.048854e+02    3.181583e+00    9.576460e+08    4.042716e-09    3.528018e-12    3.799191e-09   -2.116338e+00
    7.784035e+00    1.071980e+02    3.061198e+00    9.407772e+08    4.031155e-09    3.345850e-12    3.784559e-09   -2.111338e+00
    7.926178e+00    1.095583e+02    2.943303e+00    9.237822e+08    4.019289e-09    3.169670e-12    3.769545e-09   -2.106338e+00
    8.072172e+00    1.119666e+02    2.827910e+00    9.066605e+08    4.007112e-09    2.999312e-12    3.754139e-09   -2.101338e+00
    8.222095e+00    1.144229e+02    2.715032e+00    8.894117e+08    3.994614e-09    2.834616e-12    3.738334e-09   -2.096338e+00
    8.376020e+00    1.169274e+02    2.604682e+00    8.720355e+08    3.981789e-09    2.675423e-12    3.722119e-09   -2.091338e+00
    8.534021e+00    1.194799e+02    2.496868e+00    8.545328e+08    3.968630e-09    2.521586e-12    3.705484e-09   -2.086338e+00
    8.696156e+00    1.220800e+02    2.391602e+00    8.369041e+08    3.955129e-09    2.372958e-12    3.688421e-09   -2.081338e+00
    8.862479e+00    1.247272e+02    2.288893e+00    8.191509e+08    3.941277e-09    2.229400e-12    3.670921e-09   -2.076338e+00
    9.033033e+00    1.274208e+02    2.188752e+00    8.012751e+08    3.927070e-09    2.090777e-12    3.652974e-09   -2.071338e+00
    9.207853e+00    1.301599e+02    2.091185e+00    7.832796e+08    3.912498e-09    1.956959e-12    3.634571e-09   -2.066338e+00
    9.386948e+00    1.329430e+02    1.996201e+00    7.651673e+08    3.897557e-09    1.827818e-12    3.615703e-09   -2.061338e+00
    9.570331e+00    1.357688e+02    1.903804e+00    7.469430e+08    3.882237e-09    1.703234e-12    3.596361e-09   -2.056338e+00
    9.757974e+00    1.386352e+02    1.814002e+00    7.286114e+08    3.866532e-09    1.583089e-12    3.576538e-09   -2.051338e+00
    9.949855e+00    1.415401e+02    1.726796e+00    7.101792e+08    3.850436e-09    1.467268e-12    3.556223e-09   -2.046338e+00
    1.014591e+01    1.444809e+02    1.642189e+00    6.916534e+08    3.833944e-09    1.355662e-12    3.535408e-09   -2.041338e+00
    1.034606e+01    1.474547e+02    1.560181e+00    6.730425e+08    3.817047e-09    1.248165e-12    3.514087e-09   -2.036338e+00
    1.055020e+01    1.504580e+02    1.480770e+00    6.543565e+08    3.799742e-09    1.144672e-12    3.492251e-09   -2.031338e+00
    1.075818e+01    1.534871e+02    1.403955e+00    6.356063e+08    3.782021e-09    1.045084e-12    3.469893e-09   -2.026338e+00
    1.096984e+01    1.565377e+02    1.329729e+00    6.168048e+08    3.763880e-09    9.493030e-13    3.447006e-09   -2.021338e+00
    1.118499e+01    1.596052e+02    1.258083e+00    5.979661e+08    3.745314e-09    8.572370e-13    3.423583e-09   -2.016338e+00
    1.140336e+01    1.626841e+02    1.189008e+00    5.791054e+08    3.726320e-09    7.687940e-13    3.399619e-09   -2.011338e+00
    1.162469e+01    1.657688e+02    1.122491e+00    5.602405e+08    3.706892e-09    6.838845e-13    3.375107e-09   -2.006338e+00
    1.184865e+01    1.688534e+02    1.058516e+00    5.413902e+08    3.687026e-09    6.024240e-13    3.350043e-09   -2.001338e+00
    1.207489e+01    1.719308e+02    9.970645e-01    5.225750e+08    3.666720e-09    5.243275e-13    3.324422e-09   -1.996338e+00
    1.230298e+01    1.749942e+02    9.381140e-01    5.038167e+08    3.645972e-09    4.495137e-13    3.298240e-09   -1.991338e+00
