# sky130 pfet_01v8 gm/ID Processed Lookup Table
# Corner: fs
# Temperature: 25C
# W = 2.0 um
# L = 0.9 um (900 nm)
# Columns: gm/id [1/V]  gm/gds [V/V]  id/W [A/m]  ft [Hz]  Cgg/W [F/m]  Cgd/W [F/m]  Cgs/W [F/m]  Vov [V]
#         gm/id          gm/gds            id/W              ft           Cgg/W           Cgd/W           Cgs/W             Vov
    1.695528e+00    2.751231e+00    2.567544e+01    1.171059e+09    5.916490e-09    4.563092e-10    5.473615e-09   -2.753229e+00
    1.713715e+00    2.821659e+00    2.545753e+01    1.175354e+09    5.907535e-09    4.435859e-10    5.474920e-09   -2.748229e+00
    1.732172e+00    2.895146e+00    2.523917e+01    1.179590e+09    5.898685e-09    4.310985e-10    5.476115e-09   -2.743229e+00
    1.750904e+00    2.971867e+00    2.502035e+01    1.183762e+09    5.889950e-09    4.188494e-10    5.477195e-09   -2.738230e+00
    1.769914e+00    3.052014e+00    2.480109e+01    1.187866e+09    5.881330e-09    4.068412e-10    5.478155e-09   -2.733230e+00
    1.789204e+00    3.135787e+00    2.458140e+01    1.191899e+09    5.872825e-09    3.950757e-10    5.479010e-09   -2.728229e+00
    1.808777e+00    3.223404e+00    2.436128e+01    1.195857e+09    5.864435e-09    3.835542e-10    5.479745e-09   -2.723229e+00
    1.828636e+00    3.315094e+00    2.414076e+01    1.199734e+09    5.856165e-09    3.722781e-10    5.480370e-09   -2.718229e+00
    1.848784e+00    3.411101e+00    2.391984e+01    1.203528e+09    5.848015e-09    3.612479e-10    5.480880e-09   -2.713229e+00
    1.869221e+00    3.511685e+00    2.369853e+01    1.207233e+09    5.839980e-09    3.504640e-10    5.481275e-09   -2.708229e+00
    1.889950e+00    3.617125e+00    2.347687e+01    1.210843e+09    5.832070e-09    3.399265e-10    5.481565e-09   -2.703229e+00
    1.910972e+00    3.727713e+00    2.325484e+01    1.214355e+09    5.824280e-09    3.296350e-10    5.481740e-09   -2.698230e+00
    1.932286e+00    3.843764e+00    2.303248e+01    1.217763e+09    5.816605e-09    3.195887e-10    5.481805e-09   -2.693230e+00
    1.953896e+00    3.965608e+00    2.280980e+01    1.221061e+09    5.809055e-09    3.097866e-10    5.481760e-09   -2.688230e+00
    1.975799e+00    4.093597e+00    2.258680e+01    1.224244e+09    5.801625e-09    3.002273e-10    5.481605e-09   -2.683229e+00
    1.997995e+00    4.228103e+00    2.236353e+01    1.227306e+09    5.794315e-09    2.909093e-10    5.481345e-09   -2.678230e+00
    2.020484e+00    4.369517e+00    2.213999e+01    1.230242e+09    5.787120e-09    2.818305e-10    5.480975e-09   -2.673229e+00
    2.043264e+00    4.518258e+00    2.191620e+01    1.233045e+09    5.780040e-09    2.729888e-10    5.480505e-09   -2.668229e+00
    2.066333e+00    4.674755e+00    2.169219e+01    1.235709e+09    5.773080e-09    2.643816e-10    5.479930e-09   -2.663229e+00
    2.089688e+00    4.839474e+00    2.146798e+01    1.238227e+09    5.766235e-09    2.560063e-10    5.479250e-09   -2.658230e+00
    2.113326e+00    5.012887e+00    2.124358e+01    1.240593e+09    5.759505e-09    2.478599e-10    5.478470e-09   -2.653230e+00
    2.137243e+00    5.195499e+00    2.101904e+01    1.242800e+09    5.752885e-09    2.399393e-10    5.477590e-09   -2.648230e+00
    2.161437e+00    5.387826e+00    2.079436e+01    1.244842e+09    5.746375e-09    2.322411e-10    5.476610e-09   -2.643229e+00
    2.185900e+00    5.590416e+00    2.056959e+01    1.246713e+09    5.739970e-09    2.247620e-10    5.475530e-09   -2.638230e+00
    2.210630e+00    5.803824e+00    2.034475e+01    1.248405e+09    5.733675e-09    2.174981e-10    5.474360e-09   -2.633229e+00
    2.235620e+00    6.028630e+00    2.011986e+01    1.249912e+09    5.727480e-09    2.104457e-10    5.473090e-09   -2.628229e+00
    2.260866e+00    6.265418e+00    1.989495e+01    1.251228e+09    5.721385e-09    2.036011e-10    5.471730e-09   -2.623229e+00
    2.286360e+00    6.514796e+00    1.967007e+01    1.252347e+09    5.715390e-09    1.969599e-10    5.470275e-09   -2.618229e+00
    2.312096e+00    6.777370e+00    1.944524e+01    1.253261e+09    5.709495e-09    1.905183e-10    5.468730e-09   -2.613230e+00
    2.338069e+00    7.053758e+00    1.922049e+01    1.253966e+09    5.703690e-09    1.842720e-10    5.467095e-09   -2.608230e+00
    2.364273e+00    7.344581e+00    1.899585e+01    1.254458e+09    5.697975e-09    1.782168e-10    5.465370e-09   -2.603229e+00
    2.390700e+00    7.650446e+00    1.877139e+01    1.254729e+09    5.692350e-09    1.723484e-10    5.463560e-09   -2.598229e+00
    2.417347e+00    7.971972e+00    1.854710e+01    1.254775e+09    5.686815e-09    1.666624e-10    5.461660e-09   -2.593229e+00
    2.444206e+00    8.309740e+00    1.832305e+01    1.254595e+09    5.681355e-09    1.611545e-10    5.459680e-09   -2.588229e+00
    2.471274e+00    8.664340e+00    1.809926e+01    1.254183e+09    5.675980e-09    1.558203e-10    5.457615e-09   -2.583229e+00
    2.498545e+00    9.036322e+00    1.787578e+01    1.253538e+09    5.670675e-09    1.506556e-10    5.455465e-09   -2.578229e+00
    2.526017e+00    9.426210e+00    1.765264e+01    1.252656e+09    5.665450e-09    1.456558e-10    5.453230e-09   -2.573230e+00
    2.553686e+00    9.834500e+00    1.742988e+01    1.251535e+09    5.660295e-09    1.408168e-10    5.450915e-09   -2.568230e+00
    2.581552e+00    1.026165e+01    1.720755e+01    1.250178e+09    5.655205e-09    1.361341e-10    5.448525e-09   -2.563230e+00
    2.609612e+00    1.070807e+01    1.698568e+01    1.248581e+09    5.650180e-09    1.316035e-10    5.446050e-09   -2.558229e+00
    2.637868e+00    1.117412e+01    1.676430e+01    1.246746e+09    5.645215e-09    1.272207e-10    5.443495e-09   -2.553230e+00
    2.666318e+00    1.166013e+01    1.654347e+01    1.244674e+09    5.640310e-09    1.229816e-10    5.440865e-09   -2.548229e+00
    2.694969e+00    1.216637e+01    1.632322e+01    1.242368e+09    5.635460e-09    1.188819e-10    5.438160e-09   -2.543229e+00
    2.723822e+00    1.269304e+01    1.610358e+01    1.239829e+09    5.630660e-09    1.149177e-10    5.435370e-09   -2.538229e+00
    2.752881e+00    1.324031e+01    1.588460e+01    1.237059e+09    5.625915e-09    1.110849e-10    5.432510e-09   -2.533230e+00
    2.782153e+00    1.380828e+01    1.566631e+01    1.234065e+09    5.621210e-09    1.073796e-10    5.429570e-09   -2.528230e+00
    2.811646e+00    1.439700e+01    1.544875e+01    1.230848e+09    5.616550e-09    1.037978e-10    5.426550e-09   -2.523230e+00
    2.841367e+00    1.500648e+01    1.523195e+01    1.227414e+09    5.611925e-09    1.003359e-10    5.423460e-09   -2.518229e+00
    2.871325e+00    1.563667e+01    1.501596e+01    1.223767e+09    5.607340e-09    9.698990e-11    5.420290e-09   -2.513230e+00
    2.901531e+00    1.628748e+01    1.480081e+01    1.219911e+09    5.602790e-09    9.375635e-11    5.417045e-09   -2.508229e+00
    2.931995e+00    1.695879e+01    1.458652e+01    1.215855e+09    5.598265e-09    9.063165e-11    5.413725e-09   -2.503229e+00
    2.962730e+00    1.765043e+01    1.437314e+01    1.211600e+09    5.593770e-09    8.761225e-11    5.410325e-09   -2.498229e+00
    2.993749e+00    1.836220e+01    1.416070e+01    1.207154e+09    5.589300e-09    8.469480e-11    5.406855e-09   -2.493229e+00
    3.025065e+00    1.909390e+01    1.394922e+01    1.202522e+09    5.584850e-09    8.187600e-11    5.403300e-09   -2.488230e+00
    3.056694e+00    1.984528e+01    1.373873e+01    1.197711e+09    5.580415e-09    7.915260e-11    5.399675e-09   -2.483230e+00
    3.088648e+00    2.061611e+01    1.352928e+01    1.192726e+09    5.575995e-09    7.652140e-11    5.395965e-09   -2.478229e+00
    3.120946e+00    2.140613e+01    1.332087e+01    1.187573e+09    5.571585e-09    7.397940e-11    5.392180e-09   -2.473229e+00
    3.153603e+00    2.221511e+01    1.311355e+01    1.182256e+09    5.567185e-09    7.152360e-11    5.388315e-09   -2.468229e+00
    3.186634e+00    2.304278e+01    1.290733e+01    1.176782e+09    5.562790e-09    6.915110e-11    5.384370e-09   -2.463229e+00
    3.220059e+00    2.388891e+01    1.270225e+01    1.171157e+09    5.558395e-09    6.685915e-11    5.380345e-09   -2.458229e+00
    3.253895e+00    2.475328e+01    1.249831e+01    1.165385e+09    5.554000e-09    6.464490e-11    5.376240e-09   -2.453229e+00
    3.288159e+00    2.563571e+01    1.229557e+01    1.159471e+09    5.549600e-09    6.250580e-11    5.372045e-09   -2.448230e+00
    3.322871e+00    2.653599e+01    1.209403e+01    1.153421e+09    5.545195e-09    6.043925e-11    5.367770e-09   -2.443230e+00
    3.358049e+00    2.745400e+01    1.189371e+01    1.147239e+09    5.540775e-09    5.844275e-11    5.363410e-09   -2.438230e+00
    3.393714e+00    2.838961e+01    1.169464e+01    1.140931e+09    5.536340e-09    5.651390e-11    5.358960e-09   -2.433229e+00
    3.429882e+00    2.934271e+01    1.149684e+01    1.134499e+09    5.531890e-09    5.465035e-11    5.354425e-09   -2.428230e+00
    3.466578e+00    3.031327e+01    1.130032e+01    1.127948e+09    5.527420e-09    5.284990e-11    5.349800e-09   -2.423229e+00
    3.503820e+00    3.130125e+01    1.110511e+01    1.121284e+09    5.522925e-09    5.111030e-11    5.345080e-09   -2.418229e+00
    3.541629e+00    3.230668e+01    1.091122e+01    1.114508e+09    5.518400e-09    4.942949e-11    5.340265e-09   -2.413229e+00
    3.580028e+00    3.332961e+01    1.071867e+01    1.107625e+09    5.513850e-09    4.780538e-11    5.335360e-09   -2.408230e+00
    3.619037e+00    3.437011e+01    1.052750e+01    1.100639e+09    5.509260e-09    4.623601e-11    5.330355e-09   -2.403230e+00
    3.658681e+00    3.542833e+01    1.033769e+01    1.093552e+09    5.504635e-09    4.471946e-11    5.325250e-09   -2.398230e+00
    3.698980e+00    3.650442e+01    1.014927e+01    1.086368e+09    5.499970e-09    4.325389e-11    5.320040e-09   -2.393229e+00
    3.739959e+00    3.759860e+01    9.962275e+00    1.079089e+09    5.495260e-09    4.183753e-11    5.314730e-09   -2.388230e+00
    3.781643e+00    3.871109e+01    9.776695e+00    1.071718e+09    5.490505e-09    4.046864e-11    5.309310e-09   -2.383229e+00
    3.824055e+00    3.984221e+01    9.592560e+00    1.064259e+09    5.485695e-09    3.914557e-11    5.303780e-09   -2.378229e+00
    3.867223e+00    4.099222e+01    9.409875e+00    1.056713e+09    5.480830e-09    3.786671e-11    5.298140e-09   -2.373229e+00
    3.911171e+00    4.216151e+01    9.228660e+00    1.049083e+09    5.475905e-09    3.663051e-11    5.292380e-09   -2.368229e+00
    3.955925e+00    4.335047e+01    9.048930e+00    1.041370e+09    5.470920e-09    3.543548e-11    5.286505e-09   -2.363230e+00
    4.001514e+00    4.455950e+01    8.870695e+00    1.033577e+09    5.465870e-09    3.428018e-11    5.280510e-09   -2.358230e+00
    4.047964e+00    4.578908e+01    8.693975e+00    1.025707e+09    5.460745e-09    3.316321e-11    5.274385e-09   -2.353229e+00
    4.095307e+00    4.703970e+01    8.518775e+00    1.017759e+09    5.455550e-09    3.208325e-11    5.268135e-09   -2.348229e+00
    4.143572e+00    4.831190e+01    8.345110e+00    1.009738e+09    5.450275e-09    3.103899e-11    5.261755e-09   -2.343229e+00
    4.192792e+00    4.960625e+01    8.172990e+00    1.001643e+09    5.444920e-09    3.002919e-11    5.255235e-09   -2.338229e+00
    4.242995e+00    5.092335e+01    8.002435e+00    9.934770e+08    5.439475e-09    2.905264e-11    5.248580e-09   -2.333229e+00
    4.294218e+00    5.226379e+01    7.833450e+00    9.852409e+08    5.433940e-09    2.810819e-11    5.241775e-09   -2.328229e+00
    4.346489e+00    5.362831e+01    7.666055e+00    9.769349e+08    5.428315e-09    2.719471e-11    5.234830e-09   -2.323230e+00
    4.399851e+00    5.501753e+01    7.500250e+00    9.685622e+08    5.422585e-09    2.631114e-11    5.227725e-09   -2.318230e+00
    4.454333e+00    5.643228e+01    7.336060e+00    9.601231e+08    5.416750e-09    2.545644e-11    5.220470e-09   -2.313230e+00
    4.509978e+00    5.787322e+01    7.173485e+00    9.516176e+08    5.410810e-09    2.462960e-11    5.213050e-09   -2.308229e+00
    4.566825e+00    5.934129e+01    7.012540e+00    9.430480e+08    5.404755e-09    2.382966e-11    5.205465e-09   -2.303230e+00
    4.624911e+00    6.083720e+01    6.853235e+00    9.344146e+08    5.398580e-09    2.305569e-11    5.197705e-09   -2.298229e+00
    4.684279e+00    6.236192e+01    6.695585e+00    9.257178e+08    5.392285e-09    2.230679e-11    5.189770e-09   -2.293229e+00
    4.744971e+00    6.391628e+01    6.539600e+00    9.169589e+08    5.385860e-09    2.158212e-11    5.181655e-09   -2.288229e+00
    4.807032e+00    6.550128e+01    6.385290e+00    9.081384e+08    5.379300e-09    2.088082e-11    5.173350e-09   -2.283230e+00
    4.870514e+00    6.711789e+01    6.232660e+00    8.992570e+08    5.372600e-09    2.020211e-11    5.164855e-09   -2.278230e+00
    4.935454e+00    6.876709e+01    6.081730e+00    8.903139e+08    5.365760e-09    1.954520e-11    5.156160e-09   -2.273230e+00
    5.001910e+00    7.044998e+01    5.932505e+00    8.813114e+08    5.358765e-09    1.890936e-11    5.147260e-09   -2.268229e+00
    5.069931e+00    7.216762e+01    5.784995e+00    8.722486e+08    5.351615e-09    1.829387e-11    5.138145e-09   -2.263230e+00
    5.139571e+00    7.392112e+01    5.639210e+00    8.631257e+08    5.344305e-09    1.769805e-11    5.128815e-09   -2.258229e+00
    5.210882e+00    7.571168e+01    5.495165e+00    8.539427e+08    5.336830e-09    1.712121e-11    5.119255e-09   -2.253229e+00
    5.283920e+00    7.754048e+01    5.352870e+00    8.447003e+08    5.329180e-09    1.656273e-11    5.109465e-09   -2.248229e+00
    5.358748e+00    7.940877e+01    5.212330e+00    8.353991e+08    5.321345e-09    1.602198e-11    5.099440e-09   -2.243229e+00
    5.435430e+00    8.131781e+01    5.073555e+00    8.260381e+08    5.313325e-09    1.549838e-11    5.089165e-09   -2.238230e+00
    5.514021e+00    8.326892e+01    4.936562e+00    8.166168e+08    5.305115e-09    1.499134e-11    5.078635e-09   -2.233230e+00
    5.594589e+00    8.526342e+01    4.801356e+00    8.071355e+08    5.296705e-09    1.450032e-11    5.067845e-09   -2.228229e+00
    5.677202e+00    8.730275e+01    4.667950e+00    7.975945e+08    5.288085e-09    1.402478e-11    5.056785e-09   -2.223229e+00
    5.761930e+00    8.938831e+01    4.536351e+00    7.879925e+08    5.279255e-09    1.356421e-11    5.045445e-09   -2.218229e+00
    5.848843e+00    9.152156e+01    4.406572e+00    7.783301e+08    5.270200e-09    1.311811e-11    5.033815e-09   -2.213229e+00
    5.938016e+00    9.370397e+01    4.278621e+00    7.686057e+08    5.260920e-09    1.268600e-11    5.021895e-09   -2.208229e+00
    6.029525e+00    9.593710e+01    4.152509e+00    7.588193e+08    5.251405e-09    1.226744e-11    5.009670e-09   -2.203229e+00
    6.123446e+00    9.822247e+01    4.028248e+00    7.489704e+08    5.241645e-09    1.186197e-11    4.997130e-09   -2.198230e+00
    6.219865e+00    1.005617e+02    3.905846e+00    7.390590e+08    5.231630e-09    1.146917e-11    4.984268e-09   -2.193230e+00
    6.318859e+00    1.029564e+02    3.785313e+00    7.290830e+08    5.221360e-09    1.108862e-11    4.971073e-09   -2.188230e+00
    6.420515e+00    1.054081e+02    3.666660e+00    7.190426e+08    5.210820e-09    1.071993e-11    4.957535e-09   -2.183229e+00
    6.524921e+00    1.079187e+02    3.549898e+00    7.089368e+08    5.200005e-09    1.036272e-11    4.943646e-09   -2.178230e+00
    6.632164e+00    1.104896e+02    3.435036e+00    6.987640e+08    5.188910e-09    1.001662e-11    4.929395e-09   -2.173229e+00
    6.742336e+00    1.131226e+02    3.322084e+00    6.885244e+08    5.177520e-09    9.681275e-12    4.914770e-09   -2.168229e+00
    6.855525e+00    1.158193e+02    3.211053e+00    6.782170e+08    5.165825e-09    9.356330e-12    4.899763e-09   -2.163229e+00
    6.971829e+00    1.185814e+02    3.101953e+00    6.678399e+08    5.153825e-09    9.041470e-12    4.884361e-09   -2.158230e+00
    7.091342e+00    1.214106e+02    2.994794e+00    6.573932e+08    5.141505e-09    8.736370e-12    4.868554e-09   -2.153230e+00
    7.214157e+00    1.243085e+02    2.889585e+00    6.468756e+08    5.128855e-09    8.440720e-12    4.852330e-09   -2.148230e+00
    7.340371e+00    1.272767e+02    2.786338e+00    6.362860e+08    5.115870e-09    8.154225e-12    4.835680e-09   -2.143229e+00
    7.470078e+00    1.303167e+02    2.685061e+00    6.256240e+08    5.102535e-09    7.876600e-12    4.818591e-09   -2.138230e+00
    7.603378e+00    1.334300e+02    2.585764e+00    6.148886e+08    5.088845e-09    7.607565e-12    4.801050e-09   -2.133229e+00
    7.740360e+00    1.366179e+02    2.488459e+00    6.040788e+08    5.074790e-09    7.346860e-12    4.783047e-09   -2.128229e+00
    7.881121e+00    1.398819e+02    2.393152e+00    5.931937e+08    5.060365e-09    7.094225e-12    4.764571e-09   -2.123229e+00
    8.025747e+00    1.432229e+02    2.299854e+00    5.822338e+08    5.045550e-09    6.849410e-12    4.745609e-09   -2.118229e+00
    8.174331e+00    1.466423e+02    2.208575e+00    5.711980e+08    5.030345e-09    6.612180e-12    4.726148e-09   -2.113230e+00
    8.326952e+00    1.501407e+02    2.119321e+00    5.600863e+08    5.014735e-09    6.382300e-12    4.706178e-09   -2.108230e+00
    8.483689e+00    1.537188e+02    2.032103e+00    5.488992e+08    4.998709e-09    6.159545e-12    4.685686e-09   -2.103229e+00
    8.644612e+00    1.573771e+02    1.946927e+00    5.376362e+08    4.982263e-09    5.943705e-12    4.664659e-09   -2.098229e+00
    8.809789e+00    1.611159e+02    1.863800e+00    5.262985e+08    4.965386e-09    5.734575e-12    4.643086e-09   -2.093229e+00
    8.979271e+00    1.649349e+02    1.782732e+00    5.148867e+08    4.948066e-09    5.531945e-12    4.620955e-09   -2.088229e+00
    9.153103e+00    1.688338e+02    1.703726e+00    5.034025e+08    4.930295e-09    5.335625e-12    4.598254e-09   -2.083229e+00
    9.331318e+00    1.728117e+02    1.626790e+00    4.918475e+08    4.912064e-09    5.145430e-12    4.574970e-09   -2.078229e+00
    9.513933e+00    1.768677e+02    1.551927e+00    4.802242e+08    4.893364e-09    4.961177e-12    4.551093e-09   -2.073230e+00
    9.700948e+00    1.809997e+02    1.479141e+00    4.685349e+08    4.874185e-09    4.782693e-12    4.526611e-09   -2.068230e+00
    9.892349e+00    1.852059e+02    1.408437e+00    4.567838e+08    4.854520e-09    4.609807e-12    4.501512e-09   -2.063230e+00
    1.008809e+01    1.894833e+02    1.339814e+00    4.449744e+08    4.834359e-09    4.442357e-12    4.475786e-09   -2.058229e+00
    1.028812e+01    1.938287e+02    1.273275e+00    4.331118e+08    4.813694e-09    4.280185e-12    4.449422e-09   -2.053230e+00
    1.049235e+01    1.982382e+02    1.208818e+00    4.212016e+08    4.792517e-09    4.123139e-12    4.422409e-09   -2.048229e+00
    1.070066e+01    2.027071e+02    1.146440e+00    4.092503e+08    4.770822e-09    3.971071e-12    4.394737e-09   -2.043229e+00
    1.091290e+01    2.072298e+02    1.086140e+00    3.972651e+08    4.748600e-09    3.823839e-12    4.366397e-09   -2.038229e+00
    1.112890e+01    2.118001e+02    1.027909e+00    3.852544e+08    4.725845e-09    3.681303e-12    4.337380e-09   -2.033230e+00
    1.134843e+01    2.164111e+02    9.717420e-01    3.732274e+08    4.702550e-09    3.543331e-12    4.307676e-09   -2.028230e+00
    1.157125e+01    2.210547e+02    9.176280e-01    3.611944e+08    4.678710e-09    3.409794e-12    4.277280e-09   -2.023230e+00
    1.179705e+01    2.257221e+02    8.655565e-01    3.491666e+08    4.654318e-09    3.280565e-12    4.246182e-09   -2.018229e+00
    1.202549e+01    2.304035e+02    8.155130e-01    3.371565e+08    4.629373e-09    3.155524e-12    4.214377e-09   -2.013230e+00
    1.225617e+01    2.350882e+02    7.674815e-01    3.251772e+08    4.603867e-09    3.034554e-12    4.181858e-09   -2.008229e+00
    1.248869e+01    2.397647e+02    7.214425e-01    3.132434e+08    4.577799e-09    2.917540e-12    4.148620e-09   -2.003229e+00
    1.272254e+01    2.444204e+02    6.773750e-01    3.013702e+08    4.551166e-09    2.804371e-12    4.114660e-09   -1.998229e+00
