# sky130 pfet_01v8 gm/ID Processed Lookup Table
# Corner: fs
# Temperature: 25C
# W = 2.0 um
# L = 2.16 um (2160 nm)
# Columns: gm/id [1/V]  gm/gds [V/V]  id/W [A/m]  ft [Hz]  Cgg/W [F/m]  Cgd/W [F/m]  Cgs/W [F/m]  Vov [V]
#         gm/id          gm/gds            id/W              ft           Cgg/W           Cgd/W           Cgs/W             Vov
    1.840306e+00    3.520020e+00    1.044561e+01    2.120636e+08    1.442706e-08    1.478707e-09    1.296071e-08   -2.781177e+00
    1.859772e+00    3.624151e+00    1.034943e+01    2.127523e+08    1.439865e-08    1.439036e-09    1.296439e-08   -2.776177e+00
    1.879519e+00    3.733458e+00    1.025313e+01    2.134282e+08    1.437049e-08    1.399902e-09    1.296779e-08   -2.771177e+00
    1.899548e+00    3.848273e+00    1.015672e+01    2.140902e+08    1.434257e-08    1.361323e-09    1.297091e-08   -2.766177e+00
    1.919860e+00    3.968939e+00    1.006020e+01    2.147372e+08    1.431493e-08    1.323320e-09    1.297374e-08   -2.761177e+00
    1.940456e+00    4.095838e+00    9.963580e+00    2.153682e+08    1.428755e-08    1.285909e-09    1.297629e-08   -2.756177e+00
    1.961335e+00    4.229372e+00    9.866865e+00    2.159820e+08    1.426046e-08    1.249108e-09    1.297854e-08   -2.751177e+00
    1.982498e+00    4.369966e+00    9.770060e+00    2.165774e+08    1.423367e-08    1.212933e-09    1.298050e-08   -2.746177e+00
    2.003943e+00    4.518079e+00    9.673175e+00    2.171532e+08    1.420719e-08    1.177396e-09    1.298218e-08   -2.741177e+00
    2.025669e+00    4.674195e+00    9.576220e+00    2.177082e+08    1.418104e-08    1.142512e-09    1.298355e-08   -2.736177e+00
    2.047675e+00    4.838830e+00    9.479195e+00    2.182411e+08    1.415521e-08    1.108292e-09    1.298463e-08   -2.731177e+00
    2.069959e+00    5.012535e+00    9.382120e+00    2.187507e+08    1.412971e-08    1.074746e-09    1.298541e-08   -2.726177e+00
    2.092517e+00    5.195891e+00    9.284995e+00    2.192356e+08    1.410456e-08    1.041885e-09    1.298588e-08   -2.721177e+00
    2.115348e+00    5.389516e+00    9.187830e+00    2.196946e+08    1.407977e-08    1.009714e-09    1.298607e-08   -2.716177e+00
    2.138445e+00    5.594060e+00    9.090640e+00    2.201261e+08    1.405534e-08    9.782415e-10    1.298596e-08   -2.711177e+00
    2.161806e+00    5.810215e+00    8.993435e+00    2.205291e+08    1.403126e-08    9.474720e-10    1.298555e-08   -2.706177e+00
    2.185427e+00    6.038706e+00    8.896225e+00    2.209022e+08    1.400755e-08    9.174095e-10    1.298485e-08   -2.701177e+00
    2.209302e+00    6.280296e+00    8.799020e+00    2.212440e+08    1.398421e-08    8.880560e-10    1.298385e-08   -2.696177e+00
    2.233426e+00    6.535786e+00    8.701830e+00    2.215533e+08    1.396125e-08    8.594125e-10    1.298255e-08   -2.691177e+00
    2.257793e+00    6.806017e+00    8.604675e+00    2.218288e+08    1.393865e-08    8.314800e-10    1.298098e-08   -2.686177e+00
    2.282399e+00    7.091866e+00    8.507560e+00    2.220694e+08    1.391644e-08    8.042560e-10    1.297911e-08   -2.681177e+00
    2.307236e+00    7.394245e+00    8.410505e+00    2.222740e+08    1.389458e-08    7.777390e-10    1.297695e-08   -2.676177e+00
    2.332301e+00    7.714102e+00    8.313515e+00    2.224413e+08    1.387311e-08    7.519250e-10    1.297452e-08   -2.671177e+00
    2.357587e+00    8.052422e+00    8.216610e+00    2.225705e+08    1.385202e-08    7.268095e-10    1.297180e-08   -2.666177e+00
    2.383087e+00    8.410218e+00    8.119805e+00    2.226605e+08    1.383128e-08    7.023875e-10    1.296881e-08   -2.661177e+00
    2.408797e+00    8.788537e+00    8.023115e+00    2.227107e+08    1.381091e-08    6.786515e-10    1.296554e-08   -2.656177e+00
    2.434713e+00    9.188455e+00    7.926550e+00    2.227201e+08    1.379091e-08    6.555945e-10    1.296200e-08   -2.651177e+00
    2.460830e+00    9.611068e+00    7.830130e+00    2.226882e+08    1.377126e-08    6.332085e-10    1.295819e-08   -2.646177e+00
    2.487144e+00    1.005749e+01    7.733870e+00    2.226145e+08    1.375196e-08    6.114840e-10    1.295412e-08   -2.641177e+00
    2.513651e+00    1.052888e+01    7.637785e+00    2.224984e+08    1.373301e-08    5.904120e-10    1.294979e-08   -2.636177e+00
    2.540350e+00    1.102637e+01    7.541890e+00    2.223399e+08    1.371439e-08    5.699810e-10    1.294520e-08   -2.631177e+00
    2.567240e+00    1.155114e+01    7.446200e+00    2.221387e+08    1.369611e-08    5.501810e-10    1.294035e-08   -2.626177e+00
    2.594321e+00    1.210435e+01    7.350730e+00    2.218947e+08    1.367815e-08    5.309995e-10    1.293526e-08   -2.621177e+00
    2.621591e+00    1.268720e+01    7.255500e+00    2.216080e+08    1.366051e-08    5.124260e-10    1.292992e-08   -2.616177e+00
    2.649051e+00    1.330084e+01    7.160525e+00    2.212787e+08    1.364318e-08    4.944470e-10    1.292432e-08   -2.611177e+00
    2.676706e+00    1.394647e+01    7.065820e+00    2.209073e+08    1.362615e-08    4.770502e-10    1.291850e-08   -2.606177e+00
    2.704557e+00    1.462524e+01    6.971400e+00    2.204941e+08    1.360941e-08    4.602226e-10    1.291243e-08   -2.601177e+00
    2.732611e+00    1.533831e+01    6.877280e+00    2.200396e+08    1.359295e-08    4.439510e-10    1.290612e-08   -2.596177e+00
    2.760871e+00    1.608683e+01    6.783475e+00    2.195442e+08    1.357677e-08    4.282220e-10    1.289958e-08   -2.591177e+00
    2.789344e+00    1.687192e+01    6.690005e+00    2.190090e+08    1.356085e-08    4.130222e-10    1.289281e-08   -2.586177e+00
    2.818040e+00    1.769470e+01    6.596875e+00    2.184343e+08    1.354518e-08    3.983378e-10    1.288581e-08   -2.581177e+00
    2.846965e+00    1.855624e+01    6.504105e+00    2.178211e+08    1.352976e-08    3.841552e-10    1.287858e-08   -2.576177e+00
    2.876129e+00    1.945763e+01    6.411710e+00    2.171703e+08    1.351456e-08    3.704609e-10    1.287113e-08   -2.571177e+00
    2.905543e+00    2.039991e+01    6.319700e+00    2.164827e+08    1.349960e-08    3.572410e-10    1.286346e-08   -2.566177e+00
    2.935217e+00    2.138410e+01    6.228090e+00    2.157593e+08    1.348483e-08    3.444821e-10    1.285556e-08   -2.561177e+00
    2.965163e+00    2.241121e+01    6.136895e+00    2.150012e+08    1.347028e-08    3.321706e-10    1.284745e-08   -2.556177e+00
    2.995394e+00    2.348221e+01    6.046125e+00    2.142091e+08    1.345592e-08    3.202932e-10    1.283911e-08   -2.551177e+00
    3.025922e+00    2.459806e+01    5.955795e+00    2.133843e+08    1.344173e-08    3.088367e-10    1.283056e-08   -2.546177e+00
    3.056761e+00    2.575971e+01    5.865915e+00    2.125276e+08    1.342771e-08    2.977879e-10    1.282178e-08   -2.541177e+00
    3.087930e+00    2.696805e+01    5.776490e+00    2.116402e+08    1.341385e-08    2.871342e-10    1.281279e-08   -2.536177e+00
    3.119436e+00    2.822401e+01    5.687545e+00    2.107229e+08    1.340014e-08    2.768628e-10    1.280359e-08   -2.531177e+00
    3.151304e+00    2.952845e+01    5.599075e+00    2.097768e+08    1.338657e-08    2.669612e-10    1.279416e-08   -2.526177e+00
    3.183540e+00    3.088228e+01    5.511105e+00    2.088029e+08    1.337312e-08    2.574174e-10    1.278452e-08   -2.521177e+00
    3.216171e+00    3.228633e+01    5.423630e+00    2.078020e+08    1.335979e-08    2.482193e-10    1.277466e-08   -2.516177e+00
    3.249203e+00    3.374146e+01    5.336675e+00    2.067752e+08    1.334656e-08    2.393554e-10    1.276458e-08   -2.511177e+00
    3.282664e+00    3.524854e+01    5.250235e+00    2.057235e+08    1.333342e-08    2.308142e-10    1.275427e-08   -2.506177e+00
    3.316563e+00    3.680841e+01    5.164330e+00    2.046475e+08    1.332036e-08    2.225845e-10    1.274375e-08   -2.501177e+00
    3.350925e+00    3.842194e+01    5.078960e+00    2.035482e+08    1.330738e-08    2.146556e-10    1.273300e-08   -2.496177e+00
    3.385766e+00    4.008998e+01    4.994139e+00    2.024264e+08    1.329446e-08    2.070168e-10    1.272202e-08   -2.491177e+00
    3.421104e+00    4.181339e+01    4.909873e+00    2.012829e+08    1.328158e-08    1.996580e-10    1.271081e-08   -2.486177e+00
    3.456960e+00    4.359308e+01    4.826169e+00    2.001185e+08    1.326875e-08    1.925691e-10    1.269937e-08   -2.481177e+00
    3.493353e+00    4.542990e+01    4.743036e+00    1.989338e+08    1.325594e-08    1.857404e-10    1.268770e-08   -2.476177e+00
    3.530304e+00    4.732481e+01    4.660481e+00    1.977296e+08    1.324315e-08    1.791626e-10    1.267578e-08   -2.471177e+00
    3.567835e+00    4.927872e+01    4.578510e+00    1.965065e+08    1.323037e-08    1.728264e-10    1.266363e-08   -2.466177e+00
    3.605965e+00    5.129261e+01    4.497129e+00    1.952652e+08    1.321759e-08    1.667232e-10    1.265123e-08   -2.461177e+00
    3.644717e+00    5.336747e+01    4.416347e+00    1.940063e+08    1.320479e-08    1.608442e-10    1.263858e-08   -2.456177e+00
    3.684113e+00    5.550429e+01    4.336168e+00    1.927303e+08    1.319196e-08    1.551813e-10    1.262568e-08   -2.451177e+00
    3.724179e+00    5.770420e+01    4.256599e+00    1.914378e+08    1.317910e-08    1.497264e-10    1.261251e-08   -2.446177e+00
    3.764933e+00    5.996823e+01    4.177647e+00    1.901293e+08    1.316618e-08    1.444717e-10    1.259908e-08   -2.441177e+00
    3.806403e+00    6.229754e+01    4.099316e+00    1.888053e+08    1.315322e-08    1.394099e-10    1.258538e-08   -2.436177e+00
    3.848613e+00    6.469334e+01    4.021612e+00    1.874663e+08    1.314018e-08    1.345336e-10    1.257140e-08   -2.431177e+00
    3.891588e+00    6.715683e+01    3.944541e+00    1.861127e+08    1.312706e-08    1.298360e-10    1.255715e-08   -2.426177e+00
    3.935355e+00    6.968932e+01    3.868109e+00    1.847448e+08    1.311386e-08    1.253104e-10    1.254260e-08   -2.421177e+00
    3.979939e+00    7.229212e+01    3.792319e+00    1.833632e+08    1.310054e-08    1.209500e-10    1.252775e-08   -2.416177e+00
    4.025371e+00    7.496665e+01    3.717178e+00    1.819681e+08    1.308712e-08    1.167489e-10    1.251261e-08   -2.411177e+00
    4.071677e+00    7.771438e+01    3.642691e+00    1.805600e+08    1.307357e-08    1.127009e-10    1.249715e-08   -2.406177e+00
    4.118887e+00    8.053678e+01    3.568861e+00    1.791391e+08    1.305989e-08    1.088003e-10    1.248137e-08   -2.401177e+00
    4.167030e+00    8.343545e+01    3.495694e+00    1.777056e+08    1.304606e-08    1.050414e-10    1.246527e-08   -2.396177e+00
    4.216139e+00    8.641205e+01    3.423196e+00    1.762600e+08    1.303206e-08    1.014188e-10    1.244883e-08   -2.391177e+00
    4.266247e+00    8.946834e+01    3.351370e+00    1.748024e+08    1.301790e-08    9.792750e-11    1.243205e-08   -2.386177e+00
    4.317385e+00    9.260605e+01    3.280220e+00    1.733332e+08    1.300356e-08    9.456235e-11    1.241491e-08   -2.381177e+00
    4.369588e+00    9.582711e+01    3.209751e+00    1.718524e+08    1.298902e-08    9.131865e-11    1.239741e-08   -2.376177e+00
    4.422894e+00    9.913353e+01    3.139968e+00    1.703605e+08    1.297427e-08    8.819180e-11    1.237954e-08   -2.371177e+00
    4.477335e+00    1.025272e+02    3.070875e+00    1.688573e+08    1.295931e-08    8.517725e-11    1.236128e-08   -2.366177e+00
    4.532952e+00    1.060104e+02    3.002476e+00    1.673434e+08    1.294411e-08    8.227085e-11    1.234262e-08   -2.361177e+00
    4.589785e+00    1.095853e+02    2.934776e+00    1.658187e+08    1.292867e-08    7.946845e-11    1.232356e-08   -2.356177e+00
    4.647873e+00    1.132542e+02    2.867778e+00    1.642833e+08    1.291297e-08    7.676610e-11    1.230408e-08   -2.351177e+00
    4.707258e+00    1.170196e+02    2.801487e+00    1.627376e+08    1.289701e-08    7.416000e-11    1.228416e-08   -2.346177e+00
    4.767984e+00    1.208839e+02    2.735906e+00    1.611813e+08    1.288076e-08    7.164655e-11    1.226380e-08   -2.341177e+00
    4.830096e+00    1.248497e+02    2.671040e+00    1.596148e+08    1.286421e-08    6.922225e-11    1.224299e-08   -2.336177e+00
    4.893641e+00    1.289199e+02    2.606894e+00    1.580382e+08    1.284735e-08    6.688370e-11    1.222170e-08   -2.331177e+00
    4.958666e+00    1.330972e+02    2.543470e+00    1.564513e+08    1.283016e-08    6.462770e-11    1.219993e-08   -2.326177e+00
    5.025219e+00    1.373845e+02    2.480773e+00    1.548543e+08    1.281264e-08    6.245110e-11    1.217766e-08   -2.321177e+00
    5.093355e+00    1.417848e+02    2.418807e+00    1.532473e+08    1.279477e-08    6.035095e-11    1.215488e-08   -2.316177e+00
    5.163126e+00    1.463016e+02    2.357576e+00    1.516302e+08    1.277652e-08    5.832440e-11    1.213156e-08   -2.311177e+00
    5.234588e+00    1.509378e+02    2.297083e+00    1.500031e+08    1.275790e-08    5.636870e-11    1.210770e-08   -2.306177e+00
    5.307795e+00    1.556970e+02    2.237334e+00    1.483659e+08    1.273887e-08    5.448115e-11    1.208328e-08   -2.301177e+00
    5.382808e+00    1.605827e+02    2.178332e+00    1.467187e+08    1.271943e-08    5.265925e-11    1.205827e-08   -2.296177e+00
    5.459688e+00    1.655986e+02    2.120080e+00    1.450613e+08    1.269956e-08    5.090055e-11    1.203268e-08   -2.291177e+00
    5.538500e+00    1.707484e+02    2.062583e+00    1.433938e+08    1.267925e-08    4.920268e-11    1.200647e-08   -2.286177e+00
    5.619303e+00    1.760360e+02    2.005845e+00    1.417160e+08    1.265847e-08    4.756344e-11    1.197962e-08   -2.281177e+00
    5.702167e+00    1.814654e+02    1.949870e+00    1.400279e+08    1.263721e-08    4.598063e-11    1.195213e-08   -2.276177e+00
    5.787163e+00    1.870408e+02    1.894661e+00    1.383295e+08    1.261545e-08    4.445218e-11    1.192396e-08   -2.271177e+00
    5.874358e+00    1.927664e+02    1.840224e+00    1.366205e+08    1.259318e-08    4.297609e-11    1.189510e-08   -2.266177e+00
    5.963828e+00    1.986467e+02    1.786562e+00    1.349009e+08    1.257038e-08    4.155046e-11    1.186553e-08   -2.261177e+00
    6.055646e+00    2.046860e+02    1.733678e+00    1.331705e+08    1.254703e-08    4.017342e-11    1.183523e-08   -2.256177e+00
    6.149892e+00    2.108892e+02    1.681578e+00    1.314293e+08    1.252311e-08    3.884321e-11    1.180418e-08   -2.251177e+00
    6.246643e+00    2.172608e+02    1.630265e+00    1.296771e+08    1.249861e-08    3.755813e-11    1.177235e-08   -2.246177e+00
    6.345982e+00    2.238057e+02    1.579742e+00    1.279137e+08    1.247349e-08    3.631654e-11    1.173972e-08   -2.241177e+00
    6.447990e+00    2.305287e+02    1.530016e+00    1.261390e+08    1.244776e-08    3.511688e-11    1.170628e-08   -2.236177e+00
    6.552752e+00    2.374348e+02    1.481089e+00    1.243527e+08    1.242137e-08    3.395762e-11    1.167199e-08   -2.231177e+00
    6.660351e+00    2.445288e+02    1.432965e+00    1.225546e+08    1.239433e-08    3.283733e-11    1.163684e-08   -2.226177e+00
    6.770885e+00    2.518163e+02    1.385649e+00    1.207448e+08    1.236660e-08    3.175460e-11    1.160079e-08   -2.221177e+00
    6.884431e+00    2.593019e+02    1.339145e+00    1.189229e+08    1.233817e-08    3.070809e-11    1.156384e-08   -2.216177e+00
    7.001085e+00    2.669908e+02    1.293458e+00    1.170886e+08    1.230901e-08    2.969652e-11    1.152594e-08   -2.211177e+00
    7.120939e+00    2.748883e+02    1.248591e+00    1.152420e+08    1.227911e-08    2.871864e-11    1.148707e-08   -2.206177e+00
    7.244082e+00    2.829992e+02    1.204548e+00    1.133828e+08    1.224843e-08    2.777327e-11    1.144722e-08   -2.201177e+00
    7.370605e+00    2.913283e+02    1.161334e+00    1.115107e+08    1.221697e-08    2.685926e-11    1.140635e-08   -2.196177e+00
    7.500594e+00    2.998806e+02    1.118952e+00    1.096256e+08    1.218471e-08    2.597550e-11    1.136444e-08   -2.191177e+00
    7.634139e+00    3.086603e+02    1.077407e+00    1.077274e+08    1.215161e-08    2.512093e-11    1.132146e-08   -2.186177e+00
    7.771337e+00    3.176722e+02    1.036702e+00    1.058160e+08    1.211766e-08    2.429455e-11    1.127738e-08   -2.181177e+00
    7.912263e+00    3.269201e+02    9.968425e-01    1.038911e+08    1.208284e-08    2.349536e-11    1.123219e-08   -2.176177e+00
    8.057006e+00    3.364081e+02    9.578310e-01    1.019529e+08    1.204712e-08    2.272243e-11    1.118584e-08   -2.171177e+00
    8.205636e+00    3.461391e+02    9.196715e-01    1.000011e+08    1.201049e-08    2.197484e-11    1.113832e-08   -2.166177e+00
    8.358235e+00    3.561160e+02    8.823675e-01    9.803576e+07    1.197291e-08    2.125173e-11    1.108960e-08   -2.161177e+00
    8.514875e+00    3.663414e+02    8.459220e-01    9.605701e+07    1.193438e-08    2.055225e-11    1.103965e-08   -2.156177e+00
    8.675597e+00    3.768162e+02    8.103390e-01    9.406476e+07    1.189486e-08    1.987560e-11    1.098844e-08   -2.151177e+00
    8.840465e+00    3.875416e+02    7.756215e-01    9.205927e+07    1.185435e-08    1.922099e-11    1.093594e-08   -2.146177e+00
    9.009520e+00    3.985173e+02    7.417715e-01    9.004070e+07    1.181281e-08    1.858768e-11    1.088214e-08   -2.141177e+00
    9.182793e+00    4.097421e+02    7.087920e-01    8.800942e+07    1.177022e-08    1.797494e-11    1.082699e-08   -2.136177e+00
    9.360286e+00    4.212136e+02    6.766855e-01    8.596565e+07    1.172658e-08    1.738209e-11    1.077050e-08   -2.131177e+00
    9.542027e+00    4.329288e+02    6.454530e-01    8.391005e+07    1.168185e-08    1.680846e-11    1.071261e-08   -2.126177e+00
    9.727978e+00    4.448820e+02    6.150965e-01    8.184306e+07    1.163601e-08    1.625339e-11    1.065331e-08   -2.121177e+00
    9.918112e+00    4.570666e+02    5.856165e-01    7.976541e+07    1.158905e-08    1.571626e-11    1.059256e-08   -2.116177e+00
    1.011237e+01    4.694748e+02    5.570145e-01    7.767794e+07    1.154096e-08    1.519649e-11    1.053036e-08   -2.111177e+00
    1.031067e+01    4.820956e+02    5.292890e-01    7.558153e+07    1.149170e-08    1.469349e-11    1.046667e-08   -2.106177e+00
    1.051292e+01    4.949179e+02    5.024405e-01    7.347736e+07    1.144128e-08    1.420672e-11    1.040149e-08   -2.101177e+00
    1.071895e+01    5.079259e+02    4.764676e-01    7.136660e+07    1.138966e-08    1.373562e-11    1.033477e-08   -2.096177e+00
    1.092862e+01    5.211034e+02    4.513676e-01    6.925070e+07    1.133683e-08    1.327969e-11    1.026650e-08   -2.091177e+00
    1.114172e+01    5.344308e+02    4.271382e-01    6.713120e+07    1.128279e-08    1.283843e-11    1.019668e-08   -2.086177e+00
    1.135802e+01    5.478860e+02    4.037757e-01    6.500988e+07    1.122752e-08    1.241137e-11    1.012526e-08   -2.081177e+00
    1.157724e+01    5.614447e+02    3.812757e-01    6.288865e+07    1.117100e-08    1.199804e-11    1.005225e-08   -2.076177e+00
    1.179907e+01    5.750785e+02    3.596325e-01    6.076961e+07    1.111323e-08    1.159799e-11    9.977625e-09   -2.071177e+00
    1.202314e+01    5.887577e+02    3.388401e-01    5.865502e+07    1.105421e-08    1.121080e-11    9.901375e-09   -2.066177e+00
    1.224906e+01    6.024489e+02    3.188907e-01    5.654740e+07    1.099391e-08    1.083604e-11    9.823490e-09   -2.061177e+00
    1.247638e+01    6.161156e+02    2.997759e-01    5.444932e+07    1.093234e-08    1.047332e-11    9.743960e-09   -2.056177e+00
    1.270461e+01    6.297190e+02    2.814861e-01    5.236357e+07    1.086949e-08    1.012225e-11    9.662775e-09   -2.051177e+00
    1.293322e+01    6.432171e+02    2.640104e-01    5.029313e+07    1.080536e-08    9.782465e-12    9.579935e-09   -2.046177e+00
    1.316164e+01    6.565664e+02    2.473368e-01    4.824098e+07    1.073996e-08    9.453595e-12    9.495440e-09   -2.041177e+00
    1.338923e+01    6.697208e+02    2.314523e-01    4.621039e+07    1.067328e-08    9.135300e-12    9.409285e-09   -2.036177e+00
    1.361537e+01    6.826321e+02    2.163422e-01    4.420451e+07    1.060532e-08    8.827235e-12    9.321475e-09   -2.031177e+00
    1.383934e+01    6.952512e+02    2.019911e-01    4.222673e+07    1.053610e-08    8.529090e-12    9.232015e-09   -2.026177e+00
