# sky130 pfet_01v8 gm/ID Processed Lookup Table
# Corner: fs
# Temperature: 25C
# W = 2.0 um
# L = 4.68 um (4680 nm)
# Columns: gm/id [1/V]  gm/gds [V/V]  id/W [A/m]  ft [Hz]  Cgg/W [F/m]  Cgd/W [F/m]  Cgs/W [F/m]  Vov [V]
#         gm/id          gm/gds            id/W              ft           Cgg/W           Cgd/W           Cgs/W             Vov
    1.930470e+00    4.239356e+00    4.719782e+00    4.635221e+07    3.128491e-08    3.312313e-09    2.844574e-08   -2.791904e+00
    1.950980e+00    4.384073e+00    4.674206e+00    4.648965e+07    3.121939e-08    3.222836e-09    2.845305e-08   -2.786904e+00
    1.971765e+00    4.536950e+00    4.628591e+00    4.662351e+07    3.115439e-08    3.134532e-09    2.845974e-08   -2.781904e+00
    1.992828e+00    4.698570e+00    4.582942e+00    4.675355e+07    3.108993e-08    3.047449e-09    2.846581e-08   -2.776904e+00
    2.014165e+00    4.869558e+00    4.537262e+00    4.687947e+07    3.102605e-08    2.961634e-09    2.847126e-08   -2.771904e+00
    2.035776e+00    5.050590e+00    4.491555e+00    4.700099e+07    3.096277e-08    2.877129e-09    2.847607e-08   -2.766904e+00
    2.057656e+00    5.242386e+00    4.445825e+00    4.711780e+07    3.090013e-08    2.793976e-09    2.848023e-08   -2.761904e+00
    2.079803e+00    5.445726e+00    4.400077e+00    4.722960e+07    3.083816e-08    2.712214e-09    2.848376e-08   -2.756904e+00
    2.102215e+00    5.661452e+00    4.354314e+00    4.733609e+07    3.077689e-08    2.631878e-09    2.848662e-08   -2.751904e+00
    2.124886e+00    5.890459e+00    4.308541e+00    4.743696e+07    3.071633e-08    2.553001e-09    2.848884e-08   -2.746904e+00
    2.147812e+00    6.133711e+00    4.262764e+00    4.753187e+07    3.065651e-08    2.475614e-09    2.849039e-08   -2.741904e+00
    2.170987e+00    6.392243e+00    4.216987e+00    4.762054e+07    3.059746e-08    2.399741e-09    2.849127e-08   -2.736904e+00
    2.194407e+00    6.667161e+00    4.171215e+00    4.770264e+07    3.053919e-08    2.325408e-09    2.849150e-08   -2.731904e+00
    2.218065e+00    6.959644e+00    4.125456e+00    4.777788e+07    3.048172e-08    2.252635e-09    2.849106e-08   -2.726904e+00
    2.241954e+00    7.270948e+00    4.079712e+00    4.784590e+07    3.042507e-08    2.181438e-09    2.848997e-08   -2.721904e+00
    2.266068e+00    7.602428e+00    4.033992e+00    4.790647e+07    3.036924e-08    2.111833e-09    2.848821e-08   -2.716904e+00
    2.290400e+00    7.955501e+00    3.988302e+00    4.795927e+07    3.031425e-08    2.043829e-09    2.848580e-08   -2.711904e+00
    2.314942e+00    8.331686e+00    3.942646e+00    4.800400e+07    3.026011e-08    1.977434e-09    2.848272e-08   -2.706904e+00
    2.339687e+00    8.732593e+00    3.897034e+00    4.804045e+07    3.020682e-08    1.912655e-09    2.847900e-08   -2.701904e+00
    2.364630e+00    9.159919e+00    3.851470e+00    4.806834e+07    3.015440e-08    1.849490e-09    2.847462e-08   -2.696904e+00
    2.389762e+00    9.615455e+00    3.805963e+00    4.808748e+07    3.010283e-08    1.787942e-09    2.846960e-08   -2.691904e+00
    2.415078e+00    1.010109e+01    3.760519e+00    4.809765e+07    3.005212e-08    1.728003e-09    2.846395e-08   -2.686904e+00
    2.440569e+00    1.061880e+01    3.715146e+00    4.809865e+07    3.000227e-08    1.669669e-09    2.845766e-08   -2.681904e+00
    2.466232e+00    1.117066e+01    3.669851e+00    4.809037e+07    2.995329e-08    1.612930e-09    2.845074e-08   -2.676904e+00
    2.492063e+00    1.175885e+01    3.624642e+00    4.807268e+07    2.990514e-08    1.557774e-09    2.844321e-08   -2.671904e+00
    2.518055e+00    1.238561e+01    3.579525e+00    4.804544e+07    2.985785e-08    1.504187e-09    2.843506e-08   -2.666904e+00
    2.544205e+00    1.305328e+01    3.534509e+00    4.800860e+07    2.981139e-08    1.452152e-09    2.842630e-08   -2.661904e+00
    2.570512e+00    1.376432e+01    3.489603e+00    4.796218e+07    2.976575e-08    1.401652e-09    2.841694e-08   -2.656904e+00
    2.596974e+00    1.452123e+01    3.444812e+00    4.790609e+07    2.972093e-08    1.352665e-09    2.840698e-08   -2.651904e+00
    2.623590e+00    1.532658e+01    3.400144e+00    4.784041e+07    2.967691e-08    1.305171e-09    2.839645e-08   -2.646904e+00
    2.650362e+00    1.618307e+01    3.355608e+00    4.776515e+07    2.963367e-08    1.259145e-09    2.838533e-08   -2.641904e+00
    2.677291e+00    1.709339e+01    3.311211e+00    4.768042e+07    2.959119e-08    1.214564e-09    2.837363e-08   -2.636904e+00
    2.704381e+00    1.806034e+01    3.266960e+00    4.758632e+07    2.954947e-08    1.171399e-09    2.836138e-08   -2.631904e+00
    2.731636e+00    1.908677e+01    3.222862e+00    4.748297e+07    2.950848e-08    1.129624e-09    2.834855e-08   -2.626904e+00
    2.759061e+00    2.017556e+01    3.178926e+00    4.737053e+07    2.946820e-08    1.089211e-09    2.833519e-08   -2.621904e+00
    2.786664e+00    2.132963e+01    3.135156e+00    4.724915e+07    2.942861e-08    1.050130e-09    2.832127e-08   -2.616904e+00
    2.814452e+00    2.255195e+01    3.091562e+00    4.711906e+07    2.938970e-08    1.012351e-09    2.830681e-08   -2.611904e+00
    2.842433e+00    2.384550e+01    3.048148e+00    4.698043e+07    2.935144e-08    9.758440e-10    2.829182e-08   -2.606904e+00
    2.870617e+00    2.521328e+01    3.004922e+00    4.683348e+07    2.931380e-08    9.405780e-10    2.827629e-08   -2.601904e+00
    2.899015e+00    2.665832e+01    2.961890e+00    4.667846e+07    2.927676e-08    9.065210e-10    2.826025e-08   -2.596904e+00
    2.927641e+00    2.818364e+01    2.919058e+00    4.651561e+07    2.924031e-08    8.736420e-10    2.824368e-08   -2.591904e+00
    2.956503e+00    2.979223e+01    2.876432e+00    4.634513e+07    2.920442e-08    8.419085e-10    2.822659e-08   -2.586904e+00
    2.985618e+00    3.148716e+01    2.834018e+00    4.616733e+07    2.916904e-08    8.112900e-10    2.820900e-08   -2.581904e+00
    3.014996e+00    3.327140e+01    2.791821e+00    4.598240e+07    2.913419e-08    7.817535e-10    2.819089e-08   -2.576904e+00
    3.044655e+00    3.514796e+01    2.749847e+00    4.579063e+07    2.909981e-08    7.532680e-10    2.817228e-08   -2.571904e+00
    3.074608e+00    3.711980e+01    2.708099e+00    4.559225e+07    2.906588e-08    7.258020e-10    2.815316e-08   -2.566904e+00
    3.104872e+00    3.918989e+01    2.666585e+00    4.538753e+07    2.903238e-08    6.993250e-10    2.813354e-08   -2.561904e+00
    3.135462e+00    4.136114e+01    2.625307e+00    4.517669e+07    2.899929e-08    6.738055e-10    2.811342e-08   -2.556904e+00
    3.166392e+00    4.363644e+01    2.584271e+00    4.495993e+07    2.896658e-08    6.492135e-10    2.809279e-08   -2.551904e+00
    3.197685e+00    4.601874e+01    2.543480e+00    4.473758e+07    2.893422e-08    6.255195e-10    2.807167e-08   -2.546904e+00
    3.229353e+00    4.851077e+01    2.502940e+00    4.450977e+07    2.890219e-08    6.026935e-10    2.805005e-08   -2.541904e+00
    3.261416e+00    5.111547e+01    2.462653e+00    4.427677e+07    2.887045e-08    5.807070e-10    2.802792e-08   -2.536904e+00
    3.293890e+00    5.383553e+01    2.422624e+00    4.403876e+07    2.883899e-08    5.595315e-10    2.800528e-08   -2.531904e+00
    3.326796e+00    5.667379e+01    2.382856e+00    4.379598e+07    2.880778e-08    5.391395e-10    2.798213e-08   -2.526904e+00
    3.360150e+00    5.963295e+01    2.343352e+00    4.354858e+07    2.877679e-08    5.195040e-10    2.795847e-08   -2.521904e+00
    3.393971e+00    6.271572e+01    2.304117e+00    4.329676e+07    2.874599e-08    5.005990e-10    2.793430e-08   -2.516904e+00
    3.428280e+00    6.592485e+01    2.265152e+00    4.304070e+07    2.871537e-08    4.823979e-10    2.790960e-08   -2.511904e+00
    3.463096e+00    6.926299e+01    2.226462e+00    4.278058e+07    2.868489e-08    4.648762e-10    2.788439e-08   -2.506904e+00
    3.498439e+00    7.273289e+01    2.188048e+00    4.251656e+07    2.865453e-08    4.480093e-10    2.785864e-08   -2.501904e+00
    3.534328e+00    7.633708e+01    2.149915e+00    4.224876e+07    2.862426e-08    4.317736e-10    2.783235e-08   -2.496904e+00
    3.570787e+00    8.007834e+01    2.112064e+00    4.197738e+07    2.859406e-08    4.161460e-10    2.780551e-08   -2.491904e+00
    3.607831e+00    8.395922e+01    2.074498e+00    4.170249e+07    2.856389e-08    4.011041e-10    2.777812e-08   -2.486904e+00
    3.645487e+00    8.798250e+01    2.037221e+00    4.142427e+07    2.853375e-08    3.866264e-10    2.775017e-08   -2.481904e+00
    3.683774e+00    9.215085e+01    2.000233e+00    4.114281e+07    2.850360e-08    3.726918e-10    2.772165e-08   -2.476904e+00
    3.722715e+00    9.646687e+01    1.963538e+00    4.085825e+07    2.847340e-08    3.592800e-10    2.769254e-08   -2.471904e+00
    3.762333e+00    1.009334e+02    1.927137e+00    4.057068e+07    2.844314e-08    3.463715e-10    2.766285e-08   -2.466904e+00
    3.802655e+00    1.055531e+02    1.891033e+00    4.028024e+07    2.841280e-08    3.339471e-10    2.763255e-08   -2.461904e+00
    3.843700e+00    1.103289e+02    1.855228e+00    3.998698e+07    2.838234e-08    3.219885e-10    2.760163e-08   -2.456904e+00
    3.885493e+00    1.152634e+02    1.819724e+00    3.969099e+07    2.835175e-08    3.104781e-10    2.757009e-08   -2.451904e+00
    3.928064e+00    1.203596e+02    1.784523e+00    3.939239e+07    2.832099e-08    2.993986e-10    2.753790e-08   -2.446904e+00
    3.971434e+00    1.256204e+02    1.749628e+00    3.909125e+07    2.829003e-08    2.887336e-10    2.750505e-08   -2.441904e+00
    4.015633e+00    1.310489e+02    1.715039e+00    3.878763e+07    2.825887e-08    2.784672e-10    2.747153e-08   -2.436904e+00
    4.060687e+00    1.366480e+02    1.680759e+00    3.848162e+07    2.822745e-08    2.685841e-10    2.743732e-08   -2.431904e+00
    4.106622e+00    1.424208e+02    1.646789e+00    3.817323e+07    2.819577e-08    2.590694e-10    2.740241e-08   -2.426904e+00
    4.153474e+00    1.483706e+02    1.613132e+00    3.786260e+07    2.816379e-08    2.499089e-10    2.736677e-08   -2.421904e+00
    4.201268e+00    1.545008e+02    1.579789e+00    3.754974e+07    2.813148e-08    2.410891e-10    2.733039e-08   -2.416904e+00
    4.250036e+00    1.608145e+02    1.546761e+00    3.723469e+07    2.809883e-08    2.325966e-10    2.729325e-08   -2.411904e+00
    4.299809e+00    1.673153e+02    1.514051e+00    3.691751e+07    2.806580e-08    2.244189e-10    2.725532e-08   -2.406904e+00
    4.350620e+00    1.740067e+02    1.481660e+00    3.659825e+07    2.803236e-08    2.165436e-10    2.721659e-08   -2.401904e+00
    4.402507e+00    1.808925e+02    1.449590e+00    3.627696e+07    2.799848e-08    2.089591e-10    2.717704e-08   -2.396904e+00
    4.455498e+00    1.879764e+02    1.417843e+00    3.595363e+07    2.796415e-08    2.016540e-10    2.713664e-08   -2.391904e+00
    4.509636e+00    1.952624e+02    1.386419e+00    3.562834e+07    2.792933e-08    1.946176e-10    2.709537e-08   -2.386904e+00
    4.564957e+00    2.027544e+02    1.355321e+00    3.530110e+07    2.789399e-08    1.878395e-10    2.705320e-08   -2.381904e+00
    4.621500e+00    2.104567e+02    1.324550e+00    3.497194e+07    2.785810e-08    1.813095e-10    2.701012e-08   -2.376904e+00
    4.679304e+00    2.183736e+02    1.294107e+00    3.464088e+07    2.782164e-08    1.750182e-10    2.696608e-08   -2.371904e+00
    4.738409e+00    2.265094e+02    1.263995e+00    3.430792e+07    2.778457e-08    1.689562e-10    2.692108e-08   -2.366904e+00
    4.798862e+00    2.348688e+02    1.234215e+00    3.397311e+07    2.774686e-08    1.631147e-10    2.687507e-08   -2.361904e+00
    4.860708e+00    2.434565e+02    1.204767e+00    3.363644e+07    2.770848e-08    1.574852e-10    2.682803e-08   -2.356904e+00
    4.923989e+00    2.522774e+02    1.175655e+00    3.329793e+07    2.766940e-08    1.520595e-10    2.677992e-08   -2.351904e+00
    4.988754e+00    2.613364e+02    1.146878e+00    3.295758e+07    2.762958e-08    1.468297e-10    2.673073e-08   -2.346904e+00
    5.055054e+00    2.706388e+02    1.118440e+00    3.261538e+07    2.758902e-08    1.417884e-10    2.668040e-08   -2.341904e+00
    5.122939e+00    2.801900e+02    1.090341e+00    3.227135e+07    2.754765e-08    1.369282e-10    2.662891e-08   -2.336904e+00
    5.192460e+00    2.899953e+02    1.062583e+00    3.192548e+07    2.750545e-08    1.322421e-10    2.657624e-08   -2.331904e+00
    5.263670e+00    3.000603e+02    1.035168e+00    3.157775e+07    2.746238e-08    1.277238e-10    2.652234e-08   -2.326904e+00
    5.336630e+00    3.103911e+02    1.008096e+00    3.122818e+07    2.741842e-08    1.233664e-10    2.646717e-08   -2.321904e+00
    5.411402e+00    3.209937e+02    9.813695e-01    3.087677e+07    2.737352e-08    1.191641e-10    2.641071e-08   -2.316904e+00
    5.488034e+00    3.318736e+02    9.549905e-01    3.052345e+07    2.732765e-08    1.151110e-10    2.635290e-08   -2.311904e+00
    5.566596e+00    3.430378e+02    9.289600e-01    3.016825e+07    2.728078e-08    1.112012e-10    2.629371e-08   -2.306904e+00
    5.647150e+00    3.544920e+02    9.032795e-01    2.981112e+07    2.723286e-08    1.074294e-10    2.623311e-08   -2.301904e+00
    5.729762e+00    3.662431e+02    8.779510e-01    2.945207e+07    2.718387e-08    1.037904e-10    2.617104e-08   -2.296904e+00
    5.814502e+00    3.782976e+02    8.529755e-01    2.909104e+07    2.713376e-08    1.002793e-10    2.610747e-08   -2.291904e+00
    5.901437e+00    3.906624e+02    8.283550e-01    2.872804e+07    2.708248e-08    9.689110e-11    2.604235e-08   -2.286904e+00
    5.990636e+00    4.033439e+02    8.040915e-01    2.836301e+07    2.703001e-08    9.362125e-11    2.597564e-08   -2.281904e+00
    6.082182e+00    4.163492e+02    7.801855e-01    2.799593e+07    2.697631e-08    9.046535e-11    2.590730e-08   -2.276904e+00
    6.176143e+00    4.296853e+02    7.566395e-01    2.762677e+07    2.692132e-08    8.741915e-11    2.583727e-08   -2.271904e+00
    6.272598e+00    4.433588e+02    7.334550e-01    2.725548e+07    2.686502e-08    8.447860e-11    2.576552e-08   -2.266904e+00
    6.371627e+00    4.573769e+02    7.106335e-01    2.688204e+07    2.680736e-08    8.163970e-11    2.569198e-08   -2.261904e+00
    6.473314e+00    4.717463e+02    6.881765e-01    2.650639e+07    2.674829e-08    7.889875e-11    2.561662e-08   -2.256904e+00
    6.577738e+00    4.864736e+02    6.660860e-01    2.612851e+07    2.668778e-08    7.625210e-11    2.553937e-08   -2.251904e+00
    6.684984e+00    5.015655e+02    6.443635e-01    2.574834e+07    2.662577e-08    7.369635e-11    2.546020e-08   -2.246904e+00
    6.795135e+00    5.170287e+02    6.230110e-01    2.536585e+07    2.656224e-08    7.122810e-11    2.537904e-08   -2.241904e+00
    6.908279e+00    5.328689e+02    6.020300e-01    2.498098e+07    2.649711e-08    6.884415e-11    2.529585e-08   -2.236904e+00
    7.024511e+00    5.490924e+02    5.814215e-01    2.459371e+07    2.643037e-08    6.654150e-11    2.521057e-08   -2.231904e+00
    7.143902e+00    5.657043e+02    5.611885e-01    2.420397e+07    2.636197e-08    6.431715e-11    2.512314e-08   -2.226904e+00
    7.266556e+00    5.827095e+02    5.413315e-01    2.381173e+07    2.629185e-08    6.216830e-11    2.503352e-08   -2.221904e+00
    7.392547e+00    6.001125e+02    5.218530e-01    2.341696e+07    2.621996e-08    6.009215e-11    2.494164e-08   -2.216904e+00
    7.521973e+00    6.179171e+02    5.027540e-01    2.301960e+07    2.614627e-08    5.808615e-11    2.484746e-08   -2.211904e+00
    7.654916e+00    6.361268e+02    4.840364e-01    2.261963e+07    2.607072e-08    5.614780e-11    2.475090e-08   -2.206904e+00
    7.791456e+00    6.547426e+02    4.657018e-01    2.221702e+07    2.599327e-08    5.427465e-11    2.465192e-08   -2.201904e+00
    7.931675e+00    6.737657e+02    4.477519e-01    2.181173e+07    2.591387e-08    5.246435e-11    2.455046e-08   -2.196904e+00
    8.075651e+00    6.931967e+02    4.301881e-01    2.140375e+07    2.583249e-08    5.071475e-11    2.444646e-08   -2.191904e+00
    8.223458e+00    7.130329e+02    4.130119e-01    2.099307e+07    2.574905e-08    4.902365e-11    2.433986e-08   -2.186904e+00
    8.375163e+00    7.332721e+02    3.962247e-01    2.057967e+07    2.566354e-08    4.738900e-11    2.423060e-08   -2.181904e+00
    8.530828e+00    7.539090e+02    3.798279e-01    2.016357e+07    2.557588e-08    4.580881e-11    2.411863e-08   -2.176904e+00
    8.690505e+00    7.749370e+02    3.638227e-01    1.974478e+07    2.548605e-08    4.428118e-11    2.400390e-08   -2.171904e+00
    8.854242e+00    7.963473e+02    3.482102e-01    1.932333e+07    2.539400e-08    4.280428e-11    2.388634e-08   -2.166904e+00
    9.022073e+00    8.181287e+02    3.329916e-01    1.889927e+07    2.529967e-08    4.137634e-11    2.376589e-08   -2.161904e+00
    9.194020e+00    8.402673e+02    3.181678e-01    1.847264e+07    2.520303e-08    3.999567e-11    2.364251e-08   -2.156904e+00
    9.370092e+00    8.627464e+02    3.037395e-01    1.804354e+07    2.510404e-08    3.866064e-11    2.351613e-08   -2.151904e+00
    9.550287e+00    8.855467e+02    2.897073e-01    1.761206e+07    2.500264e-08    3.736967e-11    2.338670e-08   -2.146904e+00
    9.734578e+00    9.086446e+02    2.760717e-01    1.717831e+07    2.489881e-08    3.612126e-11    2.325418e-08   -2.141904e+00
    9.922923e+00    9.320141e+02    2.628329e-01    1.674245e+07    2.479250e-08    3.491394e-11    2.311851e-08   -2.136904e+00
    1.011526e+01    9.556243e+02    2.499909e-01    1.630465e+07    2.468367e-08    3.374632e-11    2.297964e-08   -2.131904e+00
    1.031149e+01    9.794413e+02    2.375456e-01    1.586510e+07    2.457230e-08    3.261705e-11    2.283752e-08   -2.126904e+00
    1.051152e+01    1.003426e+03    2.254962e-01    1.542404e+07    2.445833e-08    3.152485e-11    2.269211e-08   -2.121904e+00
    1.071519e+01    1.027535e+03    2.138422e-01    1.498172e+07    2.434174e-08    3.046844e-11    2.254337e-08   -2.116904e+00
    1.092233e+01    1.051722e+03    2.025822e-01    1.453844e+07    2.422251e-08    2.944664e-11    2.239125e-08   -2.111904e+00
    1.113274e+01    1.075933e+03    1.917149e-01    1.409452e+07    2.410060e-08    2.845827e-11    2.223571e-08   -2.106904e+00
    1.134618e+01    1.100111e+03    1.812383e-01    1.365034e+07    2.397599e-08    2.750223e-11    2.207674e-08   -2.101904e+00
    1.156237e+01    1.124195e+03    1.711504e-01    1.320629e+07    2.384865e-08    2.657744e-11    2.191428e-08   -2.096904e+00
    1.178097e+01    1.148118e+03    1.614484e-01    1.276282e+07    2.371857e-08    2.568285e-11    2.174832e-08   -2.091904e+00
    1.200166e+01    1.171808e+03    1.521291e-01    1.232039e+07    2.358573e-08    2.481748e-11    2.157883e-08   -2.086904e+00
    1.222401e+01    1.195190e+03    1.431891e-01    1.187951e+07    2.345013e-08    2.398035e-11    2.140579e-08   -2.081904e+00
    1.244759e+01    1.218186e+03    1.346243e-01    1.144074e+07    2.331174e-08    2.317054e-11    2.122918e-08   -2.076904e+00
    1.267191e+01    1.240710e+03    1.264300e-01    1.100464e+07    2.317056e-08    2.238715e-11    2.104900e-08   -2.071904e+00
    1.289645e+01    1.262680e+03    1.186014e-01    1.057183e+07    2.302660e-08    2.162933e-11    2.086523e-08   -2.066904e+00
    1.312063e+01    1.284007e+03    1.111327e-01    1.014293e+07    2.287986e-08    2.089622e-11    2.067789e-08   -2.061904e+00
    1.334387e+01    1.304601e+03    1.040180e-01    9.718610e+06    2.273034e-08    2.018704e-11    2.048697e-08   -2.056904e+00
    1.356550e+01    1.324373e+03    9.725040e-02    9.299520e+06    2.257807e-08    1.950099e-11    2.029247e-08   -2.051904e+00
    1.378486e+01    1.343236e+03    9.082295e-02    8.886351e+06    2.242305e-08    1.883734e-11    2.009444e-08   -2.046904e+00
    1.400125e+01    1.361100e+03    8.472795e-02    8.479786e+06    2.226530e-08    1.819537e-11    1.989288e-08   -2.041904e+00
    1.421395e+01    1.377885e+03    7.895720e-02    8.080505e+06    2.210488e-08    1.757436e-11    1.968781e-08   -2.036904e+00
