# sky130 nfet_01v8 gm/ID Processed Lookup Table
# Corner: tt
# Temperature: 0C
# W = 2.0 um
# L = 3.96 um (3960 nm)
# Columns: gm/id [1/V]  gm/gds [V/V]  id/W [A/m]  ft [Hz]  Cgg/W [F/m]  Cgd/W [F/m]  Cgs/W [F/m]  Vov [V]
#         gm/id          gm/gds            id/W              ft           Cgg/W           Cgd/W           Cgs/W             Vov
    2.952606e+01    2.007716e+02    5.479580e-09    3.046519e+00    8.452185e-09    1.099769e-13    2.914353e-10   -5.711479e-01
    2.952566e+01    2.007689e+02    6.351290e-09    3.538672e+00    8.434150e-09    1.142747e-13    3.027558e-10   -5.661479e-01
    2.952524e+01    2.007660e+02    7.361655e-09    4.109989e+00    8.416825e-09    1.187499e-13    3.146472e-10   -5.611479e-01
    2.952477e+01    2.007628e+02    8.532735e-09    4.773138e+00    8.400225e-09    1.234105e-13    3.271423e-10   -5.561479e-01
    2.952427e+01    2.007595e+02    9.890085e-09    5.542793e+00    8.384375e-09    1.282649e-13    3.402755e-10   -5.511479e-01
    2.952375e+01    2.007559e+02    1.146332e-08    6.435953e+00    8.369300e-09    1.333222e-13    3.540832e-10   -5.461479e-01
    2.952316e+01    2.007519e+02    1.328678e-08    7.472310e+00    8.355030e-09    1.385917e-13    3.686029e-10   -5.411479e-01
    2.952254e+01    2.007477e+02    1.540026e-08    8.674674e+00    8.341585e-09    1.440833e-13    3.838748e-10   -5.361479e-01
    2.952187e+01    2.007431e+02    1.784985e-08    1.006945e+01    8.329000e-09    1.498074e-13    3.999425e-10   -5.311479e-01
    2.952113e+01    2.007381e+02    2.068901e-08    1.168719e+01    8.317310e-09    1.557747e-13    4.168503e-10   -5.261479e-01
    2.952036e+01    2.007329e+02    2.397967e-08    1.356328e+01    8.306540e-09    1.619969e-13    4.346451e-10   -5.211479e-01
    2.951952e+01    2.007272e+02    2.779361e-08    1.573866e+01    8.296725e-09    1.684857e-13    4.533762e-10   -5.161479e-01
    2.951863e+01    2.007211e+02    3.221402e-08    1.826065e+01    8.287910e-09    1.752539e-13    4.730951e-10   -5.111479e-01
    2.951766e+01    2.007145e+02    3.733728e-08    2.118398e+01    8.280130e-09    1.823146e-13    4.938559e-10   -5.061479e-01
    2.951661e+01    2.007074e+02    4.327512e-08    2.457193e+01    8.273430e-09    1.896816e-13    5.157150e-10   -5.011479e-01
    2.951549e+01    2.006997e+02    5.015700e-08    2.849767e+01    8.267845e-09    1.973695e-13    5.387320e-10   -4.961479e-01
    2.951428e+01    2.006916e+02    5.813295e-08    3.304567e+01    8.263425e-09    2.053936e-13    5.629685e-10   -4.911479e-01
    2.951298e+01    2.006827e+02    6.737680e-08    3.831353e+01    8.260215e-09    2.137699e-13    5.884890e-10   -4.861479e-01
    2.951158e+01    2.006732e+02    7.809000e-08    4.441391e+01    8.258270e-09    2.225151e-13    6.153610e-10   -4.811479e-01
    2.951008e+01    2.006631e+02    9.050600e-08    5.147685e+01    8.257640e-09    2.316469e-13    6.436545e-10   -4.761479e-01
    2.950846e+01    2.006521e+02    1.048953e-07    5.965242e+01    8.258375e-09    2.411838e-13    6.734425e-10   -4.711479e-01
    2.950671e+01    2.006403e+02    1.215713e-07    6.911363e+01    8.260535e-09    2.511451e-13    7.048010e-10   -4.661479e-01
    2.950483e+01    2.006276e+02    1.408971e-07    8.005995e+01    8.264185e-09    2.615510e-13    7.378085e-10   -4.611479e-01
    2.950282e+01    2.006139e+02    1.632934e-07    9.272130e+01    8.269380e-09    2.724229e-13    7.725460e-10   -4.561479e-01
    2.950065e+01    2.005992e+02    1.892479e-07    1.073625e+02    8.276180e-09    2.837831e-13    8.090990e-10   -4.511479e-01
    2.949831e+01    2.005834e+02    2.193251e-07    1.242885e+02    8.284660e-09    2.956548e-13    8.475535e-10   -4.461479e-01
    2.949581e+01    2.005665e+02    2.541795e-07    1.438502e+02    8.294885e-09    3.080625e-13    8.880000e-10   -4.411479e-01
    2.949310e+01    2.005482e+02    2.945689e-07    1.664514e+02    8.306920e-09    3.210318e-13    9.305310e-10   -4.361479e-01
    2.949020e+01    2.005286e+02    3.413715e-07    1.925562e+02    8.320850e-09    3.345895e-13    9.752415e-10   -4.311479e-01
    2.948707e+01    2.005075e+02    3.956044e-07    2.226983e+02    8.336735e-09    3.487635e-13    1.022229e-09   -4.261479e-01
    2.948372e+01    2.004847e+02    4.584456e-07    2.574904e+02    8.354665e-09    3.635831e-13    1.071593e-09   -4.211479e-01
    2.948009e+01    2.004603e+02    5.312600e-07    2.976366e+02    8.374710e-09    3.790789e-13    1.123436e-09   -4.161479e-01
    2.947621e+01    2.004340e+02    6.156275e-07    3.439444e+02    8.396950e-09    3.952829e-13    1.177861e-09   -4.111479e-01
    2.947203e+01    2.004058e+02    7.133790e-07    3.973400e+02    8.421475e-09    4.122285e-13    1.234976e-09   -4.061479e-01
    2.946753e+01    2.003755e+02    8.266340e-07    4.588859e+02    8.448360e-09    4.299507e-13    1.294885e-09   -4.011479e-01
    2.946270e+01    2.003430e+02    9.578465e-07    5.297985e+02    8.477695e-09    4.484857e-13    1.357699e-09   -3.961479e-01
    2.945749e+01    2.003079e+02    1.109859e-06    6.114720e+02    8.509560e-09    4.678716e-13    1.423526e-09   -3.911479e-01
    2.945190e+01    2.002704e+02    1.285961e-06    7.055014e+02    8.544045e-09    4.881480e-13    1.492477e-09   -3.861479e-01
    2.944589e+01    2.002300e+02    1.489963e-06    8.137117e+02    8.581235e-09    5.093565e-13    1.564661e-09   -3.811479e-01
    2.943943e+01    2.001866e+02    1.726273e-06    9.381890e+02    8.621220e-09    5.315395e-13    1.640188e-09   -3.761479e-01
    2.943250e+01    2.001401e+02    1.999995e-06    1.081319e+03    8.664075e-09    5.547420e-13    1.719168e-09   -3.711479e-01
    2.942503e+01    2.000901e+02    2.317036e-06    1.245825e+03    8.709895e-09    5.790110e-13    1.801709e-09   -3.661479e-01
    2.941702e+01    2.000365e+02    2.684231e-06    1.434814e+03    8.758765e-09    6.043945e-13    1.887916e-09   -3.611479e-01
    2.940838e+01    1.999788e+02    3.109488e-06    1.651834e+03    8.810765e-09    6.309435e-13    1.977897e-09   -3.561479e-01
    2.939914e+01    1.999171e+02    3.601955e-06    1.900933e+03    8.865970e-09    6.587100e-13    2.071750e-09   -3.511479e-01
    2.938921e+01    1.998509e+02    4.172219e-06    2.186717e+03    8.924470e-09    6.877485e-13    2.169576e-09   -3.461479e-01
    2.937852e+01    1.997798e+02    4.832519e-06    2.514437e+03    8.986340e-09    7.181155e-13    2.271470e-09   -3.411479e-01
    2.936708e+01    1.997037e+02    5.597005e-06    2.890075e+03    9.051645e-09    7.498700e-13    2.377521e-09   -3.361479e-01
    2.935477e+01    1.996221e+02    6.482050e-06    3.320433e+03    9.120455e-09    7.830720e-13    2.487815e-09   -3.311479e-01
    2.934158e+01    1.995349e+02    7.506565e-06    3.813247e+03    9.192845e-09    8.177855e-13    2.602432e-09   -3.261479e-01
    2.932741e+01    1.994413e+02    8.692415e-06    4.377315e+03    9.268865e-09    8.540755e-13    2.721446e-09   -3.211479e-01
    2.931221e+01    1.993412e+02    1.006487e-05    5.022631e+03    9.348575e-09    8.920095e-13    2.844921e-09   -3.161479e-01
    2.929592e+01    1.992342e+02    1.165309e-05    5.760544e+03    9.432025e-09    9.316575e-13    2.972919e-09   -3.111479e-01
    2.927846e+01    1.991198e+02    1.349080e-05    6.603939e+03    9.519255e-09    9.730920e-13    3.105489e-09   -3.061479e-01
    2.925974e+01    1.989975e+02    1.561690e-05    7.567435e+03    9.610300e-09    1.016388e-12    3.242673e-09   -3.011479e-01
    2.923971e+01    1.988670e+02    1.807633e-05    8.667604e+03    9.705195e-09    1.061622e-12    3.384503e-09   -2.961479e-01
    2.921823e+01    1.987276e+02    2.092090e-05    9.923228e+03    9.803955e-09    1.108874e-12    3.531001e-09   -2.911479e-01
    2.919525e+01    1.985790e+02    2.421042e-05    1.135560e+04    9.906595e-09    1.158227e-12    3.682179e-09   -2.861479e-01
    2.917066e+01    1.984207e+02    2.801383e-05    1.298881e+04    1.001313e-08    1.209766e-12    3.838038e-09   -2.811479e-01
    2.914435e+01    1.982521e+02    3.241064e-05    1.485012e+04    1.012354e-08    1.263578e-12    3.998566e-09   -2.761479e-01
    2.911624e+01    1.980728e+02    3.749243e-05    1.697039e+04    1.023781e-08    1.319753e-12    4.163742e-09   -2.711479e-01
    2.908621e+01    1.978822e+02    4.336471e-05    1.938450e+04    1.035593e-08    1.378386e-12    4.333529e-09   -2.661479e-01
    2.905414e+01    1.976798e+02    5.014895e-05    2.213183e+04    1.047786e-08    1.439570e-12    4.507880e-09   -2.611479e-01
    2.901993e+01    1.974654e+02    5.798495e-05    2.525690e+04    1.060356e-08    1.503406e-12    4.686733e-09   -2.561479e-01
    2.898342e+01    1.972381e+02    6.703355e-05    2.880992e+04    1.073297e-08    1.569993e-12    4.870017e-09   -2.511479e-01
    2.894455e+01    1.969978e+02    7.747955e-05    3.284754e+04    1.086604e-08    1.639437e-12    5.057645e-09   -2.461479e-01
    2.890315e+01    1.967441e+02    8.953540e-05    3.743364e+04    1.100267e-08    1.711846e-12    5.249515e-09   -2.411479e-01
    2.885910e+01    1.964765e+02    1.034451e-04    4.264012e+04    1.114280e-08    1.787328e-12    5.445515e-09   -2.361479e-01
    2.881230e+01    1.961949e+02    1.194886e-04    4.854802e+04    1.128633e-08    1.865998e-12    5.645525e-09   -2.311479e-01
    2.876259e+01    1.958991e+02    1.379869e-04    5.524846e+04    1.143315e-08    1.947971e-12    5.849400e-09   -2.261479e-01
    2.870986e+01    1.955891e+02    1.593084e-04    6.284388e+04    1.158315e-08    2.033366e-12    6.056990e-09   -2.211479e-01
    2.865400e+01    1.952650e+02    1.838743e-04    7.144944e+04    1.173621e-08    2.122307e-12    6.268140e-09   -2.161479e-01
    2.859488e+01    1.949269e+02    2.121675e-04    8.119436e+04    1.189218e-08    2.214918e-12    6.482675e-09   -2.111479e-01
    2.853238e+01    1.945753e+02    2.447398e-04    9.222360e+04    1.205094e-08    2.311329e-12    6.700405e-09   -2.061479e-01
    2.846643e+01    1.942108e+02    2.822221e-04    1.046998e+05    1.221232e-08    2.411672e-12    6.921145e-09   -2.011479e-01
    2.839694e+01    1.938345e+02    3.253346e-04    1.188052e+05    1.237618e-08    2.516083e-12    7.144680e-09   -1.961479e-01
    2.832379e+01    1.934472e+02    3.748993e-04    1.347435e+05    1.254234e-08    2.624701e-12    7.370810e-09   -1.911479e-01
    2.824698e+01    1.930506e+02    4.318533e-04    1.527429e+05    1.271063e-08    2.737668e-12    7.599310e-09   -1.861479e-01
    2.816642e+01    1.926467e+02    4.972640e-04    1.730585e+05    1.288089e-08    2.855130e-12    7.829955e-09   -1.811479e-01
    2.808212e+01    1.922374e+02    5.723460e-04    1.959752e+05    1.305292e-08    2.977238e-12    8.062515e-09   -1.761479e-01
    2.799408e+01    1.918256e+02    6.584810e-04    2.218111e+05    1.322654e-08    3.104145e-12    8.296745e-09   -1.711479e-01
    2.790233e+01    1.914147e+02    7.572385e-04    2.509215e+05    1.340156e-08    3.236009e-12    8.532410e-09   -1.661479e-01
    2.780694e+01    1.910082e+02    8.704000e-04    2.837025e+05    1.357779e-08    3.372992e-12    8.769260e-09   -1.611479e-01
    2.770800e+01    1.906105e+02    9.999865e-04    3.205960e+05    1.375503e-08    3.515258e-12    9.007055e-09   -1.561479e-01
    2.760565e+01    1.902268e+02    1.148288e-03    3.620944e+05    1.393308e-08    3.662978e-12    9.245550e-09   -1.511479e-01
    2.750006e+01    1.898626e+02    1.317898e-03    4.087470e+05    1.411175e-08    3.816326e-12    9.484490e-09   -1.461479e-01
    2.739143e+01    1.895244e+02    1.511749e-03    4.611655e+05    1.429085e-08    3.975480e-12    9.723630e-09   -1.411479e-01
    2.728001e+01    1.892194e+02    1.733161e-03    5.200321e+05    1.447016e-08    4.140624e-12    9.962730e-09   -1.361479e-01
    2.716606e+01    1.889554e+02    1.985883e-03    5.861070e+05    1.464952e-08    4.311946e-12    1.020155e-08   -1.311479e-01
    2.704988e+01    1.887412e+02    2.274145e-03    6.602372e+05    1.482872e-08    4.489638e-12    1.043986e-08   -1.261479e-01
    2.693179e+01    1.885860e+02    2.602725e-03    7.433668e+05    1.500757e-08    4.673899e-12    1.067741e-08   -1.211479e-01
    2.681215e+01    1.885002e+02    2.977010e-03    8.365488e+05    1.518591e-08    4.864930e-12    1.091398e-08   -1.161479e-01
    2.669130e+01    1.884944e+02    3.403072e-03    9.409567e+05    1.536354e-08    5.062940e-12    1.114935e-08   -1.111479e-01
    2.656955e+01    1.885800e+02    3.887752e-03    1.057898e+06    1.554029e-08    5.268145e-12    1.138332e-08   -1.061479e-01
    2.644720e+01    1.887688e+02    4.438751e-03    1.188827e+06    1.571600e-08    5.480765e-12    1.161567e-08   -1.011479e-01
    2.632454e+01    1.890728e+02    5.064740e-03    1.335366e+06    1.589051e-08    5.701025e-12    1.184620e-08   -9.614790e-02
    2.620177e+01    1.895042e+02    5.775460e-03    1.499315e+06    1.606366e-08    5.929155e-12    1.207475e-08   -9.114790e-02
    2.607896e+01    1.900752e+02    6.581875e-03    1.682673e+06    1.623530e-08    6.165395e-12    1.230110e-08   -8.614790e-02
    2.595613e+01    1.907974e+02    7.496285e-03    1.887652e+06    1.640530e-08    6.409990e-12    1.252511e-08   -8.114790e-02
    2.583315e+01    1.916820e+02    8.532490e-03    2.116696e+06    1.657352e-08    6.663195e-12    1.274661e-08   -7.614790e-02
    2.570977e+01    1.927393e+02    9.705945e-03    2.372492e+06    1.673984e-08    6.925265e-12    1.296546e-08   -7.114790e-02
    2.558553e+01    1.939782e+02    1.103396e-02    2.657984e+06    1.690415e-08    7.196470e-12    1.318152e-08   -6.614790e-02
    2.545980e+01    1.954060e+02    1.253584e-02    2.976380e+06    1.706633e-08    7.477085e-12    1.339465e-08   -6.114790e-02
    2.533179e+01    1.970281e+02    1.423312e-02    3.331152e+06    1.722629e-08    7.767395e-12    1.360473e-08   -5.614790e-02
    2.520054e+01    1.988478e+02    1.614974e-02    3.726040e+06    1.738393e-08    8.067685e-12    1.381167e-08   -5.114790e-02
    2.506488e+01    2.008655e+02    1.831224e-02    4.165029e+06    1.753918e-08    8.378260e-12    1.401537e-08   -4.614790e-02
    2.492352e+01    2.030791e+02    2.074994e-02    4.652332e+06    1.769195e-08    8.699430e-12    1.421573e-08   -4.114790e-02
    2.477509e+01    2.054834e+02    2.349513e-02    5.192368e+06    1.784218e-08    9.031510e-12    1.441269e-08   -3.614790e-02
    2.461808e+01    2.080697e+02    2.658321e-02    5.789689e+06    1.798981e-08    9.374830e-12    1.460617e-08   -3.114790e-02
    2.445095e+01    2.108259e+02    3.005284e-02    6.448950e+06    1.813479e-08    9.729730e-12    1.479612e-08   -2.614790e-02
    2.427225e+01    2.137369e+02    3.394597e-02    7.174833e+06    1.827707e-08    1.009656e-11    1.498249e-08   -2.114790e-02
    2.408054e+01    2.167844e+02    3.830796e-02    7.971967e+06    1.841662e-08    1.047568e-11    1.516525e-08   -1.614790e-02
    2.387453e+01    2.199466e+02    4.318753e-02    8.844832e+06    1.855341e-08    1.086747e-11    1.534435e-08   -1.114790e-02
    2.365309e+01    2.231993e+02    4.863665e-02    9.797661e+06    1.868742e-08    1.127230e-11    1.551980e-08   -6.147900e-03
    2.341530e+01    2.265154e+02    5.471050e-02    1.083435e+07    1.881862e-08    1.169057e-11    1.569156e-08   -1.147900e-03
    2.316053e+01    2.298662e+02    6.146710e-02    1.195833e+07    1.894701e-08    1.212269e-11    1.585963e-08    3.852100e-03
    2.288839e+01    2.332213e+02    6.896725e-02    1.317251e+07    1.907259e-08    1.256910e-11    1.602401e-08    8.852100e-03
    2.259881e+01    2.365494e+02    7.727395e-02    1.447914e+07    1.919535e-08    1.303022e-11    1.618473e-08    1.385210e-02
    2.229198e+01    2.398188e+02    8.645215e-02    1.587974e+07    1.931530e-08    1.350650e-11    1.634177e-08    1.885210e-02
    2.196843e+01    2.429980e+02    9.656815e-02    1.737503e+07    1.943245e-08    1.399842e-11    1.649519e-08    2.385210e-02
    2.162891e+01    2.460564e+02    1.076891e-01    1.896490e+07    1.954682e-08    1.450644e-11    1.664497e-08    2.885210e-02
    2.127443e+01    2.489648e+02    1.198826e-01    2.064836e+07    1.965843e-08    1.503110e-11    1.679118e-08    3.385210e-02
    2.090623e+01    2.516956e+02    1.332158e-01    2.242353e+07    1.976730e-08    1.557287e-11    1.693384e-08    3.885210e-02
    2.052568e+01    2.542239e+02    1.477549e-01    2.428768e+07    1.987346e-08    1.613233e-11    1.707299e-08    4.385210e-02
    2.013433e+01    2.565274e+02    1.635648e-01    2.623723e+07    1.997694e-08    1.670999e-11    1.720868e-08    4.885210e-02
    1.973380e+01    2.585866e+02    1.807081e-01    2.826785e+07    2.007778e-08    1.730645e-11    1.734095e-08    5.385210e-02
    1.932578e+01    2.603857e+02    1.992449e-01    3.037451e+07    2.017600e-08    1.792230e-11    1.746986e-08    5.885210e-02
    1.891197e+01    2.619118e+02    2.192321e-01    3.255157e+07    2.027166e-08    1.855814e-11    1.759545e-08    6.385210e-02
    1.849407e+01    2.631556e+02    2.407231e-01    3.479290e+07    2.036478e-08    1.921460e-11    1.771779e-08    6.885210e-02
    1.807372e+01    2.641112e+02    2.637674e-01    3.709199e+07    2.045543e-08    1.989237e-11    1.783693e-08    7.385210e-02
    1.765251e+01    2.647756e+02    2.884100e-01    3.944208e+07    2.054363e-08    2.059210e-11    1.795294e-08    7.885210e-02
    1.723193e+01    2.651490e+02    3.146918e-01    4.183619e+07    2.062943e-08    2.131450e-11    1.806588e-08    8.385210e-02
    1.681340e+01    2.652348e+02    3.426488e-01    4.426741e+07    2.071289e-08    2.206031e-11    1.817580e-08    8.885210e-02
    1.639819e+01    2.650384e+02    3.723124e-01    4.672877e+07    2.079406e-08    2.283028e-11    1.828278e-08    9.385210e-02
    1.598749e+01    2.645677e+02    4.037094e-01    4.921358e+07    2.087298e-08    2.362519e-11    1.838688e-08    9.885210e-02
    1.558233e+01    2.638324e+02    4.368620e-01    5.171533e+07    2.094969e-08    2.444586e-11    1.848816e-08    1.038521e-01
    1.518366e+01    2.628441e+02    4.717879e-01    5.422786e+07    2.102427e-08    2.529313e-11    1.858670e-08    1.088521e-01
    1.479225e+01    2.616153e+02    5.085005e-01    5.674534e+07    2.109674e-08    2.616787e-11    1.868255e-08    1.138521e-01
    1.440881e+01    2.601602e+02    5.470090e-01    5.926247e+07    2.116718e-08    2.707100e-11    1.877579e-08    1.188521e-01
    1.403391e+01    2.584927e+02    5.873190e-01    6.177430e+07    2.123562e-08    2.800343e-11    1.886649e-08    1.238521e-01
    1.366801e+01    2.566282e+02    6.294330e-01    6.427646e+07    2.130213e-08    2.896616e-11    1.895470e-08    1.288521e-01
    1.331149e+01    2.545818e+02    6.733490e-01    6.676501e+07    2.136674e-08    2.996017e-11    1.904049e-08    1.338521e-01
    1.296462e+01    2.523687e+02    7.190640e-01    6.923655e+07    2.142951e-08    3.098654e-11    1.912394e-08    1.388521e-01
    1.262762e+01    2.500038e+02    7.665705e-01    7.168812e+07    2.149050e-08    3.204635e-11    1.920510e-08    1.438521e-01
    1.230058e+01    2.475018e+02    8.158600e-01    7.411721e+07    2.154975e-08    3.314071e-11    1.928404e-08    1.488521e-01
    1.198358e+01    2.448771e+02    8.669220e-01    7.652190e+07    2.160732e-08    3.427079e-11    1.936082e-08    1.538521e-01
    1.167659e+01    2.421432e+02    9.197440e-01    7.890050e+07    2.166324e-08    3.543782e-11    1.943550e-08    1.588521e-01
    1.137958e+01    2.393132e+02    9.743120e-01    8.125184e+07    2.171757e-08    3.664304e-11    1.950815e-08    1.638521e-01
    1.109245e+01    2.363994e+02    1.030612e+00    8.357505e+07    2.177038e-08    3.788777e-11    1.957882e-08    1.688521e-01
    1.081505e+01    2.334132e+02    1.088627e+00    8.586961e+07    2.182168e-08    3.917336e-11    1.964759e-08    1.738521e-01
    1.054721e+01    2.303657e+02    1.148342e+00    8.813527e+07    2.187152e-08    4.050122e-11    1.971449e-08    1.788521e-01
    1.028874e+01    2.272669e+02    1.209739e+00    9.037201e+07    2.191998e-08    4.187282e-11    1.977959e-08    1.838521e-01
