# sky130 nfet_01v8 gm/ID Processed Lookup Table
# Corner: tt
# Temperature: 0C
# W = 2.0 um
# L = 4.5 um (4500 nm)
# Columns: gm/id [1/V]  gm/gds [V/V]  id/W [A/m]  ft [Hz]  Cgg/W [F/m]  Cgd/W [F/m]  Cgs/W [F/m]  Vov [V]
#         gm/id          gm/gds            id/W              ft           Cgg/W           Cgd/W           Cgs/W             Vov
    2.957567e+01    2.177433e+02    5.125170e-09    2.515158e+00    9.591750e-09    1.266276e-13    3.365746e-10   -5.684977e-01
    2.957526e+01    2.177402e+02    5.941970e-09    2.922104e+00    9.571575e-09    1.315870e-13    3.497193e-10   -5.634977e-01
    2.957480e+01    2.177369e+02    6.888935e-09    3.394608e+00    9.552220e-09    1.367516e-13    3.635296e-10   -5.584977e-01
    2.957432e+01    2.177334e+02    7.986790e-09    3.943172e+00    9.533700e-09    1.421307e-13    3.780439e-10   -5.534977e-01
    2.957380e+01    2.177295e+02    9.259585e-09    4.579964e+00    9.516050e-09    1.477343e-13    3.933023e-10   -5.484977e-01
    2.957323e+01    2.177254e+02    1.073519e-08    5.319089e+00    9.499295e-09    1.535729e-13    4.093472e-10   -5.434977e-01
    2.957263e+01    2.177209e+02    1.244591e-08    6.176884e+00    9.483465e-09    1.596571e-13    4.262224e-10   -5.384977e-01
    2.957197e+01    2.177161e+02    1.442919e-08    7.172273e+00    9.468595e-09    1.659987e-13    4.439753e-10   -5.334977e-01
    2.957127e+01    2.177109e+02    1.672845e-08    8.327172e+00    9.454715e-09    1.726095e-13    4.626563e-10   -5.284977e-01
    2.957050e+01    2.177053e+02    1.939404e-08    9.666947e+00    9.441865e-09    1.795022e-13    4.823172e-10   -5.234977e-01
    2.956969e+01    2.176993e+02    2.248427e-08    1.122096e+01    9.430085e-09    1.866901e-13    5.030130e-10   -5.184977e-01
    2.956882e+01    2.176929e+02    2.606680e-08    1.302321e+01    9.419415e-09    1.941871e-13    5.248005e-10   -5.134977e-01
    2.956786e+01    2.176859e+02    3.022001e-08    1.511297e+01    9.409895e-09    2.020078e-13    5.477405e-10   -5.084977e-01
    2.956685e+01    2.176785e+02    3.503478e-08    1.753573e+01    9.401575e-09    2.101676e-13    5.718955e-10   -5.034977e-01
    2.956576e+01    2.176705e+02    4.061643e-08    2.034403e+01    9.394505e-09    2.186825e-13    5.973315e-10   -4.984977e-01
    2.956458e+01    2.176618e+02    4.708708e-08    2.359862e+01    9.388730e-09    2.275695e-13    6.241180e-10   -4.934977e-01
    2.956329e+01    2.176524e+02    5.458825e-08    2.736970e+01    9.384305e-09    2.368463e-13    6.523270e-10   -4.884977e-01
    2.956193e+01    2.176425e+02    6.328395e-08    3.173834e+01    9.381285e-09    2.465315e-13    6.820330e-10   -4.834977e-01
    2.956048e+01    2.176316e+02    7.336430e-08    3.679816e+01    9.379730e-09    2.566446e-13    7.133150e-10   -4.784977e-01
    2.955890e+01    2.176200e+02    8.504970e-08    4.265720e+01    9.379700e-09    2.672061e-13    7.462545e-10   -4.734977e-01
    2.955720e+01    2.176076e+02    9.859555e-08    4.944015e+01    9.381255e-09    2.782375e-13    7.809365e-10   -4.684977e-01
    2.955537e+01    2.175941e+02    1.142979e-07    5.729082e+01    9.384465e-09    2.897612e-13    8.174490e-10   -4.634977e-01
    2.955341e+01    2.175798e+02    1.324996e-07    6.637498e+01    9.389400e-09    3.018009e-13    8.558830e-10   -4.584977e-01
    2.955129e+01    2.175642e+02    1.535984e-07    7.688373e+01    9.396125e-09    3.143812e-13    8.963335e-10   -4.534977e-01
    2.954900e+01    2.175474e+02    1.780549e-07    8.903706e+01    9.404725e-09    3.275282e-13    9.388990e-10   -4.484977e-01
    2.954655e+01    2.175295e+02    2.064032e-07    1.030886e+02    9.415265e-09    3.412688e-13    9.836795e-10   -4.434977e-01
    2.954392e+01    2.175102e+02    2.392616e-07    1.193300e+02    9.427830e-09    3.556315e-13    1.030780e-09   -4.384977e-01
    2.954108e+01    2.174894e+02    2.773472e-07    1.380967e+02    9.442500e-09    3.706460e-13    1.080308e-09   -4.334977e-01
    2.953803e+01    2.174671e+02    3.214905e-07    1.597746e+02    9.459365e-09    3.863434e-13    1.132372e-09   -4.284977e-01
    2.953474e+01    2.174430e+02    3.726538e-07    1.848074e+02    9.478500e-09    4.027563e-13    1.187087e-09   -4.234977e-01
    2.953121e+01    2.174173e+02    4.319522e-07    2.137043e+02    9.500005e-09    4.199186e-13    1.244566e-09   -4.184977e-01
    2.952742e+01    2.173895e+02    5.006770e-07    2.470502e+02    9.523970e-09    4.378659e-13    1.304929e-09   -4.134977e-01
    2.952333e+01    2.173597e+02    5.803250e-07    2.855167e+02    9.550480e-09    4.566354e-13    1.368295e-09   -4.084977e-01
    2.951891e+01    2.173275e+02    6.726295e-07    3.298735e+02    9.579635e-09    4.762659e-13    1.434785e-09   -4.034977e-01
    2.951420e+01    2.172930e+02    7.795970e-07    3.810035e+02    9.611525e-09    4.967979e-13    1.504524e-09   -3.984977e-01
    2.950910e+01    2.172560e+02    9.035540e-07    4.399177e+02    9.646255e-09    5.182735e-13    1.577635e-09   -3.934977e-01
    2.950364e+01    2.172162e+02    1.047192e-06    5.077745e+02    9.683920e-09    5.407375e-13    1.654246e-09   -3.884977e-01
    2.949777e+01    2.171733e+02    1.213630e-06    5.858995e+02    9.724615e-09    5.642350e-13    1.734480e-09   -3.834977e-01
    2.949144e+01    2.171274e+02    1.406479e-06    6.758088e+02    9.768445e-09    5.888145e-13    1.818464e-09   -3.784977e-01
    2.948465e+01    2.170781e+02    1.629918e-06    7.792363e+02    9.815505e-09    6.145255e-13    1.906325e-09   -3.734977e-01
    2.947736e+01    2.170252e+02    1.888787e-06    8.981635e+02    9.865890e-09    6.414205e-13    1.998186e-09   -3.684977e-01
    2.946950e+01    2.169683e+02    2.188688e-06    1.034852e+03    9.919700e-09    6.695530e-13    2.094171e-09   -3.634977e-01
    2.946106e+01    2.169072e+02    2.536104e-06    1.191884e+03    9.977035e-09    6.989800e-13    2.194401e-09   -3.584977e-01
    2.945200e+01    2.168417e+02    2.938537e-06    1.372207e+03    1.003799e-08    7.297595e-13    2.298994e-09   -3.534977e-01
    2.944226e+01    2.167713e+02    3.404669e-06    1.579178e+03    1.010265e-08    7.619525e-13    2.408065e-09   -3.484977e-01
    2.943181e+01    2.166961e+02    3.944543e-06    1.816629e+03    1.017109e-08    7.956215e-13    2.521726e-09   -3.434977e-01
    2.942059e+01    2.166153e+02    4.569777e-06    2.088917e+03    1.024343e-08    8.308330e-13    2.640081e-09   -3.384977e-01
    2.940854e+01    2.165288e+02    5.293805e-06    2.401006e+03    1.031973e-08    8.676545e-13    2.763235e-09   -3.334977e-01
    2.939559e+01    2.164360e+02    6.132170e-06    2.758546e+03    1.040007e-08    9.061565e-13    2.891279e-09   -3.284977e-01
    2.938172e+01    2.163367e+02    7.102820e-06    3.167959e+03    1.048452e-08    9.464120e-13    3.024302e-09   -3.234977e-01
    2.936682e+01    2.162304e+02    8.226525e-06    3.636546e+03    1.057315e-08    9.884965e-13    3.162386e-09   -3.184977e-01
    2.935085e+01    2.161167e+02    9.527270e-06    4.172601e+03    1.066602e-08    1.032488e-12    3.305602e-09   -3.134977e-01
    2.933370e+01    2.159950e+02    1.103278e-05    4.785545e+03    1.076317e-08    1.078469e-12    3.454013e-09   -3.084977e-01
    2.931535e+01    2.158651e+02    1.277504e-05    5.486063e+03    1.086468e-08    1.126522e-12    3.607671e-09   -3.034977e-01
    2.929567e+01    2.157262e+02    1.479104e-05    6.286285e+03    1.097054e-08    1.176734e-12    3.766621e-09   -2.984977e-01
    2.927460e+01    2.155780e+02    1.712343e-05    7.199957e+03    1.108082e-08    1.229193e-12    3.930893e-09   -2.934977e-01
    2.925202e+01    2.154198e+02    1.982146e-05    8.242660e+03    1.119552e-08    1.283993e-12    4.100509e-09   -2.884977e-01
    2.922786e+01    2.152513e+02    2.294191e-05    9.432040e+03    1.131465e-08    1.341229e-12    4.275473e-09   -2.834977e-01
    2.920203e+01    2.150718e+02    2.655030e-05    1.078808e+04    1.143822e-08    1.400998e-12    4.455782e-09   -2.784977e-01
    2.917441e+01    2.148809e+02    3.072211e-05    1.233339e+04    1.156620e-08    1.463403e-12    4.641415e-09   -2.734977e-01
    2.914487e+01    2.146777e+02    3.554437e-05    1.409351e+04    1.169860e-08    1.528547e-12    4.832341e-09   -2.684977e-01
    2.911334e+01    2.144621e+02    4.111727e-05    1.609737e+04    1.183536e-08    1.596537e-12    5.028510e-09   -2.634977e-01
    2.907968e+01    2.142332e+02    4.755617e-05    1.837758e+04    1.197646e-08    1.667486e-12    5.229865e-09   -2.584977e-01
    2.904376e+01    2.139907e+02    5.499385e-05    2.097101e+04    1.212181e-08    1.741505e-12    5.436325e-09   -2.534977e-01
    2.900549e+01    2.137342e+02    6.358295e-05    2.391924e+04    1.227138e-08    1.818714e-12    5.647800e-09   -2.484977e-01
    2.896471e+01    2.134631e+02    7.349900e-05    2.726916e+04    1.242508e-08    1.899230e-12    5.864185e-09   -2.434977e-01
    2.892133e+01    2.131772e+02    8.494365e-05    3.107362e+04    1.258280e-08    1.983179e-12    6.085355e-09   -2.384977e-01
    2.887518e+01    2.128761e+02    9.814840e-05    3.539210e+04    1.274447e-08    2.070687e-12    6.311175e-09   -2.334977e-01
    2.882617e+01    2.125595e+02    1.133789e-04    4.029162e+04    1.290995e-08    2.161885e-12    6.541500e-09   -2.284977e-01
    2.877416e+01    2.122275e+02    1.309397e-04    4.584747e+04    1.307913e-08    2.256906e-12    6.776160e-09   -2.234977e-01
    2.871902e+01    2.118801e+02    1.511801e-04    5.214437e+04    1.325186e-08    2.355890e-12    7.014975e-09   -2.184977e-01
    2.866065e+01    2.115176e+02    1.744996e-04    5.927737e+04    1.342801e-08    2.458976e-12    7.257760e-09   -2.134977e-01
    2.859891e+01    2.111402e+02    2.013556e-04    6.735316e+04    1.360741e-08    2.566308e-12    7.504300e-09   -2.084977e-01
    2.853370e+01    2.107485e+02    2.322711e-04    7.649144e+04    1.378989e-08    2.678037e-12    7.754390e-09   -2.034977e-01
    2.846496e+01    2.103437e+02    2.678437e-04    8.682636e+04    1.397528e-08    2.794314e-12    8.007795e-09   -1.984977e-01
    2.839257e+01    2.099267e+02    3.087552e-04    9.850807e+04    1.416340e-08    2.915296e-12    8.264285e-09   -1.934977e-01
    2.831649e+01    2.094992e+02    3.557837e-04    1.117047e+05    1.435405e-08    3.041142e-12    8.523600e-09   -1.884977e-01
    2.823665e+01    2.090629e+02    4.098157e-04    1.266040e+05    1.454703e-08    3.172018e-12    8.785500e-09   -1.834977e-01
    2.815304e+01    2.086203e+02    4.718604e-04    1.434163e+05    1.474214e-08    3.308090e-12    9.049710e-09   -1.784977e-01
    2.806564e+01    2.081743e+02    5.430665e-04    1.623759e+05    1.493917e-08    3.449533e-12    9.315965e-09   -1.734977e-01
    2.797453e+01    2.077282e+02    6.247385e-04    1.837451e+05    1.513789e-08    3.596522e-12    9.583995e-09   -1.684977e-01
    2.787970e+01    2.072858e+02    7.183595e-04    2.078157e+05    1.533811e-08    3.749241e-12    9.853515e-09   -1.634977e-01
    2.778124e+01    2.068520e+02    8.256115e-04    2.349138e+05    1.553957e-08    3.907873e-12    1.012425e-08   -1.584977e-01
    2.767932e+01    2.064319e+02    9.484005e-04    2.654027e+05    1.574208e-08    4.072610e-12    1.039592e-08   -1.534977e-01
    2.757407e+01    2.060315e+02    1.088887e-03    2.996877e+05    1.594539e-08    4.243648e-12    1.066823e-08   -1.484977e-01
    2.746568e+01    2.056577e+02    1.249517e-03    3.382200e+05    1.614929e-08    4.421187e-12    1.094091e-08   -1.434977e-01
    2.735439e+01    2.053182e+02    1.433055e-03    3.815029e+05    1.635356e-08    4.605433e-12    1.121367e-08   -1.384977e-01
    2.724047e+01    2.050213e+02    1.642627e-03    4.300976e+05    1.655796e-08    4.796596e-12    1.148624e-08   -1.334977e-01
    2.712421e+01    2.047764e+02    1.881763e-03    4.846286e+05    1.676229e-08    4.994893e-12    1.175835e-08   -1.284977e-01
    2.700592e+01    2.045936e+02    2.154450e-03    5.457930e+05    1.696632e-08    5.200545e-12    1.202972e-08   -1.234977e-01
    2.688596e+01    2.044840e+02    2.465182e-03    6.143679e+05    1.716984e-08    5.413780e-12    1.230010e-08   -1.184977e-01
    2.676467e+01    2.044591e+02    2.819030e-03    6.912185e+05    1.737266e-08    5.634835e-12    1.256923e-08   -1.134977e-01
    2.664237e+01    2.045312e+02    3.221705e-03    7.773098e+05    1.757457e-08    5.863945e-12    1.283685e-08   -1.084977e-01
    2.651939e+01    2.047134e+02    3.679642e-03    8.737167e+05    1.777536e-08    6.101365e-12    1.310274e-08   -1.034977e-01
    2.639601e+01    2.050189e+02    4.200082e-03    9.816358e+05    1.797487e-08    6.347335e-12    1.336667e-08   -9.849770e-02
    2.627246e+01    2.054612e+02    4.791173e-03    1.102398e+06    1.817291e-08    6.602125e-12    1.362840e-08   -9.349770e-02
    2.614887e+01    2.060539e+02    5.462075e-03    1.237480e+06    1.836930e-08    6.866000e-12    1.388774e-08   -8.849770e-02
    2.602529e+01    2.068101e+02    6.223075e-03    1.388519e+06    1.856388e-08    7.139235e-12    1.414449e-08   -8.349770e-02
    2.590164e+01    2.077427e+02    7.085720e-03    1.557326e+06    1.875650e-08    7.422110e-12    1.439845e-08   -7.849770e-02
    2.577768e+01    2.088635e+02    8.062955e-03    1.745891e+06    1.894702e-08    7.714920e-12    1.464946e-08   -7.349770e-02
    2.565303e+01    2.101832e+02    9.169265e-03    1.956403e+06    1.913529e-08    8.017960e-12    1.489735e-08   -6.849770e-02
    2.552713e+01    2.117106e+02    1.042084e-02    2.191247e+06    1.932119e-08    8.331540e-12    1.514195e-08   -6.349770e-02
    2.539922e+01    2.134530e+02    1.183576e-02    2.453011e+06    1.950460e-08    8.655980e-12    1.538315e-08   -5.849770e-02
    2.526839e+01    2.154151e+02    1.343409e-02    2.744490e+06    1.968541e-08    8.991600e-12    1.562081e-08   -5.349770e-02
    2.513354e+01    2.175991e+02    1.523815e-02    3.068669e+06    1.986352e-08    9.338740e-12    1.585481e-08   -4.849770e-02
    2.499342e+01    2.200041e+02    1.727261e-02    3.428714e+06    2.003884e-08    9.697740e-12    1.608504e-08   -4.349770e-02
    2.484665e+01    2.226261e+02    1.956467e-02    3.827951e+06    2.021129e-08    1.006896e-11    1.631143e-08   -3.849770e-02
    2.469176e+01    2.254573e+02    2.214419e-02    4.269829e+06    2.038081e-08    1.045278e-11    1.653388e-08   -3.349770e-02
    2.452727e+01    2.284870e+02    2.504382e-02    4.757893e+06    2.054732e-08    1.084956e-11    1.675232e-08   -2.849770e-02
    2.435164e+01    2.317000e+02    2.829908e-02    5.295711e+06    2.071078e-08    1.125970e-11    1.696670e-08   -2.349770e-02
    2.416342e+01    2.350782e+02    3.194841e-02    5.886836e+06    2.087113e-08    1.168361e-11    1.717697e-08   -1.849770e-02
    2.396130e+01    2.385998e+02    3.603319e-02    6.534737e+06    2.102835e-08    1.212169e-11    1.738309e-08   -1.349770e-02
    2.374408e+01    2.422399e+02    4.059766e-02    7.242716e+06    2.118239e-08    1.257438e-11    1.758502e-08   -8.497700e-03
    2.351080e+01    2.459706e+02    4.568886e-02    8.013844e+06    2.133324e-08    1.304212e-11    1.778276e-08   -3.497700e-03
    2.326070e+01    2.497615e+02    5.135645e-02    8.850861e+06    2.148090e-08    1.352538e-11    1.797630e-08    1.502300e-03
    2.299337e+01    2.535808e+02    5.765245e-02    9.756132e+06    2.162534e-08    1.402461e-11    1.816562e-08    6.502300e-03
    2.270861e+01    2.573950e+02    6.463105e-02    1.073155e+07    2.176656e-08    1.454031e-11    1.835074e-08    1.150230e-02
    2.240657e+01    2.611697e+02    7.234815e-02    1.177846e+07    2.190457e-08    1.507300e-11    1.853167e-08    1.650230e-02
    2.208766e+01    2.648709e+02    8.086105e-02    1.289763e+07    2.203938e-08    1.562318e-11    1.870844e-08    2.150230e-02
    2.175255e+01    2.684647e+02    9.022800e-02    1.408920e+07    2.217101e-08    1.619139e-11    1.888105e-08    2.650230e-02
    2.140222e+01    2.719185e+02    1.005076e-01    1.535264e+07    2.229947e-08    1.677821e-11    1.904957e-08    3.150230e-02
    2.103784e+01    2.752016e+02    1.117583e-01    1.668678e+07    2.242480e-08    1.738419e-11    1.921402e-08    3.650230e-02
    2.066073e+01    2.782853e+02    1.240383e-01    1.808974e+07    2.254702e-08    1.800994e-11    1.937444e-08    4.150230e-02
    2.027241e+01    2.811439e+02    1.374042e-01    1.955903e+07    2.266617e-08    1.865608e-11    1.953088e-08    4.650230e-02
    1.987447e+01    2.837541e+02    1.519115e-01    2.109157e+07    2.278228e-08    1.932324e-11    1.968339e-08    5.150230e-02
    1.946858e+01    2.860968e+02    1.676131e-01    2.268372e+07    2.289540e-08    2.001209e-11    1.983205e-08    5.650230e-02
    1.905644e+01    2.881556e+02    1.845597e-01    2.433134e+07    2.300556e-08    2.072331e-11    1.997690e-08    6.150230e-02
    1.863974e+01    2.899180e+02    2.027990e-01    2.602993e+07    2.311282e-08    2.145760e-11    2.011801e-08    6.650230e-02
    1.822017e+01    2.913750e+02    2.223751e-01    2.777464e+07    2.321722e-08    2.221571e-11    2.025543e-08    7.150230e-02
    1.779929e+01    2.925211e+02    2.433291e-01    2.956041e+07    2.331882e-08    2.299838e-11    2.038925e-08    7.650230e-02
    1.737866e+01    2.933542e+02    2.656977e-01    3.138200e+07    2.341766e-08    2.380641e-11    2.051953e-08    8.150230e-02
    1.695968e+01    2.938752e+02    2.895142e-01    3.323417e+07    2.351380e-08    2.464062e-11    2.064635e-08    8.650230e-02
    1.654369e+01    2.940878e+02    3.148074e-01    3.511163e+07    2.360730e-08    2.550183e-11    2.076978e-08    9.150230e-02
    1.613188e+01    2.939984e+02    3.416026e-01    3.700927e+07    2.369821e-08    2.639094e-11    2.088988e-08    9.650230e-02
    1.572532e+01    2.936156e+02    3.699207e-01    3.892207e+07    2.378659e-08    2.730884e-11    2.100674e-08    1.015023e-01
    1.532497e+01    2.929499e+02    3.997789e-01    4.084527e+07    2.387250e-08    2.825647e-11    2.112044e-08    1.065023e-01
    1.493169e+01    2.920137e+02    4.311906e-01    4.277443e+07    2.395600e-08    2.923481e-11    2.123105e-08    1.115023e-01
    1.454618e+01    2.908201e+02    4.641656e-01    4.470532e+07    2.403713e-08    3.024487e-11    2.133863e-08    1.165023e-01
    1.416903e+01    2.893836e+02    4.987105e-01    4.663413e+07    2.411598e-08    3.128769e-11    2.144329e-08    1.215023e-01
    1.380076e+01    2.877195e+02    5.348285e-01    4.855740e+07    2.419259e-08    3.236436e-11    2.154508e-08    1.265023e-01
    1.344175e+01    2.858429e+02    5.725205e-01    5.047200e+07    2.426702e-08    3.347601e-11    2.164408e-08    1.315023e-01
    1.309230e+01    2.837700e+02    6.117845e-01    5.237523e+07    2.433933e-08    3.462378e-11    2.174038e-08    1.365023e-01
    1.275264e+01    2.815161e+02    6.526155e-01    5.426471e+07    2.440957e-08    3.580892e-11    2.183403e-08    1.415023e-01
    1.242291e+01    2.790969e+02    6.950075e-01    5.613844e+07    2.447781e-08    3.703266e-11    2.192511e-08    1.465023e-01
    1.210318e+01    2.765274e+02    7.389525e-01    5.799477e+07    2.454411e-08    3.829631e-11    2.201371e-08    1.515023e-01
    1.179346e+01    2.738222e+02    7.844410e-01    5.983235e+07    2.460852e-08    3.960122e-11    2.209989e-08    1.565023e-01
    1.149371e+01    2.709954e+02    8.314615e-01    6.165015e+07    2.467109e-08    4.094879e-11    2.218373e-08    1.615023e-01
    1.120384e+01    2.680603e+02    8.800025e-01    6.344743e+07    2.473187e-08    4.234048e-11    2.226528e-08    1.665023e-01
    1.092373e+01    2.650297e+02    9.300515e-01    6.522367e+07    2.479094e-08    4.377780e-11    2.234462e-08    1.715023e-01
    1.065322e+01    2.619153e+02    9.815945e-01    6.697858e+07    2.484833e-08    4.526232e-11    2.242181e-08    1.765023e-01
    1.039212e+01    2.587282e+02    1.034618e+00    6.871211e+07    2.490411e-08    4.679567e-11    2.249692e-08    1.815023e-01
    1.014021e+01    2.554788e+02    1.089109e+00    7.042438e+07    2.495831e-08    4.837953e-11    2.257002e-08    1.865023e-01
