# sky130 nfet_01v8 gm/ID Processed Lookup Table
# Corner: tt
# Temperature: 0C
# W = 2.0 um
# L = 1.8 um (1800 nm)
# Columns: gm/id [1/V]  gm/gds [V/V]  id/W [A/m]  ft [Hz]  Cgg/W [F/m]  Cgd/W [F/m]  Cgs/W [F/m]  Vov [V]
#         gm/id          gm/gds            id/W              ft           Cgg/W           Cgd/W           Cgs/W             Vov
    2.957900e+01    1.475459e+02    7.314650e-09    8.889104e+00    3.873818e-09    4.083675e-14    1.221494e-10   -5.868529e-01
    2.957869e+01    1.475443e+02    8.480535e-09    1.032939e+01    3.864982e-09    4.242838e-14    1.267497e-10   -5.818529e-01
    2.957837e+01    1.475427e+02    9.832230e-09    1.200217e+01    3.856442e-09    4.408487e-14    1.315749e-10   -5.768529e-01
    2.957801e+01    1.475409e+02    1.139936e-08    1.394476e+01    3.848207e-09    4.580916e-14    1.366378e-10   -5.718529e-01
    2.957763e+01    1.475390e+02    1.321624e-08    1.620047e+01    3.840287e-09    4.760429e-14    1.419518e-10   -5.668529e-01
    2.957721e+01    1.475370e+02    1.532267e-08    1.881950e+01    3.832689e-09    4.947352e-14    1.475313e-10   -5.618529e-01
    2.957677e+01    1.475348e+02    1.776479e-08    2.186005e+01    3.825426e-09    5.142020e-14    1.533912e-10   -5.568529e-01
    2.957628e+01    1.475324e+02    2.059608e-08    2.538954e+01    3.818505e-09    5.344790e-14    1.595468e-10   -5.518529e-01
    2.957576e+01    1.475298e+02    2.387856e-08    2.948615e+01    3.811941e-09    5.556035e-14    1.660155e-10   -5.468529e-01
    2.957519e+01    1.475269e+02    2.768410e-08    3.424038e+01    3.805743e-09    5.776140e-14    1.728148e-10   -5.418529e-01
    2.957460e+01    1.475240e+02    3.209604e-08    3.975715e+01    3.799926e-09    6.005525e-14    1.799632e-10   -5.368529e-01
    2.957394e+01    1.475207e+02    3.721098e-08    4.615785e+01    3.794503e-09    6.244620e-14    1.874802e-10   -5.318529e-01
    2.957325e+01    1.475172e+02    4.314092e-08    5.358310e+01    3.789489e-09    6.493870e-14    1.953862e-10   -5.268529e-01
    2.957250e+01    1.475135e+02    5.001565e-08    6.219563e+01    3.784899e-09    6.753755e-14    2.037027e-10   -5.218529e-01
    2.957169e+01    1.475094e+02    5.798570e-08    7.218374e+01    3.780749e-09    7.024770e-14    2.124521e-10   -5.168529e-01
    2.957080e+01    1.475050e+02    6.722555e-08    8.376530e+01    3.777055e-09    7.307440e-14    2.216583e-10   -5.118529e-01
    2.956987e+01    1.475004e+02    7.793730e-08    9.719229e+01    3.773837e-09    7.602315e-14    2.313457e-10   -5.068529e-01
    2.956887e+01    1.474954e+02    9.035545e-08    1.127560e+02    3.771113e-09    7.909970e-14    2.415405e-10   -5.018529e-01
    2.956777e+01    1.474900e+02    1.047518e-07    1.307932e+02    3.768903e-09    8.231005e-14    2.522695e-10   -4.968529e-01
    2.956660e+01    1.474842e+02    1.214411e-07    1.516930e+02    3.767227e-09    8.566060e-14    2.635611e-10   -4.918529e-01
    2.956535e+01    1.474779e+02    1.407886e-07    1.759048e+02    3.766107e-09    8.915790e-14    2.754449e-10   -4.868529e-01
    2.956400e+01    1.474712e+02    1.632173e-07    2.039478e+02    3.765567e-09    9.280900e-14    2.879516e-10   -4.818529e-01
    2.956254e+01    1.474639e+02    1.892179e-07    2.364211e+02    3.765632e-09    9.662115e-14    3.011133e-10   -4.768529e-01
    2.956098e+01    1.474562e+02    2.193586e-07    2.740160e+02    3.766324e-09    1.006020e-13    3.149633e-10   -4.718529e-01
    2.955929e+01    1.474478e+02    2.542984e-07    3.175301e+02    3.767671e-09    1.047596e-13    3.295363e-10   -4.668529e-01
    2.955747e+01    1.474387e+02    2.948010e-07    3.678829e+02    3.769698e-09    1.091023e-13    3.448681e-10   -4.618529e-01
    2.955552e+01    1.474290e+02    3.417512e-07    4.261346e+02    3.772437e-09    1.136390e-13    3.609963e-10   -4.568529e-01
    2.955342e+01    1.474185e+02    3.961748e-07    4.935062e+02    3.775914e-09    1.183788e-13    3.779592e-10   -4.518529e-01
    2.955117e+01    1.474074e+02    4.592602e-07    5.714040e+02    3.780161e-09    1.233313e-13    3.957967e-10   -4.468529e-01
    2.954873e+01    1.473953e+02    5.323850e-07    6.614468e+02    3.785208e-09    1.285068e-13    4.145498e-10   -4.418529e-01
    2.954612e+01    1.473823e+02    6.171450e-07    7.654975e+02    3.791090e-09    1.339157e-13    4.342610e-10   -4.368529e-01
    2.954330e+01    1.473684e+02    7.153900e-07    8.856980e+02    3.797837e-09    1.395691e-13    4.549737e-10   -4.318529e-01
    2.954027e+01    1.473533e+02    8.292625e-07    1.024511e+03    3.805486e-09    1.454786e-13    4.767325e-10   -4.268529e-01
    2.953702e+01    1.473372e+02    9.612455e-07    1.184766e+03    3.814071e-09    1.516563e-13    4.995831e-10   -4.218529e-01
    2.953352e+01    1.473198e+02    1.114216e-06    1.369711e+03    3.823628e-09    1.581145e-13    5.235725e-10   -4.168529e-01
    2.952975e+01    1.473011e+02    1.291507e-06    1.583078e+03    3.834195e-09    1.648669e-13    5.487475e-10   -4.118529e-01
    2.952569e+01    1.472810e+02    1.496977e-06    1.829144e+03    3.845808e-09    1.719268e-13    5.751575e-10   -4.068529e-01
    2.952133e+01    1.472595e+02    1.735102e-06    2.112816e+03    3.858507e-09    1.793088e-13    6.028515e-10   -4.018529e-01
    2.951663e+01    1.472362e+02    2.011058e-06    2.439715e+03    3.872330e-09    1.870278e-13    6.318790e-10   -3.968529e-01
    2.951159e+01    1.472113e+02    2.330847e-06    2.816285e+03    3.887316e-09    1.950994e-13    6.622900e-10   -3.918529e-01
    2.950617e+01    1.471845e+02    2.701417e-06    3.249898e+03    3.903505e-09    2.035400e-13    6.941350e-10   -3.868529e-01
    2.950034e+01    1.471558e+02    3.130813e-06    3.748992e+03    3.920937e-09    2.123663e-13    7.274650e-10   -3.818529e-01
    2.949407e+01    1.471248e+02    3.628354e-06    4.323213e+03    3.939651e-09    2.215962e-13    7.623300e-10   -3.768529e-01
    2.948733e+01    1.470916e+02    4.204825e-06    4.983593e+03    3.959688e-09    2.312479e-13    7.987815e-10   -3.718529e-01
    2.948009e+01    1.470560e+02    4.872715e-06    5.742732e+03    3.981086e-09    2.413406e-13    8.368680e-10   -3.668529e-01
    2.947231e+01    1.470177e+02    5.646480e-06    6.615010e+03    4.003885e-09    2.518942e-13    8.766390e-10   -3.618529e-01
    2.946393e+01    1.469766e+02    6.542855e-06    7.616849e+03    4.028123e-09    2.629291e-13    9.181435e-10   -3.568529e-01
    2.945495e+01    1.469325e+02    7.581195e-06    8.766972e+03    4.053839e-09    2.744669e-13    9.614275e-10   -3.518529e-01
    2.944529e+01    1.468852e+02    8.783910e-06    1.008672e+04    4.081067e-09    2.865300e-13    1.006538e-09   -3.468529e-01
    2.943492e+01    1.468345e+02    1.017692e-05    1.160042e+04    4.109845e-09    2.991411e-13    1.053518e-09   -3.418529e-01
    2.942377e+01    1.467800e+02    1.179021e-05    1.333577e+04    4.140206e-09    3.123243e-13    1.102409e-09   -3.368529e-01
    2.941181e+01    1.467217e+02    1.365845e-05    1.532429e+04    4.172182e-09    3.261044e-13    1.153252e-09   -3.318529e-01
    2.939897e+01    1.466592e+02    1.582176e-05    1.760184e+04    4.205803e-09    3.405069e-13    1.206084e-09   -3.268529e-01
    2.938518e+01    1.465922e+02    1.832648e-05    2.020921e+04    4.241098e-09    3.555585e-13    1.260938e-09   -3.218529e-01
    2.937039e+01    1.465205e+02    2.122621e-05    2.319274e+04    4.278093e-09    3.712866e-13    1.317847e-09   -3.168529e-01
    2.935454e+01    1.464439e+02    2.458286e-05    2.660509e+04    4.316811e-09    3.877195e-13    1.376838e-09   -3.118529e-01
    2.933754e+01    1.463618e+02    2.846798e-05    3.050604e+04    4.357272e-09    4.048865e-13    1.437934e-09   -3.068529e-01
    2.931931e+01    1.462741e+02    3.296421e-05    3.496342e+04    4.399494e-09    4.228179e-13    1.501156e-09   -3.018529e-01
    2.929977e+01    1.461803e+02    3.816699e-05    4.005419e+04    4.443490e-09    4.415449e-13    1.566520e-09   -2.968529e-01
    2.927884e+01    1.460802e+02    4.418644e-05    4.586559e+04    4.489272e-09    4.610997e-13    1.634036e-09   -2.918529e-01
    2.925643e+01    1.459734e+02    5.114970e-05    5.249653e+04    4.536845e-09    4.815153e-13    1.703711e-09   -2.868529e-01
    2.923242e+01    1.458594e+02    5.920345e-05    6.005894e+04    4.586213e-09    5.028260e-13    1.775545e-09   -2.818529e-01
    2.920676e+01    1.457379e+02    6.851675e-05    6.867964e+04    4.637374e-09    5.250670e-13    1.849535e-09   -2.768529e-01
    2.917932e+01    1.456086e+02    7.928460e-05    7.850211e+04    4.690323e-09    5.482745e-13    1.925671e-09   -2.718529e-01
    2.914997e+01    1.454710e+02    9.173170e-05    8.968853e+04    4.745050e-09    5.724855e-13    2.003938e-09   -2.668529e-01
    2.911862e+01    1.453248e+02    1.061168e-04    1.024223e+05    4.801538e-09    5.977385e-13    2.084313e-09   -2.618529e-01
    2.908515e+01    1.451696e+02    1.227379e-04    1.169107e+05    4.859771e-09    6.240725e-13    2.166772e-09   -2.568529e-01
    2.904945e+01    1.450050e+02    1.419377e-04    1.333875e+05    4.919724e-09    6.515275e-13    2.251279e-09   -2.518529e-01
    2.901138e+01    1.448306e+02    1.641107e-04    1.521167e+05    4.981367e-09    6.801455e-13    2.337797e-09   -2.468529e-01
    2.897081e+01    1.446462e+02    1.897103e-04    1.733961e+05    5.044665e-09    7.099690e-13    2.426281e-09   -2.418529e-01
    2.892765e+01    1.444516e+02    2.192572e-04    1.975611e+05    5.109585e-09    7.410410e-13    2.516679e-09   -2.368529e-01
    2.888173e+01    1.442462e+02    2.533494e-04    2.249895e+05    5.176080e-09    7.734060e-13    2.608934e-09   -2.318529e-01
    2.883293e+01    1.440301e+02    2.926735e-04    2.561067e+05    5.244105e-09    8.071100e-13    2.702984e-09   -2.268529e-01
    2.878113e+01    1.438030e+02    3.380163e-04    2.913911e+05    5.313605e-09    8.422000e-13    2.798759e-09   -2.218529e-01
    2.872621e+01    1.435652e+02    3.902797e-04    3.313808e+05    5.384520e-09    8.787230e-13    2.896187e-09   -2.168529e-01
    2.866802e+01    1.433163e+02    4.504967e-04    3.766792e+05    5.456795e-09    9.167290e-13    2.995186e-09   -2.118529e-01
    2.860646e+01    1.430567e+02    5.198490e-04    4.279644e+05    5.530365e-09    9.562680e-13    3.095675e-09   -2.068529e-01
    2.854144e+01    1.427869e+02    5.996880e-04    4.859972e+05    5.605155e-09    9.973905e-13    3.197562e-09   -2.018529e-01
    2.847283e+01    1.425070e+02    6.915580e-04    5.516287e+05    5.681100e-09    1.040150e-12    3.300756e-09   -1.968529e-01
    2.840056e+01    1.422179e+02    7.972210e-04    6.258143e+05    5.758115e-09    1.084599e-12    3.405157e-09   -1.918529e-01
    2.832457e+01    1.419204e+02    9.186875e-04    7.096207e+05    5.836130e-09    1.130793e-12    3.510666e-09   -1.868529e-01
    2.824477e+01    1.416157e+02    1.058249e-03    8.042429e+05    5.915055e-09    1.178789e-12    3.617178e-09   -1.818529e-01
    2.816115e+01    1.413052e+02    1.218514e-03    9.110152e+05    5.994810e-09    1.228641e-12    3.724586e-09   -1.768529e-01
    2.807370e+01    1.409904e+02    1.402450e-03    1.031427e+06    6.075310e-09    1.280412e-12    3.832779e-09   -1.718529e-01
    2.798241e+01    1.406736e+02    1.613431e-03    1.167143e+06    6.156465e-09    1.334159e-12    3.941647e-09   -1.668529e-01
    2.788735e+01    1.403569e+02    1.855286e-03    1.320018e+06    6.238185e-09    1.389943e-12    4.051078e-09   -1.618529e-01
    2.778860e+01    1.400434e+02    2.132361e-03    1.492121e+06    6.320385e-09    1.447828e-12    4.160956e-09   -1.568529e-01
    2.768626e+01    1.397362e+02    2.449585e-03    1.685760e+06    6.402965e-09    1.507876e-12    4.271168e-09   -1.518529e-01
    2.758045e+01    1.394390e+02    2.812537e-03    1.903504e+06    6.485835e-09    1.570153e-12    4.381598e-09   -1.468529e-01
    2.747139e+01    1.391559e+02    3.227532e-03    2.148217e+06    6.568910e-09    1.634727e-12    4.492134e-09   -1.418529e-01
    2.735928e+01    1.388919e+02    3.701713e-03    2.423086e+06    6.652100e-09    1.701664e-12    4.602661e-09   -1.368529e-01
    2.724437e+01    1.386520e+02    4.243151e-03    2.731669e+06    6.735305e-09    1.771035e-12    4.713069e-09   -1.318529e-01
    2.712695e+01    1.384419e+02    4.860957e-03    3.077918e+06    6.818450e-09    1.842911e-12    4.823247e-09   -1.268529e-01
    2.700731e+01    1.382681e+02    5.565415e-03    3.466248e+06    6.901435e-09    1.917364e-12    4.933088e-09   -1.218529e-01
    2.688579e+01    1.381372e+02    6.368125e-03    3.901565e+06    6.984185e-09    1.994470e-12    5.042485e-09   -1.168529e-01
    2.676273e+01    1.380563e+02    7.282155e-03    4.389338e+06    7.066615e-09    2.074304e-12    5.151340e-09   -1.118529e-01
    2.663844e+01    1.380331e+02    8.322230e-03    4.935660e+06    7.148640e-09    2.156945e-12    5.259550e-09   -1.068529e-01
    2.651325e+01    1.380756e+02    9.504925e-03    5.547309e+06    7.230185e-09    2.242472e-12    5.367020e-09   -1.018529e-01
    2.638745e+01    1.381917e+02    1.084888e-02    6.231826e+06    7.311175e-09    2.330967e-12    5.473655e-09   -9.685290e-02
    2.626125e+01    1.383898e+02    1.237507e-02    6.997590e+06    7.391535e-09    2.422513e-12    5.579375e-09   -9.185290e-02
    2.613481e+01    1.386779e+02    1.410704e-02    7.853887e+06    7.471205e-09    2.517197e-12    5.684095e-09   -8.685290e-02
    2.600817e+01    1.390639e+02    1.607125e-02    8.811019e+06    7.550110e-09    2.615107e-12    5.787730e-09   -8.185290e-02
    2.588129e+01    1.395553e+02    1.829734e-02    9.880343e+06    7.628195e-09    2.716332e-12    5.890215e-09   -7.685290e-02
    2.575395e+01    1.401588e+02    2.081854e-02    1.107438e+07    7.705395e-09    2.820964e-12    5.991470e-09   -7.185290e-02
    2.562581e+01    1.408804e+02    2.367202e-02    1.240682e+07    7.781665e-09    2.929100e-12    6.091440e-09   -6.685290e-02
    2.549633e+01    1.417246e+02    2.689928e-02    1.389263e+07    7.856950e-09    3.040835e-12    6.190055e-09   -6.185290e-02
    2.536482e+01    1.426950e+02    3.054660e-02    1.554805e+07    7.931200e-09    3.156269e-12    6.287270e-09   -5.685290e-02
    2.523038e+01    1.437933e+02    3.466542e-02    1.739054e+07    8.004375e-09    3.275506e-12    6.383030e-09   -5.185290e-02
    2.509198e+01    1.450192e+02    3.931282e-02    1.943880e+07    8.076435e-09    3.398648e-12    6.477290e-09   -4.685290e-02
    2.494841e+01    1.463707e+02    4.455187e-02    2.171263e+07    8.147350e-09    3.525806e-12    6.570010e-09   -4.185290e-02
    2.479834e+01    1.478434e+02    5.045205e-02    2.423281e+07    8.217085e-09    3.657090e-12    6.661155e-09   -3.685290e-02
    2.464034e+01    1.494306e+02    5.708970e-02    2.702093e+07    8.285605e-09    3.792613e-12    6.750690e-09   -3.185290e-02
    2.447293e+01    1.511231e+02    6.454815e-02    3.009904e+07    8.352900e-09    3.932494e-12    6.838590e-09   -2.685290e-02
    2.429465e+01    1.529095e+02    7.291800e-02    3.348948e+07    8.418935e-09    4.076852e-12    6.924840e-09   -2.185290e-02
    2.410407e+01    1.547761e+02    8.229725e-02    3.721434e+07    8.483705e-09    4.225812e-12    7.009410e-09   -1.685290e-02
    2.389986e+01    1.567066e+02    9.279135e-02    4.129521e+07    8.547190e-09    4.379502e-12    7.092290e-09   -1.185290e-02
    2.368084e+01    1.586832e+02    1.045130e-01    4.575262e+07    8.609375e-09    4.538052e-12    7.173475e-09   -6.852900e-03
    2.344604e+01    1.606862e+02    1.175820e-01    5.060555e+07    8.670260e-09    4.701598e-12    7.252955e-09   -1.852900e-03
    2.319472e+01    1.626947e+02    1.321245e-01    5.587099e+07    8.729835e-09    4.870279e-12    7.330725e-09    3.147100e-03
    2.292639e+01    1.646865e+02    1.482729e-01    6.156339e+07    8.788100e-09    5.044240e-12    7.406790e-09    8.147100e-03
    2.264088e+01    1.666391e+02    1.661647e-01    6.769422e+07    8.845055e-09    5.223625e-12    7.481150e-09    1.314710e-02
    2.233827e+01    1.685301e+02    1.859419e-01    7.427163e+07    8.900700e-09    5.408590e-12    7.553810e-09    1.814710e-02
    2.201897e+01    1.703371e+02    2.077498e-01    8.129990e+07    8.955045e-09    5.599290e-12    7.624785e-09    2.314710e-02
    2.168362e+01    1.720385e+02    2.317357e-01    8.877936e+07    9.008095e-09    5.795885e-12    7.694085e-09    2.814710e-02
    2.133318e+01    1.736146e+02    2.580480e-01    9.670636e+07    9.059855e-09    5.998550e-12    7.761720e-09    3.314710e-02
    2.096874e+01    1.750462e+02    2.868347e-01    1.050725e+08    9.110345e-09    6.207450e-12    7.827715e-09    3.814710e-02
    2.059162e+01    1.763169e+02    3.182419e-01    1.138657e+08    9.159570e-09    6.422760e-12    7.892080e-09    4.314710e-02
    2.020333e+01    1.774124e+02    3.524129e-01    1.230697e+08    9.207545e-09    6.644670e-12    7.954840e-09    4.814710e-02
    1.980543e+01    1.783204e+02    3.894865e-01    1.326641e+08    9.254290e-09    6.873370e-12    8.016015e-09    5.314710e-02
    1.939958e+01    1.790314e+02    4.295957e-01    1.426258e+08    9.299815e-09    7.109045e-12    8.075630e-09    5.814710e-02
    1.898747e+01    1.795387e+02    4.728671e-01    1.529279e+08    9.344145e-09    7.351905e-12    8.133710e-09    6.314710e-02
    1.857077e+01    1.798376e+02    5.194195e-01    1.635414e+08    9.387300e-09    7.602160e-12    8.190285e-09    6.814710e-02
    1.815116e+01    1.799263e+02    5.693625e-01    1.744353e+08    9.429290e-09    7.860015e-12    8.245370e-09    7.314710e-02
    1.773025e+01    1.798057e+02    6.227970e-01    1.855772e+08    9.470150e-09    8.125700e-12    8.299005e-09    7.814710e-02
    1.730952e+01    1.794781e+02    6.798145e-01    1.969337e+08    9.509890e-09    8.399440e-12    8.351215e-09    8.314710e-02
    1.689042e+01    1.789485e+02    7.404950e-01    2.084712e+08    9.548535e-09    8.681475e-12    8.402030e-09    8.814710e-02
    1.647429e+01    1.782236e+02    8.049090e-01    2.201564e+08    9.586110e-09    8.972045e-12    8.451480e-09    9.314710e-02
    1.606232e+01    1.773112e+02    8.731165e-01    2.319565e+08    9.622635e-09    9.271410e-12    8.499590e-09    9.814710e-02
    1.565560e+01    1.762208e+02    9.451665e-01    2.438399e+08    9.658140e-09    9.579825e-12    8.546400e-09    1.031471e-01
    1.525508e+01    1.749629e+02    1.021100e+00    2.557765e+08    9.692640e-09    9.897560e-12    8.591935e-09    1.081471e-01
    1.486162e+01    1.735484e+02    1.100944e+00    2.677380e+08    9.726165e-09    1.022489e-11    8.636225e-09    1.131471e-01
    1.447592e+01    1.719894e+02    1.184723e+00    2.796982e+08    9.758735e-09    1.056212e-11    8.679300e-09    1.181471e-01
    1.409861e+01    1.702976e+02    1.272447e+00    2.916330e+08    9.790375e-09    1.090954e-11    8.721200e-09    1.231471e-01
    1.373018e+01    1.684854e+02    1.364121e+00    3.035206e+08    9.821115e-09    1.126745e-11    8.761945e-09    1.281471e-01
    1.337102e+01    1.665649e+02    1.459741e+00    3.153420e+08    9.850965e-09    1.163617e-11    8.801570e-09    1.331471e-01
    1.302146e+01    1.645480e+02    1.559298e+00    3.270800e+08    9.879960e-09    1.201603e-11    8.840110e-09    1.381471e-01
    1.268170e+01    1.624463e+02    1.662778e+00    3.387198e+08    9.908125e-09    1.240739e-11    8.877585e-09    1.431471e-01
    1.235190e+01    1.602711e+02    1.770160e+00    3.502495e+08    9.935475e-09    1.281059e-11    8.914035e-09    1.481471e-01
    1.203212e+01    1.580331e+02    1.881418e+00    3.616590e+08    9.962035e-09    1.322598e-11    8.949480e-09    1.531471e-01
    1.172237e+01    1.557422e+02    1.996524e+00    3.729401e+08    9.987830e-09    1.365397e-11    8.983955e-09    1.581471e-01
    1.142263e+01    1.534082e+02    2.115447e+00    3.840867e+08    1.001288e-08    1.409492e-11    9.017490e-09    1.631471e-01
    1.113280e+01    1.510397e+02    2.238152e+00    3.950944e+08    1.003722e-08    1.454927e-11    9.050105e-09    1.681471e-01
