# sky130 pfet_01v8 gm/ID Processed Lookup Table
# Corner: sf
# Temperature: 75C
# W = 2.0 um
# L = 4.14 um (4140 nm)
# Columns: gm/id [1/V]  gm/gds [V/V]  id/W [A/m]  ft [Hz]  Cgg/W [F/m]  Cgd/W [F/m]  Cgs/W [F/m]  Vov [V]
#         gm/id          gm/gds            id/W              ft           Cgg/W           Cgd/W           Cgs/W             Vov
    1.983635e+00    4.295919e+00    3.979739e+00    5.300492e+07    2.370393e-08    2.328553e-09    2.164777e-08   -2.778772e+00
    2.003049e+00    4.433693e+00    3.940271e+00    5.309711e+07    2.365739e-08    2.265211e-09    2.165101e-08   -2.773772e+00
    2.022721e+00    4.578879e+00    3.900814e+00    5.318540e+07    2.361125e-08    2.202801e-09    2.165376e-08   -2.768772e+00
    2.042651e+00    4.731966e+00    3.861370e+00    5.326948e+07    2.356553e-08    2.141352e-09    2.165603e-08   -2.763772e+00
    2.062838e+00    4.893500e+00    3.821941e+00    5.334911e+07    2.352026e-08    2.080891e-09    2.165779e-08   -2.758772e+00
    2.083281e+00    5.064050e+00    3.782531e+00    5.342405e+07    2.347543e-08    2.021442e-09    2.165906e-08   -2.753772e+00
    2.103977e+00    5.244231e+00    3.743142e+00    5.349398e+07    2.343109e-08    1.963031e-09    2.165984e-08   -2.748772e+00
    2.124924e+00    5.434700e+00    3.703777e+00    5.355864e+07    2.338724e-08    1.905675e-09    2.166010e-08   -2.743772e+00
    2.146121e+00    5.636165e+00    3.664440e+00    5.361778e+07    2.334388e-08    1.849396e-09    2.165986e-08   -2.738772e+00
    2.167561e+00    5.849371e+00    3.625135e+00    5.367105e+07    2.330105e-08    1.794210e-09    2.165910e-08   -2.733772e+00
    2.189244e+00    6.075126e+00    3.585864e+00    5.371825e+07    2.325874e-08    1.740131e-09    2.165784e-08   -2.728772e+00
    2.211162e+00    6.314282e+00    3.546632e+00    5.375902e+07    2.321698e-08    1.687172e-09    2.165607e-08   -2.723772e+00
    2.233315e+00    6.567748e+00    3.507443e+00    5.379313e+07    2.317575e-08    1.635345e-09    2.165378e-08   -2.718772e+00
    2.255693e+00    6.836489e+00    3.468301e+00    5.382028e+07    2.313509e-08    1.584657e-09    2.165098e-08   -2.713772e+00
    2.278294e+00    7.121531e+00    3.429211e+00    5.384018e+07    2.309498e-08    1.535114e-09    2.164767e-08   -2.708772e+00
    2.301111e+00    7.423962e+00    3.390175e+00    5.385257e+07    2.305544e-08    1.486722e-09    2.164386e-08   -2.703772e+00
    2.324138e+00    7.744935e+00    3.351201e+00    5.385723e+07    2.301647e-08    1.439482e-09    2.163953e-08   -2.698772e+00
    2.347371e+00    8.085656e+00    3.312291e+00    5.385387e+07    2.297806e-08    1.393394e-09    2.163470e-08   -2.693772e+00
    2.370801e+00    8.447411e+00    3.273451e+00    5.384226e+07    2.294023e-08    1.348458e-09    2.162937e-08   -2.688772e+00
    2.394424e+00    8.831538e+00    3.234686e+00    5.382222e+07    2.290296e-08    1.304669e-09    2.162354e-08   -2.683772e+00
    2.418233e+00    9.239450e+00    3.196001e+00    5.379352e+07    2.286626e-08    1.262022e-09    2.161721e-08   -2.678772e+00
    2.442224e+00    9.672626e+00    3.157401e+00    5.375600e+07    2.283013e-08    1.220510e-09    2.161039e-08   -2.673772e+00
    2.466391e+00    1.013260e+01    3.118892e+00    5.370951e+07    2.279456e-08    1.180125e-09    2.160309e-08   -2.668772e+00
    2.490727e+00    1.062097e+01    3.080478e+00    5.365386e+07    2.275954e-08    1.140856e-09    2.159529e-08   -2.663772e+00
    2.515228e+00    1.113940e+01    3.042167e+00    5.358899e+07    2.272506e-08    1.102692e-09    2.158702e-08   -2.658772e+00
    2.539894e+00    1.168964e+01    3.003963e+00    5.351484e+07    2.269112e-08    1.065621e-09    2.157827e-08   -2.653772e+00
    2.564715e+00    1.227343e+01    2.965871e+00    5.343127e+07    2.265772e-08    1.029627e-09    2.156904e-08   -2.648772e+00
    2.589694e+00    1.289263e+01    2.927898e+00    5.333832e+07    2.262483e-08    9.946950e-10    2.155935e-08   -2.643772e+00
    2.614827e+00    1.354911e+01    2.890049e+00    5.323597e+07    2.259245e-08    9.608095e-10    2.154918e-08   -2.638772e+00
    2.640115e+00    1.424480e+01    2.852330e+00    5.312425e+07    2.256056e-08    9.279535e-10    2.153856e-08   -2.633772e+00
    2.665554e+00    1.498167e+01    2.814747e+00    5.300316e+07    2.252917e-08    8.961075e-10    2.152749e-08   -2.628772e+00
    2.691150e+00    1.576172e+01    2.777304e+00    5.287285e+07    2.249824e-08    8.652540e-10    2.151596e-08   -2.623772e+00
    2.716902e+00    1.658699e+01    2.740007e+00    5.273338e+07    2.246778e-08    8.353725e-10    2.150398e-08   -2.618772e+00
    2.742815e+00    1.745954e+01    2.702862e+00    5.258490e+07    2.243776e-08    8.064430e-10    2.149156e-08   -2.613772e+00
    2.768891e+00    1.838143e+01    2.665875e+00    5.242752e+07    2.240817e-08    7.784455e-10    2.147869e-08   -2.608772e+00
    2.795134e+00    1.935475e+01    2.629049e+00    5.226141e+07    2.237899e-08    7.513580e-10    2.146539e-08   -2.603772e+00
    2.821554e+00    2.038162e+01    2.592391e+00    5.208678e+07    2.235020e-08    7.251595e-10    2.145165e-08   -2.598772e+00
    2.848156e+00    2.146413e+01    2.555905e+00    5.190382e+07    2.232180e-08    6.998285e-10    2.143748e-08   -2.593772e+00
    2.874949e+00    2.260441e+01    2.519596e+00    5.171277e+07    2.229376e-08    6.753435e-10    2.142287e-08   -2.588772e+00
    2.901939e+00    2.380450e+01    2.483469e+00    5.151377e+07    2.226608e-08    6.516820e-10    2.140784e-08   -2.583772e+00
    2.929136e+00    2.506652e+01    2.447529e+00    5.130712e+07    2.223873e-08    6.288225e-10    2.139238e-08   -2.578772e+00
    2.956554e+00    2.639254e+01    2.411779e+00    5.109308e+07    2.221168e-08    6.067430e-10    2.137650e-08   -2.573772e+00
    2.984198e+00    2.778457e+01    2.376225e+00    5.087180e+07    2.218494e-08    5.854220e-10    2.136019e-08   -2.568772e+00
    3.012084e+00    2.924468e+01    2.340869e+00    5.064362e+07    2.215847e-08    5.648375e-10    2.134346e-08   -2.563772e+00
    3.040223e+00    3.077485e+01    2.305717e+00    5.040876e+07    2.213226e-08    5.449675e-10    2.132631e-08   -2.558772e+00
    3.068629e+00    3.237706e+01    2.270771e+00    5.016747e+07    2.210629e-08    5.257915e-10    2.130874e-08   -2.553772e+00
    3.097313e+00    3.405325e+01    2.236037e+00    4.991997e+07    2.208054e-08    5.072880e-10    2.129074e-08   -2.548772e+00
    3.126290e+00    3.580534e+01    2.201516e+00    4.966654e+07    2.205500e-08    4.894361e-10    2.127232e-08   -2.543772e+00
    3.155575e+00    3.763523e+01    2.167212e+00    4.940744e+07    2.202966e-08    4.722157e-10    2.125348e-08   -2.538772e+00
    3.185181e+00    3.954474e+01    2.133129e+00    4.914284e+07    2.200448e-08    4.556065e-10    2.123420e-08   -2.533772e+00
    3.215122e+00    4.153571e+01    2.099269e+00    4.887299e+07    2.197945e-08    4.395889e-10    2.121450e-08   -2.528772e+00
    3.245415e+00    4.360994e+01    2.065636e+00    4.859813e+07    2.195455e-08    4.241434e-10    2.119438e-08   -2.523772e+00
    3.276076e+00    4.576923e+01    2.032232e+00    4.831847e+07    2.192977e-08    4.092510e-10    2.117382e-08   -2.518772e+00
    3.307121e+00    4.801528e+01    1.999059e+00    4.803425e+07    2.190508e-08    3.948933e-10    2.115282e-08   -2.513772e+00
    3.338566e+00    5.034985e+01    1.966121e+00    4.774563e+07    2.188048e-08    3.810521e-10    2.113138e-08   -2.508772e+00
    3.370425e+00    5.277457e+01    1.933420e+00    4.745278e+07    2.185592e-08    3.677098e-10    2.110950e-08   -2.503772e+00
    3.402718e+00    5.529119e+01    1.900957e+00    4.715593e+07    2.183142e-08    3.548491e-10    2.108717e-08   -2.498772e+00
    3.435461e+00    5.790139e+01    1.868736e+00    4.685528e+07    2.180694e-08    3.424533e-10    2.106438e-08   -2.493772e+00
    3.468671e+00    6.060679e+01    1.836758e+00    4.655092e+07    2.178246e-08    3.305062e-10    2.104114e-08   -2.488772e+00
    3.502366e+00    6.340905e+01    1.805026e+00    4.624307e+07    2.175797e-08    3.189917e-10    2.101744e-08   -2.483772e+00
    3.536562e+00    6.630978e+01    1.773540e+00    4.593183e+07    2.173345e-08    3.078947e-10    2.099326e-08   -2.478772e+00
    3.571281e+00    6.931064e+01    1.742304e+00    4.561740e+07    2.170888e-08    2.972000e-10    2.096861e-08   -2.473772e+00
    3.606539e+00    7.241335e+01    1.711318e+00    4.529988e+07    2.168425e-08    2.868933e-10    2.094347e-08   -2.468772e+00
    3.642357e+00    7.561956e+01    1.680585e+00    4.497944e+07    2.165953e-08    2.769604e-10    2.091783e-08   -2.463772e+00
    3.678753e+00    7.893084e+01    1.650106e+00    4.465616e+07    2.163471e-08    2.673879e-10    2.089170e-08   -2.458772e+00
    3.715743e+00    8.234894e+01    1.619882e+00    4.433013e+07    2.160977e-08    2.581626e-10    2.086506e-08   -2.453772e+00
    3.753354e+00    8.587563e+01    1.589916e+00    4.400154e+07    2.158469e-08    2.492716e-10    2.083790e-08   -2.448772e+00
    3.791601e+00    8.951258e+01    1.560207e+00    4.367041e+07    2.155946e-08    2.407028e-10    2.081021e-08   -2.443772e+00
    3.830512e+00    9.326160e+01    1.530759e+00    4.333691e+07    2.153406e-08    2.324441e-10    2.078198e-08   -2.438772e+00
    3.870097e+00    9.712441e+01    1.501572e+00    4.300104e+07    2.150845e-08    2.244843e-10    2.075320e-08   -2.433772e+00
    3.910391e+00    1.011030e+02    1.472647e+00    4.266297e+07    2.148265e-08    2.168121e-10    2.072388e-08   -2.428772e+00
    3.951406e+00    1.051991e+02    1.443986e+00    4.232272e+07    2.145662e-08    2.094169e-10    2.069397e-08   -2.423772e+00
    3.993172e+00    1.094149e+02    1.415590e+00    4.198040e+07    2.143034e-08    2.022883e-10    2.066349e-08   -2.418772e+00
    4.035707e+00    1.137519e+02    1.387460e+00    4.163602e+07    2.140380e-08    1.954163e-10    2.063241e-08   -2.413772e+00
    4.079041e+00    1.182127e+02    1.359597e+00    4.128973e+07    2.137698e-08    1.887914e-10    2.060073e-08   -2.408772e+00
    4.123194e+00    1.227990e+02    1.332002e+00    4.094148e+07    2.134986e-08    1.824044e-10    2.056841e-08   -2.403772e+00
    4.168197e+00    1.275133e+02    1.304676e+00    4.059144e+07    2.132242e-08    1.762463e-10    2.053548e-08   -2.398772e+00
    4.214068e+00    1.323575e+02    1.277621e+00    4.023955e+07    2.129465e-08    1.703085e-10    2.050189e-08   -2.393772e+00
    4.260842e+00    1.373341e+02    1.250836e+00    3.988590e+07    2.126653e-08    1.645828e-10    2.046765e-08   -2.388772e+00
    4.308543e+00    1.424455e+02    1.224325e+00    3.953056e+07    2.123802e-08    1.590612e-10    2.043272e-08   -2.383772e+00
    4.357200e+00    1.476941e+02    1.198086e+00    3.917352e+07    2.120914e-08    1.537361e-10    2.039710e-08   -2.378772e+00
    4.406836e+00    1.530822e+02    1.172122e+00    3.881479e+07    2.117984e-08    1.485999e-10    2.036077e-08   -2.373772e+00
    4.457496e+00    1.586130e+02    1.146433e+00    3.845448e+07    2.115012e-08    1.436459e-10    2.032371e-08   -2.368772e+00
    4.509197e+00    1.642887e+02    1.121020e+00    3.809255e+07    2.111994e-08    1.388670e-10    2.028592e-08   -2.363772e+00
    4.561975e+00    1.701121e+02    1.095884e+00    3.772901e+07    2.108930e-08    1.342566e-10    2.024736e-08   -2.358772e+00
    4.615862e+00    1.760863e+02    1.071027e+00    3.736392e+07    2.105818e-08    1.298085e-10    2.020804e-08   -2.353772e+00
    4.670896e+00    1.822143e+02    1.046447e+00    3.699727e+07    2.102655e-08    1.255168e-10    2.016791e-08   -2.348772e+00
    4.727109e+00    1.884990e+02    1.022148e+00    3.662909e+07    2.099440e-08    1.213753e-10    2.012697e-08   -2.343772e+00
    4.784533e+00    1.949437e+02    9.981295e-01    3.625936e+07    2.096170e-08    1.173786e-10    2.008519e-08   -2.338772e+00
    4.843209e+00    2.015515e+02    9.743925e-01    3.588810e+07    2.092844e-08    1.135212e-10    2.004256e-08   -2.333772e+00
    4.903172e+00    2.083259e+02    9.509380e-01    3.551530e+07    2.089459e-08    1.097980e-10    1.999906e-08   -2.328772e+00
    4.964464e+00    2.152703e+02    9.277665e-01    3.514097e+07    2.086015e-08    1.062040e-10    1.995466e-08   -2.323772e+00
    5.027120e+00    2.223883e+02    9.048795e-01    3.476510e+07    2.082508e-08    1.027344e-10    1.990935e-08   -2.318772e+00
    5.091183e+00    2.296834e+02    8.822775e-01    3.438768e+07    2.078936e-08    9.938455e-11    1.986310e-08   -2.313772e+00
    5.156694e+00    2.371595e+02    8.599615e-01    3.400870e+07    2.075298e-08    9.615005e-11    1.981588e-08   -2.308772e+00
    5.223696e+00    2.448203e+02    8.379325e-01    3.362815e+07    2.071591e-08    9.302665e-11    1.976770e-08   -2.303772e+00
    5.292234e+00    2.526697e+02    8.161910e-01    3.324601e+07    2.067814e-08    9.001025e-11    1.971850e-08   -2.298772e+00
    5.362353e+00    2.607119e+02    7.947380e-01    3.286226e+07    2.063964e-08    8.709695e-11    1.966828e-08   -2.293772e+00
    5.434098e+00    2.689506e+02    7.735745e-01    3.247689e+07    2.060038e-08    8.428290e-11    1.961701e-08   -2.288772e+00
    5.507515e+00    2.773903e+02    7.527015e-01    3.208987e+07    2.056036e-08    8.156450e-11    1.956466e-08   -2.283772e+00
    5.582656e+00    2.860350e+02    7.321195e-01    3.170117e+07    2.051955e-08    7.893825e-11    1.951122e-08   -2.278772e+00
    5.659565e+00    2.948889e+02    7.118300e-01    3.131077e+07    2.047792e-08    7.640085e-11    1.945665e-08   -2.273772e+00
    5.738295e+00    3.039564e+02    6.918335e-01    3.091864e+07    2.043545e-08    7.394900e-11    1.940092e-08   -2.268772e+00
    5.818895e+00    3.132419e+02    6.721310e-01    3.052475e+07    2.039213e-08    7.157965e-11    1.934403e-08   -2.263772e+00
    5.901422e+00    3.227496e+02    6.527230e-01    3.012907e+07    2.034792e-08    6.928980e-11    1.928594e-08   -2.258772e+00
    5.985924e+00    3.324839e+02    6.336110e-01    2.973156e+07    2.030282e-08    6.707655e-11    1.922662e-08   -2.253772e+00
    6.072451e+00    3.424491e+02    6.147960e-01    2.933221e+07    2.025678e-08    6.493715e-11    1.916605e-08   -2.248772e+00
    6.161061e+00    3.526495e+02    5.962785e-01    2.893096e+07    2.020980e-08    6.286905e-11    1.910420e-08   -2.243772e+00
    6.251815e+00    3.630892e+02    5.780590e-01    2.852778e+07    2.016186e-08    6.086960e-11    1.904104e-08   -2.238772e+00
    6.344754e+00    3.737728e+02    5.601395e-01    2.812264e+07    2.011292e-08    5.893635e-11    1.897655e-08   -2.233772e+00
    6.439943e+00    3.847039e+02    5.425200e-01    2.771551e+07    2.006296e-08    5.706700e-11    1.891071e-08   -2.228772e+00
    6.537429e+00    3.958864e+02    5.252020e-01    2.730635e+07    2.001197e-08    5.525925e-11    1.884347e-08   -2.223772e+00
    6.637279e+00    4.073241e+02    5.081855e-01    2.689513e+07    1.995992e-08    5.351095e-11    1.877482e-08   -2.218772e+00
    6.739534e+00    4.190206e+02    4.914724e-01    2.648182e+07    1.990679e-08    5.182000e-11    1.870474e-08   -2.213772e+00
    6.844255e+00    4.309790e+02    4.750629e-01    2.606640e+07    1.985255e-08    5.018435e-11    1.863318e-08   -2.208772e+00
    6.951492e+00    4.432025e+02    4.589582e-01    2.564883e+07    1.979719e-08    4.860213e-11    1.856013e-08   -2.203772e+00
    7.061299e+00    4.556931e+02    4.431588e-01    2.522910e+07    1.974069e-08    4.707141e-11    1.848555e-08   -2.198772e+00
    7.173722e+00    4.684537e+02    4.276657e-01    2.480718e+07    1.968302e-08    4.559041e-11    1.840942e-08   -2.193772e+00
    7.288813e+00    4.814853e+02    4.124795e-01    2.438307e+07    1.962415e-08    4.415742e-11    1.833173e-08   -2.188772e+00
    7.406615e+00    4.947898e+02    3.976010e-01    2.395676e+07    1.956407e-08    4.277077e-11    1.825242e-08   -2.183772e+00
    7.527171e+00    5.083673e+02    3.830309e-01    2.352824e+07    1.950277e-08    4.142887e-11    1.817149e-08   -2.178772e+00
    7.650522e+00    5.222178e+02    3.687698e-01    2.309753e+07    1.944021e-08    4.013017e-11    1.808890e-08   -2.173772e+00
    7.776701e+00    5.363404e+02    3.548183e-01    2.266465e+07    1.937638e-08    3.887320e-11    1.800463e-08   -2.168772e+00
    7.905743e+00    5.507339e+02    3.411768e-01    2.222960e+07    1.931126e-08    3.765653e-11    1.791866e-08   -2.163772e+00
    8.037671e+00    5.653951e+02    3.278458e-01    2.179244e+07    1.924483e-08    3.647878e-11    1.783095e-08   -2.158772e+00
    8.172505e+00    5.803207e+02    3.148258e-01    2.135322e+07    1.917707e-08    3.533864e-11    1.774149e-08   -2.153772e+00
    8.310263e+00    5.955059e+02    3.021168e-01    2.091198e+07    1.910797e-08    3.423484e-11    1.765026e-08   -2.148772e+00
    8.450946e+00    6.109448e+02    2.897191e-01    2.046881e+07    1.903750e-08    3.316613e-11    1.755721e-08   -2.143772e+00
    8.594557e+00    6.266302e+02    2.776328e-01    2.002380e+07    1.896565e-08    3.213136e-11    1.746236e-08   -2.138772e+00
    8.741084e+00    6.425537e+02    2.658578e-01    1.957706e+07    1.889241e-08    3.112937e-11    1.736566e-08   -2.133772e+00
    8.890510e+00    6.587049e+02    2.543938e-01    1.912870e+07    1.881776e-08    3.015907e-11    1.726709e-08   -2.128772e+00
    9.042804e+00    6.750724e+02    2.432407e-01    1.867888e+07    1.874169e-08    2.921942e-11    1.716665e-08   -2.123772e+00
    9.197923e+00    6.916424e+02    2.323979e-01    1.822775e+07    1.866418e-08    2.830938e-11    1.706431e-08   -2.118772e+00
    9.355812e+00    7.084000e+02    2.218647e-01    1.777550e+07    1.858523e-08    2.742798e-11    1.696004e-08   -2.113772e+00
    9.516408e+00    7.253277e+02    2.116403e-01    1.732235e+07    1.850482e-08    2.657427e-11    1.685386e-08   -2.108772e+00
    9.679626e+00    7.424070e+02    2.017238e-01    1.686851e+07    1.842294e-08    2.574735e-11    1.674573e-08   -2.103772e+00
    9.845373e+00    7.596164e+02    1.921137e-01    1.641425e+07    1.833959e-08    2.494632e-11    1.663564e-08   -2.098772e+00
    1.001353e+01    7.769325e+02    1.828089e-01    1.595984e+07    1.825476e-08    2.417036e-11    1.652359e-08   -2.093772e+00
    1.018397e+01    7.943303e+02    1.738076e-01    1.550559e+07    1.816845e-08    2.341864e-11    1.640956e-08   -2.088772e+00
    1.035656e+01    8.117823e+02    1.651077e-01    1.505182e+07    1.808065e-08    2.269036e-11    1.629356e-08   -2.083772e+00
    1.053111e+01    8.292590e+02    1.567073e-01    1.459889e+07    1.799135e-08    2.198477e-11    1.617557e-08   -2.078772e+00
    1.070746e+01    8.467285e+02    1.486039e-01    1.414719e+07    1.790057e-08    2.130115e-11    1.605559e-08   -2.073772e+00
    1.088540e+01    8.641567e+02    1.407947e-01    1.369710e+07    1.780829e-08    2.063877e-11    1.593362e-08   -2.068772e+00
    1.106471e+01    8.815085e+02    1.332767e-01    1.324906e+07    1.771453e-08    1.999696e-11    1.580967e-08   -2.063772e+00
    1.124516e+01    8.987461e+02    1.260468e-01    1.280351e+07    1.761929e-08    1.937506e-11    1.568373e-08   -2.058772e+00
    1.142647e+01    9.158301e+02    1.191014e-01    1.236092e+07    1.752258e-08    1.877243e-11    1.555581e-08   -2.053772e+00
    1.160838e+01    9.327203e+02    1.124364e-01    1.192178e+07    1.742440e-08    1.818845e-11    1.542592e-08   -2.048772e+00
    1.179060e+01    9.493752e+02    1.060478e-01    1.148658e+07    1.732476e-08    1.762254e-11    1.529407e-08   -2.043772e+00
    1.197282e+01    9.657516e+02    9.993120e-02    1.105584e+07    1.722369e-08    1.707412e-11    1.516027e-08   -2.038772e+00
    1.215473e+01    9.818060e+02    9.408160e-02    1.063007e+07    1.712119e-08    1.654265e-11    1.502456e-08   -2.033772e+00
    1.233597e+01    9.974954e+02    8.849405e-02    1.020981e+07    1.701728e-08    1.602757e-11    1.488692e-08   -2.028772e+00
    1.251622e+01    1.012778e+03    8.316320e-02    9.795574e+06    1.691198e-08    1.552839e-11    1.474740e-08   -2.023772e+00
