# sky130 pfet_01v8 gm/ID Processed Lookup Table
# Corner: sf
# Temperature: 75C
# W = 2.0 um
# L = 5.04 um (5040 nm)
# Columns: gm/id [1/V]  gm/gds [V/V]  id/W [A/m]  ft [Hz]  Cgg/W [F/m]  Cgd/W [F/m]  Cgs/W [F/m]  Vov [V]
#         gm/id          gm/gds            id/W              ft           Cgg/W           Cgd/W           Cgs/W             Vov
    2.000847e+00    4.442542e+00    3.246867e+00    3.591303e+07    2.879032e-08    2.910827e-09    2.630459e-08   -2.779533e+00
    2.020387e+00    4.588728e+00    3.214390e+00    3.597344e+07    2.873236e-08    2.832155e-09    2.630862e-08   -2.774533e+00
    2.040184e+00    4.742980e+00    3.181925e+00    3.603113e+07    2.867486e-08    2.754594e-09    2.631207e-08   -2.769533e+00
    2.060238e+00    4.905864e+00    3.149474e+00    3.608596e+07    2.861787e-08    2.678182e-09    2.631493e-08   -2.764533e+00
    2.080549e+00    5.077979e+00    3.117039e+00    3.613773e+07    2.856139e-08    2.602954e-09    2.631719e-08   -2.759533e+00
    2.101113e+00    5.259972e+00    3.084623e+00    3.618624e+07    2.850546e-08    2.528944e-09    2.631885e-08   -2.754533e+00
    2.121929e+00    5.452541e+00    3.052228e+00    3.623132e+07    2.845010e-08    2.456182e-09    2.631990e-08   -2.749533e+00
    2.142994e+00    5.656434e+00    3.019858e+00    3.627277e+07    2.839532e-08    2.384698e-09    2.632034e-08   -2.744533e+00
    2.164303e+00    5.872450e+00    2.987514e+00    3.631036e+07    2.834116e-08    2.314517e-09    2.632015e-08   -2.739533e+00
    2.185856e+00    6.101451e+00    2.955199e+00    3.634395e+07    2.828762e-08    2.245662e-09    2.631935e-08   -2.734533e+00
    2.207646e+00    6.344361e+00    2.922919e+00    3.637332e+07    2.823471e-08    2.178157e-09    2.631793e-08   -2.729533e+00
    2.229671e+00    6.602160e+00    2.890673e+00    3.639829e+07    2.818247e-08    2.112017e-09    2.631589e-08   -2.724533e+00
    2.251922e+00    6.875899e+00    2.858467e+00    3.641860e+07    2.813089e-08    2.047259e-09    2.631322e-08   -2.719533e+00
    2.274398e+00    7.166709e+00    2.826303e+00    3.643415e+07    2.807999e-08    1.983895e-09    2.630993e-08   -2.714533e+00
    2.297090e+00    7.475785e+00    2.794187e+00    3.644467e+07    2.802978e-08    1.921937e-09    2.630601e-08   -2.709533e+00
    2.319995e+00    7.804402e+00    2.762120e+00    3.645005e+07    2.798026e-08    1.861392e-09    2.630148e-08   -2.704533e+00
    2.343104e+00    8.153919e+00    2.730107e+00    3.645005e+07    2.793144e-08    1.802266e-09    2.629632e-08   -2.699533e+00
    2.366412e+00    8.525769e+00    2.698152e+00    3.644454e+07    2.788332e-08    1.744559e-09    2.629054e-08   -2.694533e+00
    2.389912e+00    8.921484e+00    2.666259e+00    3.643334e+07    2.783591e-08    1.688274e-09    2.628415e-08   -2.689533e+00
    2.413600e+00    9.342667e+00    2.634432e+00    3.641634e+07    2.778921e-08    1.633408e-09    2.627715e-08   -2.684533e+00
    2.437468e+00    9.791036e+00    2.602676e+00    3.639339e+07    2.774321e-08    1.579956e-09    2.626954e-08   -2.679533e+00
    2.461509e+00    1.026835e+01    2.570995e+00    3.636433e+07    2.769791e-08    1.527910e-09    2.626132e-08   -2.674533e+00
    2.485721e+00    1.077653e+01    2.539392e+00    3.632914e+07    2.765331e-08    1.477264e-09    2.625251e-08   -2.669533e+00
    2.510095e+00    1.131753e+01    2.507874e+00    3.628765e+07    2.760940e-08    1.428005e-09    2.624309e-08   -2.664533e+00
    2.534629e+00    1.189340e+01    2.476444e+00    3.623985e+07    2.756618e-08    1.380121e-09    2.623309e-08   -2.659533e+00
    2.559318e+00    1.250632e+01    2.445107e+00    3.618566e+07    2.752363e-08    1.333597e-09    2.622250e-08   -2.654533e+00
    2.584159e+00    1.315850e+01    2.413867e+00    3.612504e+07    2.748174e-08    1.288417e-09    2.621133e-08   -2.649533e+00
    2.609148e+00    1.385229e+01    2.382730e+00    3.605799e+07    2.744051e-08    1.244563e-09    2.619958e-08   -2.644533e+00
    2.634286e+00    1.459010e+01    2.351700e+00    3.598451e+07    2.739992e-08    1.202015e-09    2.618726e-08   -2.639533e+00
    2.659572e+00    1.537441e+01    2.320781e+00    3.590465e+07    2.735996e-08    1.160755e-09    2.617437e-08   -2.634533e+00
    2.685006e+00    1.620779e+01    2.289979e+00    3.581841e+07    2.732061e-08    1.120759e-09    2.616092e-08   -2.629533e+00
    2.710589e+00    1.709289e+01    2.259297e+00    3.572589e+07    2.728186e-08    1.082006e-09    2.614692e-08   -2.624533e+00
    2.736322e+00    1.803240e+01    2.228740e+00    3.562713e+07    2.724369e-08    1.044470e-09    2.613236e-08   -2.619533e+00
    2.762212e+00    1.902909e+01    2.198313e+00    3.552226e+07    2.720608e-08    1.008128e-09    2.611725e-08   -2.614533e+00
    2.788260e+00    2.008578e+01    2.168019e+00    3.541135e+07    2.716902e-08    9.729555e-10    2.610160e-08   -2.609533e+00
    2.814473e+00    2.120536e+01    2.137864e+00    3.529456e+07    2.713248e-08    9.389255e-10    2.608541e-08   -2.604533e+00
    2.840858e+00    2.239074e+01    2.107851e+00    3.517201e+07    2.709645e-08    9.060125e-10    2.606868e-08   -2.599533e+00
    2.867421e+00    2.364487e+01    2.077984e+00    3.504382e+07    2.706091e-08    8.741900e-10    2.605142e-08   -2.594533e+00
    2.894170e+00    2.497075e+01    2.048268e+00    3.491016e+07    2.702583e-08    8.434305e-10    2.603363e-08   -2.589533e+00
    2.921115e+00    2.637138e+01    2.018705e+00    3.477119e+07    2.699120e-08    8.137075e-10    2.601530e-08   -2.584533e+00
    2.948268e+00    2.784983e+01    1.989300e+00    3.462708e+07    2.695700e-08    7.849930e-10    2.599646e-08   -2.579533e+00
    2.975637e+00    2.940913e+01    1.960056e+00    3.447800e+07    2.692319e-08    7.572610e-10    2.597710e-08   -2.574533e+00
    3.003231e+00    3.105233e+01    1.930977e+00    3.432408e+07    2.688977e-08    7.304835e-10    2.595721e-08   -2.569533e+00
    3.031068e+00    3.278254e+01    1.902065e+00    3.416557e+07    2.685670e-08    7.046330e-10    2.593680e-08   -2.564533e+00
    3.059157e+00    3.460280e+01    1.873325e+00    3.400258e+07    2.682398e-08    6.796840e-10    2.591587e-08   -2.559533e+00
    3.087513e+00    3.651621e+01    1.844758e+00    3.383533e+07    2.679156e-08    6.556085e-10    2.589442e-08   -2.554533e+00
    3.116148e+00    3.852581e+01    1.816369e+00    3.366397e+07    2.675944e-08    6.323810e-10    2.587246e-08   -2.549533e+00
    3.145076e+00    4.063462e+01    1.788158e+00    3.348865e+07    2.672758e-08    6.099745e-10    2.584997e-08   -2.544533e+00
    3.174313e+00    4.284573e+01    1.760131e+00    3.330956e+07    2.669598e-08    5.883645e-10    2.582696e-08   -2.539533e+00
    3.203871e+00    4.516212e+01    1.732288e+00    3.312686e+07    2.666459e-08    5.675245e-10    2.580342e-08   -2.534533e+00
    3.233770e+00    4.758683e+01    1.704631e+00    3.294072e+07    2.663340e-08    5.474310e-10    2.577936e-08   -2.529533e+00
    3.264021e+00    5.012283e+01    1.677165e+00    3.275126e+07    2.660239e-08    5.280585e-10    2.575477e-08   -2.524533e+00
    3.294640e+00    5.277305e+01    1.649889e+00    3.255863e+07    2.657154e-08    5.093835e-10    2.572965e-08   -2.519533e+00
    3.325648e+00    5.554051e+01    1.622807e+00    3.236302e+07    2.654082e-08    4.913824e-10    2.570400e-08   -2.514533e+00
    3.357056e+00    5.842808e+01    1.595921e+00    3.216452e+07    2.651020e-08    4.740329e-10    2.567780e-08   -2.509533e+00
    3.388885e+00    6.143875e+01    1.569232e+00    3.196328e+07    2.647968e-08    4.573124e-10    2.565105e-08   -2.504533e+00
    3.421149e+00    6.457535e+01    1.542742e+00    3.175943e+07    2.644921e-08    4.411992e-10    2.562376e-08   -2.499533e+00
    3.453866e+00    6.784075e+01    1.516453e+00    3.155308e+07    2.641879e-08    4.256721e-10    2.559591e-08   -2.494533e+00
    3.487053e+00    7.123783e+01    1.490366e+00    3.134432e+07    2.638838e-08    4.107105e-10    2.556749e-08   -2.489533e+00
    3.520729e+00    7.476952e+01    1.464484e+00    3.113331e+07    2.635797e-08    3.962944e-10    2.553850e-08   -2.484533e+00
    3.554913e+00    7.843863e+01    1.438806e+00    3.092012e+07    2.632753e-08    3.824043e-10    2.550894e-08   -2.479533e+00
    3.589618e+00    8.224791e+01    1.413336e+00    3.070483e+07    2.629705e-08    3.690213e-10    2.547879e-08   -2.474533e+00
    3.624871e+00    8.620030e+01    1.388073e+00    3.048758e+07    2.626649e-08    3.561271e-10    2.544804e-08   -2.469533e+00
    3.660684e+00    9.029863e+01    1.363020e+00    3.026843e+07    2.623583e-08    3.437040e-10    2.541669e-08   -2.464533e+00
    3.697079e+00    9.454571e+01    1.338178e+00    3.004744e+07    2.620507e-08    3.317347e-10    2.538473e-08   -2.459533e+00
    3.734078e+00    9.894449e+01    1.313547e+00    2.982473e+07    2.617415e-08    3.202026e-10    2.535214e-08   -2.454533e+00
    3.771698e+00    1.034977e+02    1.289130e+00    2.960034e+07    2.614309e-08    3.090916e-10    2.531891e-08   -2.449533e+00
    3.809961e+00    1.082084e+02    1.264925e+00    2.937435e+07    2.611183e-08    2.983861e-10    2.528504e-08   -2.444533e+00
    3.848888e+00    1.130794e+02    1.240936e+00    2.914681e+07    2.608038e-08    2.880711e-10    2.525050e-08   -2.439533e+00
    3.888501e+00    1.181136e+02    1.217164e+00    2.891780e+07    2.604870e-08    2.781320e-10    2.521530e-08   -2.434533e+00
    3.928821e+00    1.233140e+02    1.193608e+00    2.868737e+07    2.601676e-08    2.685548e-10    2.517941e-08   -2.429533e+00
    3.969872e+00    1.286836e+02    1.170269e+00    2.845555e+07    2.598456e-08    2.593260e-10    2.514281e-08   -2.424533e+00
    4.011675e+00    1.342256e+02    1.147150e+00    2.822241e+07    2.595206e-08    2.504325e-10    2.510551e-08   -2.419533e+00
    4.054255e+00    1.399428e+02    1.124249e+00    2.798799e+07    2.591924e-08    2.418616e-10    2.506748e-08   -2.414533e+00
    4.097638e+00    1.458386e+02    1.101570e+00    2.775233e+07    2.588608e-08    2.336013e-10    2.502870e-08   -2.409533e+00
    4.141845e+00    1.519160e+02    1.079112e+00    2.751545e+07    2.585257e-08    2.256398e-10    2.498917e-08   -2.404533e+00
    4.186905e+00    1.581784e+02    1.056875e+00    2.727741e+07    2.581867e-08    2.179660e-10    2.494885e-08   -2.399533e+00
    4.232844e+00    1.646289e+02    1.034861e+00    2.703822e+07    2.578436e-08    2.105687e-10    2.490775e-08   -2.394533e+00
    4.279686e+00    1.712711e+02    1.013071e+00    2.679792e+07    2.574962e-08    2.034379e-10    2.486582e-08   -2.389533e+00
    4.327462e+00    1.781084e+02    9.915050e-01    2.655653e+07    2.571443e-08    1.965632e-10    2.482308e-08   -2.384533e+00
    4.376197e+00    1.851443e+02    9.701645e-01    2.631408e+07    2.567877e-08    1.899350e-10    2.477947e-08   -2.379533e+00
    4.425926e+00    1.923823e+02    9.490490e-01    2.607058e+07    2.564260e-08    1.835440e-10    2.473501e-08   -2.374533e+00
    4.476672e+00    1.998262e+02    9.281605e-01    2.582605e+07    2.560593e-08    1.773813e-10    2.468965e-08   -2.369533e+00
    4.528474e+00    2.074796e+02    9.074985e-01    2.558052e+07    2.556870e-08    1.714382e-10    2.464339e-08   -2.364533e+00
    4.581358e+00    2.153466e+02    8.870645e-01    2.533398e+07    2.553090e-08    1.657064e-10    2.459619e-08   -2.359533e+00
    4.635355e+00    2.234309e+02    8.668595e-01    2.508645e+07    2.549251e-08    1.601778e-10    2.454804e-08   -2.354533e+00
    4.690506e+00    2.317367e+02    8.468830e-01    2.483794e+07    2.545351e-08    1.548451e-10    2.449891e-08   -2.349533e+00
    4.746840e+00    2.402679e+02    8.271365e-01    2.458845e+07    2.541387e-08    1.497007e-10    2.444880e-08   -2.344533e+00
    4.804394e+00    2.490289e+02    8.076205e-01    2.433798e+07    2.537356e-08    1.447374e-10    2.439765e-08   -2.339533e+00
    4.863205e+00    2.580240e+02    7.883355e-01    2.408655e+07    2.533257e-08    1.399486e-10    2.434546e-08   -2.334533e+00
    4.923314e+00    2.672574e+02    7.692820e-01    2.383415e+07    2.529086e-08    1.353277e-10    2.429221e-08   -2.329533e+00
    4.984751e+00    2.767337e+02    7.504615e-01    2.358076e+07    2.524842e-08    1.308683e-10    2.423785e-08   -2.324533e+00
    5.047562e+00    2.864574e+02    7.318740e-01    2.332640e+07    2.520521e-08    1.265645e-10    2.418238e-08   -2.319533e+00
    5.111789e+00    2.964332e+02    7.135200e-01    2.307106e+07    2.516122e-08    1.224105e-10    2.412576e-08   -2.314533e+00
    5.177470e+00    3.066658e+02    6.954005e-01    2.281472e+07    2.511641e-08    1.184006e-10    2.406796e-08   -2.309533e+00
    5.244650e+00    3.171601e+02    6.775160e-01    2.255738e+07    2.507077e-08    1.145294e-10    2.400897e-08   -2.304533e+00
    5.313375e+00    3.279208e+02    6.598670e-01    2.229903e+07    2.502426e-08    1.107920e-10    2.394874e-08   -2.299533e+00
    5.383682e+00    3.389529e+02    6.424550e-01    2.203964e+07    2.497685e-08    1.071832e-10    2.388727e-08   -2.294533e+00
    5.455628e+00    3.502613e+02    6.252795e-01    2.177922e+07    2.492854e-08    1.036983e-10    2.382450e-08   -2.289533e+00
    5.529252e+00    3.618510e+02    6.083420e-01    2.151773e+07    2.487929e-08    1.003328e-10    2.376042e-08   -2.284533e+00
    5.604605e+00    3.737271e+02    5.916430e-01    2.125517e+07    2.482906e-08    9.708225e-11    2.369500e-08   -2.279533e+00
    5.681736e+00    3.858947e+02    5.751830e-01    2.099152e+07    2.477784e-08    9.394245e-11    2.362820e-08   -2.274533e+00
    5.760693e+00    3.983589e+02    5.589630e-01    2.072675e+07    2.472560e-08    9.090935e-11    2.356000e-08   -2.269533e+00
    5.841529e+00    4.111242e+02    5.429835e-01    2.046085e+07    2.467230e-08    8.797910e-11    2.349036e-08   -2.264533e+00
    5.924303e+00    4.241962e+02    5.272445e-01    2.019379e+07    2.461794e-08    8.514785e-11    2.341926e-08   -2.259533e+00
    6.009053e+00    4.375793e+02    5.117480e-01    1.992555e+07    2.456247e-08    8.241205e-11    2.334665e-08   -2.254533e+00
    6.095843e+00    4.512786e+02    4.964937e-01    1.965611e+07    2.450587e-08    7.976825e-11    2.327252e-08   -2.249533e+00
    6.184723e+00    4.652983e+02    4.814827e-01    1.938544e+07    2.444811e-08    7.721315e-11    2.319682e-08   -2.244533e+00
    6.275747e+00    4.796436e+02    4.667156e-01    1.911353e+07    2.438917e-08    7.474345e-11    2.311953e-08   -2.239533e+00
    6.368971e+00    4.943178e+02    4.521930e-01    1.884034e+07    2.432902e-08    7.235620e-11    2.304062e-08   -2.234533e+00
    6.464450e+00    5.093259e+02    4.379157e-01    1.856585e+07    2.426763e-08    7.004840e-11    2.296004e-08   -2.229533e+00
    6.562237e+00    5.246710e+02    4.238844e-01    1.829005e+07    2.420498e-08    6.781725e-11    2.287777e-08   -2.224533e+00
    6.662387e+00    5.403561e+02    4.100997e-01    1.801290e+07    2.414103e-08    6.565990e-11    2.279377e-08   -2.219533e+00
    6.764956e+00    5.563850e+02    3.965622e-01    1.773440e+07    2.407576e-08    6.357385e-11    2.270802e-08   -2.214533e+00
    6.869995e+00    5.727595e+02    3.832726e-01    1.745451e+07    2.400914e-08    6.155655e-11    2.262047e-08   -2.209533e+00
    6.977557e+00    5.894819e+02    3.702316e-01    1.717323e+07    2.394116e-08    5.960555e-11    2.253111e-08   -2.204533e+00
    7.087695e+00    6.065533e+02    3.574397e-01    1.689053e+07    2.387177e-08    5.771850e-11    2.243988e-08   -2.199533e+00
    7.200456e+00    6.239744e+02    3.448975e-01    1.660641e+07    2.380095e-08    5.589320e-11    2.234676e-08   -2.194533e+00
    7.315888e+00    6.417451e+02    3.326057e-01    1.632086e+07    2.372869e-08    5.412750e-11    2.225172e-08   -2.189533e+00
    7.434036e+00    6.598642e+02    3.205647e-01    1.603387e+07    2.365495e-08    5.241925e-11    2.215474e-08   -2.184533e+00
    7.554944e+00    6.783299e+02    3.087749e-01    1.574545e+07    2.357971e-08    5.076650e-11    2.205576e-08   -2.179533e+00
    7.678649e+00    6.971391e+02    2.972371e-01    1.545559e+07    2.350294e-08    4.916733e-11    2.195477e-08   -2.174533e+00
    7.805187e+00    7.162875e+02    2.859513e-01    1.516432e+07    2.342463e-08    4.761989e-11    2.185173e-08   -2.169533e+00
    7.934589e+00    7.357698e+02    2.749181e-01    1.487164e+07    2.334474e-08    4.612239e-11    2.174661e-08   -2.164533e+00
    8.066876e+00    7.555788e+02    2.641378e-01    1.457759e+07    2.326325e-08    4.467311e-11    2.163937e-08   -2.159533e+00
    8.202074e+00    7.757063e+02    2.536105e-01    1.428219e+07    2.318015e-08    4.327041e-11    2.153002e-08   -2.154533e+00
    8.340191e+00    7.961425e+02    2.433365e-01    1.398550e+07    2.309540e-08    4.191270e-11    2.141849e-08   -2.149533e+00
    8.481237e+00    8.168750e+02    2.333158e-01    1.368755e+07    2.300900e-08    4.059846e-11    2.130478e-08   -2.144533e+00
    8.625206e+00    8.378905e+02    2.235484e-01    1.338841e+07    2.292092e-08    3.932620e-11    2.118884e-08   -2.139533e+00
    8.772087e+00    8.591731e+02    2.140343e-01    1.308816e+07    2.283115e-08    3.809450e-11    2.107067e-08   -2.134533e+00
    8.921863e+00    8.807048e+02    2.047731e-01    1.278688e+07    2.273965e-08    3.690201e-11    2.095023e-08   -2.129533e+00
    9.074495e+00    9.024655e+02    1.957646e-01    1.248467e+07    2.264643e-08    3.574741e-11    2.082751e-08   -2.124533e+00
    9.229948e+00    9.244328e+02    1.870083e-01    1.218163e+07    2.255147e-08    3.462942e-11    2.070247e-08   -2.119533e+00
    9.388166e+00    9.465819e+02    1.785036e-01    1.187790e+07    2.245474e-08    3.354684e-11    2.057512e-08   -2.114533e+00
    9.549077e+00    9.688847e+02    1.702498e-01    1.157362e+07    2.235625e-08    3.249848e-11    2.044541e-08   -2.109533e+00
    9.712597e+00    9.913109e+02    1.622460e-01    1.126893e+07    2.225597e-08    3.148320e-11    2.031335e-08   -2.104533e+00
    9.878631e+00    1.013828e+03    1.544911e-01    1.096402e+07    2.215391e-08    3.049991e-11    2.017893e-08   -2.099533e+00
    1.004707e+01    1.036400e+03    1.469839e-01    1.065908e+07    2.205005e-08    2.954756e-11    2.004210e-08   -2.094533e+00
    1.021777e+01    1.058989e+03    1.397230e-01    1.035430e+07    2.194438e-08    2.862513e-11    1.990289e-08   -2.089533e+00
    1.039059e+01    1.081554e+03    1.327067e-01    1.004991e+07    2.183692e-08    2.773165e-11    1.976128e-08   -2.084533e+00
    1.056537e+01    1.104050e+03    1.259333e-01    9.746155e+06    2.172764e-08    2.686616e-11    1.961725e-08   -2.079533e+00
    1.074193e+01    1.126432e+03    1.194007e-01    9.443278e+06    2.161655e-08    2.602776e-11    1.947082e-08   -2.074533e+00
    1.092005e+01    1.148652e+03    1.131066e-01    9.141558e+06    2.150366e-08    2.521557e-11    1.932197e-08   -2.069533e+00
    1.109952e+01    1.170657e+03    1.070486e-01    8.841282e+06    2.138897e-08    2.442873e-11    1.917072e-08   -2.064533e+00
    1.128010e+01    1.192396e+03    1.012238e-01    8.542745e+06    2.127249e-08    2.366644e-11    1.901706e-08   -2.059533e+00
    1.146153e+01    1.213813e+03    9.562935e-02    8.246260e+06    2.115422e-08    2.292789e-11    1.886102e-08   -2.054533e+00
    1.164354e+01    1.234855e+03    9.026210e-02    7.952157e+06    2.103418e-08    2.221234e-11    1.870259e-08   -2.049533e+00
    1.182584e+01    1.255463e+03    8.511845e-02    7.660770e+06    2.091238e-08    2.151903e-11    1.854178e-08   -2.044533e+00
    1.200811e+01    1.275581e+03    8.019485e-02    7.372437e+06    2.078884e-08    2.084726e-11    1.837863e-08   -2.039533e+00
    1.219004e+01    1.295153e+03    7.548725e-02    7.087506e+06    2.066357e-08    2.019636e-11    1.821315e-08   -2.034533e+00
    1.237131e+01    1.314121e+03    7.099150e-02    6.806335e+06    2.053661e-08    1.956564e-11    1.804536e-08   -2.029533e+00
    1.255156e+01    1.332432e+03    6.670315e-02    6.529267e+06    2.040796e-08    1.895448e-11    1.787529e-08   -2.024533e+00
