# sky130 pfet_01v8 gm/ID Processed Lookup Table
# Corner: sf
# Temperature: 75C
# W = 2.0 um
# L = 5.22 um (5220 nm)
# Columns: gm/id [1/V]  gm/gds [V/V]  id/W [A/m]  ft [Hz]  Cgg/W [F/m]  Cgd/W [F/m]  Cgs/W [F/m]  Vov [V]
#         gm/id          gm/gds            id/W              ft           Cgg/W           Cgd/W           Cgs/W             Vov
    2.003584e+00    4.471712e+00    3.130406e+00    3.348860e+07    2.980790e-08    3.028692e-09    2.723503e-08   -2.779654e+00
    2.023137e+00    4.619509e+00    3.099052e+00    3.354454e+07    2.974762e-08    2.946932e-09    2.723922e-08   -2.774654e+00
    2.042948e+00    4.775496e+00    3.067709e+00    3.359797e+07    2.968784e-08    2.866318e-09    2.724281e-08   -2.769654e+00
    2.063015e+00    4.940241e+00    3.036380e+00    3.364869e+07    2.962857e-08    2.786889e-09    2.724578e-08   -2.764654e+00
    2.083339e+00    5.114364e+00    3.005069e+00    3.369655e+07    2.956983e-08    2.708683e-09    2.724815e-08   -2.759654e+00
    2.103915e+00    5.298521e+00    2.973775e+00    3.374137e+07    2.951167e-08    2.631735e-09    2.724988e-08   -2.754654e+00
    2.124742e+00    5.493424e+00    2.942504e+00    3.378297e+07    2.945408e-08    2.556078e-09    2.725099e-08   -2.749654e+00
    2.145816e+00    5.699836e+00    2.911256e+00    3.382116e+07    2.939710e-08    2.481741e-09    2.725146e-08   -2.744654e+00
    2.167135e+00    5.918573e+00    2.880035e+00    3.385577e+07    2.934075e-08    2.408753e-09    2.725130e-08   -2.739654e+00
    2.188696e+00    6.150514e+00    2.848843e+00    3.388661e+07    2.928505e-08    2.337138e-09    2.725048e-08   -2.734654e+00
    2.210494e+00    6.396601e+00    2.817683e+00    3.391350e+07    2.923000e-08    2.266919e-09    2.724904e-08   -2.729654e+00
    2.232524e+00    6.657845e+00    2.786558e+00    3.393627e+07    2.917564e-08    2.198115e-09    2.724694e-08   -2.724654e+00
    2.254781e+00    6.935317e+00    2.755474e+00    3.395471e+07    2.912197e-08    2.130742e-09    2.724420e-08   -2.719654e+00
    2.277260e+00    7.230163e+00    2.724430e+00    3.396865e+07    2.906900e-08    2.064816e-09    2.724080e-08   -2.714654e+00
    2.299956e+00    7.543619e+00    2.693432e+00    3.397793e+07    2.901674e-08    2.000347e-09    2.723678e-08   -2.709654e+00
    2.322861e+00    7.876991e+00    2.662484e+00    3.398238e+07    2.896521e-08    1.937343e-09    2.723209e-08   -2.704654e+00
    2.345970e+00    8.231659e+00    2.631588e+00    3.398179e+07    2.891440e-08    1.875810e-09    2.722677e-08   -2.699654e+00
    2.369278e+00    8.609113e+00    2.600749e+00    3.397607e+07    2.886432e-08    1.815752e-09    2.722081e-08   -2.694654e+00
    2.392775e+00    9.010903e+00    2.569970e+00    3.396502e+07    2.881497e-08    1.757169e-09    2.721421e-08   -2.689654e+00
    2.416460e+00    9.438694e+00    2.539256e+00    3.394856e+07    2.876636e-08    1.700059e-09    2.720698e-08   -2.684654e+00
    2.440320e+00    9.894226e+00    2.508611e+00    3.392649e+07    2.871848e-08    1.644418e-09    2.719911e-08   -2.679654e+00
    2.464355e+00    1.037934e+01    2.478039e+00    3.389877e+07    2.867133e-08    1.590239e-09    2.719062e-08   -2.674654e+00
    2.488559e+00    1.089599e+01    2.447545e+00    3.386529e+07    2.862490e-08    1.537512e-09    2.718150e-08   -2.669654e+00
    2.512924e+00    1.144619e+01    2.417133e+00    3.382595e+07    2.857919e-08    1.486229e-09    2.717177e-08   -2.664654e+00
    2.537448e+00    1.203208e+01    2.386805e+00    3.378070e+07    2.853420e-08    1.436374e-09    2.716142e-08   -2.659654e+00
    2.562124e+00    1.265587e+01    2.356570e+00    3.372948e+07    2.848990e-08    1.387934e-09    2.715046e-08   -2.654654e+00
    2.586954e+00    1.331989e+01    2.326429e+00    3.367230e+07    2.844631e-08    1.340891e-09    2.713890e-08   -2.649654e+00
    2.611931e+00    1.402652e+01    2.296388e+00    3.360910e+07    2.840339e-08    1.295227e-09    2.712675e-08   -2.644654e+00
    2.637055e+00    1.477829e+01    2.266450e+00    3.353992e+07    2.836114e-08    1.250923e-09    2.711400e-08   -2.639654e+00
    2.662326e+00    1.557776e+01    2.236622e+00    3.346475e+07    2.831954e-08    1.207957e-09    2.710066e-08   -2.634654e+00
    2.687743e+00    1.642760e+01    2.206905e+00    3.338367e+07    2.827858e-08    1.166307e-09    2.708673e-08   -2.629654e+00
    2.713308e+00    1.733055e+01    2.177307e+00    3.329670e+07    2.823824e-08    1.125950e-09    2.707223e-08   -2.624654e+00
    2.739025e+00    1.828943e+01    2.147830e+00    3.320395e+07    2.819852e-08    1.086861e-09    2.705716e-08   -2.619654e+00
    2.764896e+00    1.930712e+01    2.118479e+00    3.310551e+07    2.815937e-08    1.049015e-09    2.704151e-08   -2.614654e+00
    2.790929e+00    2.038659e+01    2.089257e+00    3.300147e+07    2.812080e-08    1.012386e-09    2.702531e-08   -2.609654e+00
    2.817124e+00    2.153081e+01    2.060170e+00    3.289192e+07    2.808277e-08    9.769465e-10    2.700854e-08   -2.604654e+00
    2.843489e+00    2.274285e+01    2.031222e+00    3.277700e+07    2.804528e-08    9.426705e-10    2.699121e-08   -2.599654e+00
    2.870033e+00    2.402582e+01    2.002415e+00    3.265685e+07    2.800829e-08    9.095295e-10    2.697333e-08   -2.594654e+00
    2.896766e+00    2.538288e+01    1.973753e+00    3.253165e+07    2.797179e-08    8.774965e-10    2.695490e-08   -2.589654e+00
    2.923695e+00    2.681719e+01    1.945241e+00    3.240150e+07    2.793576e-08    8.465425e-10    2.693593e-08   -2.584654e+00
    2.950827e+00    2.833192e+01    1.916881e+00    3.226653e+07    2.790017e-08    8.166395e-10    2.691641e-08   -2.579654e+00
    2.978179e+00    2.993037e+01    1.888678e+00    3.212697e+07    2.786500e-08    7.877595e-10    2.689635e-08   -2.574654e+00
    3.005758e+00    3.161574e+01    1.860634e+00    3.198294e+07    2.783022e-08    7.598740e-10    2.687575e-08   -2.569654e+00
    3.033579e+00    3.339132e+01    1.832753e+00    3.183462e+07    2.779583e-08    7.329545e-10    2.685460e-08   -2.564654e+00
    3.061652e+00    3.526035e+01    1.805037e+00    3.168216e+07    2.776178e-08    7.069740e-10    2.683292e-08   -2.559654e+00
    3.089990e+00    3.722608e+01    1.777489e+00    3.152570e+07    2.772807e-08    6.819040e-10    2.681069e-08   -2.554654e+00
    3.118612e+00    3.929187e+01    1.750114e+00    3.136547e+07    2.769466e-08    6.577170e-10    2.678793e-08   -2.549654e+00
    3.147525e+00    4.146087e+01    1.722911e+00    3.120154e+07    2.766153e-08    6.343860e-10    2.676463e-08   -2.544654e+00
    3.176748e+00    4.373642e+01    1.695885e+00    3.103413e+07    2.762866e-08    6.118845e-10    2.674078e-08   -2.539654e+00
    3.206293e+00    4.612172e+01    1.669038e+00    3.086336e+07    2.759601e-08    5.901860e-10    2.671640e-08   -2.534654e+00
    3.236180e+00    4.862005e+01    1.642372e+00    3.068940e+07    2.756359e-08    5.692645e-10    2.669146e-08   -2.529654e+00
    3.266420e+00    5.123462e+01    1.615889e+00    3.051238e+07    2.753135e-08    5.490950e-10    2.666599e-08   -2.524654e+00
    3.297032e+00    5.396864e+01    1.589591e+00    3.033244e+07    2.749927e-08    5.296520e-10    2.663995e-08   -2.519654e+00
    3.328028e+00    5.682527e+01    1.563480e+00    3.014970e+07    2.746733e-08    5.109115e-10    2.661336e-08   -2.514654e+00
    3.359428e+00    5.980772e+01    1.537558e+00    2.996429e+07    2.743550e-08    4.928502e-10    2.658621e-08   -2.509654e+00
    3.391247e+00    6.291916e+01    1.511828e+00    2.977634e+07    2.740378e-08    4.754441e-10    2.655850e-08   -2.504654e+00
    3.423503e+00    6.616274e+01    1.486289e+00    2.958597e+07    2.737211e-08    4.586708e-10    2.653020e-08   -2.499654e+00
    3.456213e+00    6.954159e+01    1.460945e+00    2.939328e+07    2.734049e-08    4.425083e-10    2.650134e-08   -2.494654e+00
    3.489395e+00    7.305888e+01    1.435796e+00    2.919840e+07    2.730889e-08    4.269351e-10    2.647189e-08   -2.489654e+00
    3.523067e+00    7.671767e+01    1.410845e+00    2.900140e+07    2.727729e-08    4.119302e-10    2.644185e-08   -2.484654e+00
    3.557245e+00    8.052107e+01    1.386092e+00    2.880239e+07    2.724566e-08    3.974735e-10    2.641120e-08   -2.479654e+00
    3.591949e+00    8.447227e+01    1.361538e+00    2.860145e+07    2.721399e-08    3.835453e-10    2.637996e-08   -2.474654e+00
    3.627199e+00    8.857429e+01    1.337186e+00    2.839868e+07    2.718224e-08    3.701263e-10    2.634809e-08   -2.469654e+00
    3.663011e+00    9.283036e+01    1.313037e+00    2.819416e+07    2.715039e-08    3.571981e-10    2.631560e-08   -2.464654e+00
    3.699406e+00    9.724345e+01    1.289090e+00    2.798794e+07    2.711842e-08    3.447428e-10    2.628247e-08   -2.459654e+00
    3.736405e+00    1.018168e+02    1.265348e+00    2.778012e+07    2.708631e-08    3.327430e-10    2.624869e-08   -2.454654e+00
    3.774027e+00    1.065535e+02    1.241812e+00    2.757075e+07    2.705404e-08    3.211818e-10    2.621425e-08   -2.449654e+00
    3.812291e+00    1.114567e+02    1.218482e+00    2.735990e+07    2.702159e-08    3.100433e-10    2.617914e-08   -2.444654e+00
    3.851221e+00    1.165295e+02    1.195360e+00    2.714763e+07    2.698892e-08    2.993114e-10    2.614334e-08   -2.439654e+00
    3.890837e+00    1.217753e+02    1.172446e+00    2.693399e+07    2.695601e-08    2.889711e-10    2.610685e-08   -2.434654e+00
    3.931161e+00    1.271973e+02    1.149743e+00    2.671903e+07    2.692284e-08    2.790079e-10    2.606965e-08   -2.429654e+00
    3.972217e+00    1.327986e+02    1.127249e+00    2.650280e+07    2.688940e-08    2.694076e-10    2.603172e-08   -2.424654e+00
    4.014027e+00    1.385826e+02    1.104966e+00    2.628534e+07    2.685565e-08    2.601564e-10    2.599305e-08   -2.419654e+00
    4.056615e+00    1.445528e+02    1.082895e+00    2.606670e+07    2.682158e-08    2.512414e-10    2.595363e-08   -2.414654e+00
    4.100005e+00    1.507123e+02    1.061037e+00    2.584691e+07    2.678715e-08    2.426498e-10    2.591343e-08   -2.409654e+00
    4.144221e+00    1.570648e+02    1.039393e+00    2.562600e+07    2.675235e-08    2.343695e-10    2.587245e-08   -2.404654e+00
    4.189292e+00    1.636138e+02    1.017963e+00    2.540402e+07    2.671715e-08    2.263887e-10    2.583066e-08   -2.399654e+00
    4.235240e+00    1.703626e+02    9.967475e-01    2.518097e+07    2.668154e-08    2.186960e-10    2.578805e-08   -2.394654e+00
    4.282093e+00    1.773152e+02    9.757485e-01    2.495690e+07    2.664547e-08    2.112806e-10    2.574459e-08   -2.389654e+00
    4.329881e+00    1.844750e+02    9.549655e-01    2.473183e+07    2.660894e-08    2.041319e-10    2.570028e-08   -2.384654e+00
    4.378632e+00    1.918460e+02    9.343995e-01    2.450577e+07    2.657192e-08    1.972400e-10    2.565509e-08   -2.379654e+00
    4.428375e+00    1.994319e+02    9.140515e-01    2.427874e+07    2.653439e-08    1.905951e-10    2.560899e-08   -2.374654e+00
    4.479139e+00    2.072367e+02    8.939220e-01    2.405077e+07    2.649631e-08    1.841877e-10    2.556197e-08   -2.369654e+00
    4.530953e+00    2.152643e+02    8.740120e-01    2.382185e+07    2.645767e-08    1.780090e-10    2.551401e-08   -2.364654e+00
    4.583853e+00    2.235189e+02    8.543215e-01    2.359201e+07    2.641844e-08    1.720503e-10    2.546509e-08   -2.359654e+00
    4.637871e+00    2.320046e+02    8.348515e-01    2.336127e+07    2.637860e-08    1.663033e-10    2.541518e-08   -2.354654e+00
    4.693040e+00    2.407258e+02    8.156025e-01    2.312961e+07    2.633812e-08    1.607600e-10    2.536425e-08   -2.349654e+00
    4.749395e+00    2.496866e+02    7.965750e-01    2.289704e+07    2.629698e-08    1.554127e-10    2.531230e-08   -2.344654e+00
    4.806972e+00    2.588918e+02    7.777700e-01    2.266358e+07    2.625515e-08    1.502540e-10    2.525927e-08   -2.339654e+00
    4.865806e+00    2.683456e+02    7.591880e-01    2.242922e+07    2.621260e-08    1.452768e-10    2.520518e-08   -2.334654e+00
    4.925936e+00    2.780527e+02    7.408295e-01    2.219396e+07    2.616932e-08    1.404744e-10    2.514997e-08   -2.329654e+00
    4.987399e+00    2.880177e+02    7.226955e-01    2.195779e+07    2.612528e-08    1.358401e-10    2.509363e-08   -2.324654e+00
    5.050238e+00    2.982457e+02    7.047860e-01    2.172073e+07    2.608044e-08    1.313677e-10    2.503612e-08   -2.319654e+00
    5.114492e+00    3.087411e+02    6.871020e-01    2.148274e+07    2.603479e-08    1.270511e-10    2.497743e-08   -2.314654e+00
    5.180200e+00    3.195092e+02    6.696445e-01    2.124384e+07    2.598830e-08    1.228845e-10    2.491752e-08   -2.309654e+00
    5.247409e+00    3.305548e+02    6.524135e-01    2.100402e+07    2.594093e-08    1.188623e-10    2.485637e-08   -2.304654e+00
    5.316160e+00    3.418831e+02    6.354100e-01    2.076325e+07    2.589268e-08    1.149791e-10    2.479393e-08   -2.299654e+00
    5.386501e+00    3.534991e+02    6.186345e-01    2.052153e+07    2.584350e-08    1.112299e-10    2.473020e-08   -2.294654e+00
    5.458478e+00    3.654078e+02    6.020875e-01    2.027885e+07    2.579337e-08    1.076095e-10    2.466514e-08   -2.289654e+00
    5.532139e+00    3.776146e+02    5.857695e-01    2.003518e+07    2.574226e-08    1.041133e-10    2.459872e-08   -2.284654e+00
    5.607526e+00    3.901247e+02    5.696820e-01    1.979052e+07    2.569016e-08    1.007367e-10    2.453090e-08   -2.279654e+00
    5.684692e+00    4.029430e+02    5.538250e-01    1.954484e+07    2.563702e-08    9.747530e-11    2.446166e-08   -2.274654e+00
    5.763690e+00    4.160750e+02    5.381990e-01    1.929813e+07    2.558282e-08    9.432485e-11    2.439095e-08   -2.269654e+00
    5.844567e+00    4.295255e+02    5.228050e-01    1.905037e+07    2.552754e-08    9.128130e-11    2.431877e-08   -2.264654e+00
    5.927377e+00    4.432997e+02    5.076435e-01    1.880153e+07    2.547114e-08    8.834080e-11    2.424506e-08   -2.259654e+00
    6.012171e+00    4.574023e+02    4.927153e-01    1.855160e+07    2.541359e-08    8.549955e-11    2.416981e-08   -2.254654e+00
    6.099003e+00    4.718386e+02    4.780208e-01    1.830055e+07    2.535488e-08    8.275395e-11    2.409296e-08   -2.249654e+00
    6.187927e+00    4.866130e+02    4.635610e-01    1.804837e+07    2.529497e-08    8.010055e-11    2.401449e-08   -2.244654e+00
    6.278997e+00    5.017296e+02    4.493362e-01    1.779503e+07    2.523383e-08    7.753600e-11    2.393438e-08   -2.239654e+00
    6.372269e+00    5.171929e+02    4.353474e-01    1.754051e+07    2.517144e-08    7.505715e-11    2.385258e-08   -2.234654e+00
    6.467795e+00    5.330071e+02    4.215950e-01    1.728478e+07    2.510776e-08    7.266090e-11    2.376906e-08   -2.229654e+00
    6.565630e+00    5.491753e+02    4.080797e-01    1.702783e+07    2.504277e-08    7.034430e-11    2.368378e-08   -2.224654e+00
    6.665832e+00    5.657010e+02    3.948022e-01    1.676963e+07    2.497644e-08    6.810450e-11    2.359672e-08   -2.219654e+00
    6.768452e+00    5.825868e+02    3.817630e-01    1.651017e+07    2.490874e-08    6.593880e-11    2.350784e-08   -2.214654e+00
    6.873545e+00    5.998350e+02    3.689629e-01    1.624943e+07    2.483966e-08    6.384450e-11    2.341710e-08   -2.209654e+00
    6.981161e+00    6.174469e+02    3.564024e-01    1.598739e+07    2.476914e-08    6.181915e-11    2.332447e-08   -2.204654e+00
    7.091353e+00    6.354239e+02    3.440821e-01    1.572403e+07    2.469718e-08    5.986030e-11    2.322991e-08   -2.199654e+00
    7.204170e+00    6.537659e+02    3.320025e-01    1.545936e+07    2.462374e-08    5.796555e-11    2.313339e-08   -2.194654e+00
    7.319659e+00    6.724723e+02    3.201642e-01    1.519335e+07    2.454880e-08    5.613275e-11    2.303490e-08   -2.189654e+00
    7.437866e+00    6.915415e+02    3.085678e-01    1.492601e+07    2.447233e-08    5.435970e-11    2.293436e-08   -2.184654e+00
    7.558831e+00    7.109709e+02    2.972136e-01    1.465733e+07    2.439430e-08    5.264435e-11    2.283178e-08   -2.179654e+00
    7.682597e+00    7.307567e+02    2.861020e-01    1.438734e+07    2.431469e-08    5.098460e-11    2.272711e-08   -2.174654e+00
    7.809196e+00    7.508940e+02    2.752336e-01    1.411602e+07    2.423348e-08    4.937865e-11    2.262032e-08   -2.169654e+00
    7.938655e+00    7.713760e+02    2.646086e-01    1.384339e+07    2.415064e-08    4.782457e-11    2.251137e-08   -2.164654e+00
    8.071008e+00    7.921953e+02    2.542273e-01    1.356949e+07    2.406614e-08    4.632059e-11    2.240025e-08   -2.159654e+00
    8.206266e+00    8.133417e+02    2.440899e-01    1.329435e+07    2.397996e-08    4.486501e-11    2.228691e-08   -2.154654e+00
    8.344443e+00    8.348043e+02    2.341967e-01    1.301799e+07    2.389210e-08    4.345616e-11    2.217132e-08   -2.149654e+00
    8.485550e+00    8.565702e+02    2.245476e-01    1.274048e+07    2.380251e-08    4.209246e-11    2.205348e-08   -2.144654e+00
    8.629581e+00    8.786236e+02    2.151425e-01    1.246186e+07    2.371118e-08    4.077237e-11    2.193333e-08   -2.139654e+00
    8.776522e+00    9.009472e+02    2.059816e-01    1.218221e+07    2.361810e-08    3.949442e-11    2.181086e-08   -2.134654e+00
    8.926356e+00    9.235218e+02    1.970645e-01    1.190160e+07    2.352325e-08    3.825719e-11    2.168606e-08   -2.129654e+00
    9.079050e+00    9.463250e+02    1.883908e-01    1.162013e+07    2.342659e-08    3.705931e-11    2.155888e-08   -2.124654e+00
    9.234561e+00    9.693324e+02    1.799602e-01    1.133790e+07    2.332814e-08    3.589947e-11    2.142931e-08   -2.119654e+00
    9.392835e+00    9.925169e+02    1.717721e-01    1.105503e+07    2.322787e-08    3.477638e-11    2.129734e-08   -2.114654e+00
    9.553803e+00    1.015849e+03    1.638257e-01    1.077165e+07    2.312575e-08    3.368884e-11    2.116294e-08   -2.109654e+00
    9.717378e+00    1.039295e+03    1.561202e-01    1.048791e+07    2.302180e-08    3.263565e-11    2.102609e-08   -2.104654e+00
    9.883465e+00    1.062820e+03    1.486545e-01    1.020396e+07    2.291600e-08    3.161568e-11    2.088680e-08   -2.099654e+00
    1.005195e+01    1.086386e+03    1.414275e-01    9.919977e+06    2.280833e-08    3.062783e-11    2.074502e-08   -2.094654e+00
    1.022270e+01    1.109952e+03    1.344378e-01    9.636161e+06    2.269881e-08    2.967106e-11    2.060078e-08   -2.089654e+00
    1.039557e+01    1.133474e+03    1.276838e-01    9.352717e+06    2.258740e-08    2.874434e-11    2.045404e-08   -2.084654e+00
    1.057039e+01    1.156905e+03    1.211637e-01    9.069867e+06    2.247413e-08    2.784668e-11    2.030482e-08   -2.079654e+00
    1.074699e+01    1.180195e+03    1.148756e-01    8.787846e+06    2.235899e-08    2.697714e-11    2.015309e-08   -2.074654e+00
    1.092514e+01    1.203295e+03    1.088173e-01    8.506908e+06    2.224198e-08    2.613480e-11    1.999888e-08   -2.069654e+00
    1.110465e+01    1.226149e+03    1.029864e-01    8.227321e+06    2.212311e-08    2.531880e-11    1.984217e-08   -2.064654e+00
    1.128526e+01    1.248702e+03    9.738010e-02    7.949362e+06    2.200238e-08    2.452827e-11    1.968298e-08   -2.059654e+00
    1.146671e+01    1.270896e+03    9.199575e-02    7.673324e+06    2.187980e-08    2.376239e-11    1.952131e-08   -2.054654e+00
    1.164875e+01    1.292673e+03    8.683015e-02    7.399513e+06    2.175539e-08    2.302037e-11    1.935718e-08   -2.049654e+00
    1.183107e+01    1.313975e+03    8.187995e-02    7.128238e+06    2.162916e-08    2.230144e-11    1.919058e-08   -2.044654e+00
    1.201336e+01    1.334741e+03    7.714165e-02    6.859815e+06    2.150113e-08    2.160488e-11    1.902157e-08   -2.039654e+00
    1.219531e+01    1.354910e+03    7.261135e-02    6.594568e+06    2.137131e-08    2.092995e-11    1.885014e-08   -2.034654e+00
    1.237659e+01    1.374427e+03    6.828505e-02    6.332826e+06    2.123974e-08    2.027598e-11    1.867631e-08   -2.029654e+00
    1.255686e+01    1.393234e+03    6.415850e-02    6.074918e+06    2.110643e-08    1.964231e-11    1.850014e-08   -2.024654e+00
