# sky130 pfet_01v8 gm/ID Processed Lookup Table
# Corner: sf
# Temperature: 75C
# W = 2.0 um
# L = 0.72 um (720 nm)
# Columns: gm/id [1/V]  gm/gds [V/V]  id/W [A/m]  ft [Hz]  Cgg/W [F/m]  Cgd/W [F/m]  Cgs/W [F/m]  Vov [V]
#         gm/id          gm/gds            id/W              ft           Cgg/W           Cgd/W           Cgs/W             Vov
    1.775889e+00    2.889120e+00    2.256650e+01    1.464249e+09    4.355974e-09    2.913314e-10    4.064468e-09   -2.740059e+00
    1.793072e+00    2.957640e+00    2.236605e+01    1.467263e+09    4.350100e-09    2.831414e-10    4.064928e-09   -2.735059e+00
    1.810501e+00    3.028965e+00    2.216546e+01    1.470197e+09    4.344302e-09    2.751185e-10    4.065307e-09   -2.730059e+00
    1.828178e+00    3.103246e+00    2.196475e+01    1.473049e+09    4.338578e-09    2.672633e-10    4.065602e-09   -2.725059e+00
    1.846107e+00    3.180643e+00    2.176391e+01    1.475816e+09    4.332931e-09    2.595759e-10    4.065815e-09   -2.720059e+00
    1.864289e+00    3.261326e+00    2.156297e+01    1.478492e+09    4.327359e-09    2.520565e-10    4.065945e-09   -2.715059e+00
    1.882728e+00    3.345473e+00    2.136192e+01    1.481075e+09    4.321864e-09    2.447048e-10    4.065994e-09   -2.710059e+00
    1.901426e+00    3.433278e+00    2.116078e+01    1.483560e+09    4.316444e-09    2.375205e-10    4.065960e-09   -2.705059e+00
    1.920384e+00    3.524940e+00    2.095957e+01    1.485943e+09    4.311101e-09    2.305028e-10    4.065846e-09   -2.700059e+00
    1.939604e+00    3.620671e+00    2.075828e+01    1.488221e+09    4.305833e-09    2.236511e-10    4.065651e-09   -2.695059e+00
    1.959087e+00    3.720697e+00    2.055694e+01    1.490388e+09    4.300640e-09    2.169642e-10    4.065376e-09   -2.690059e+00
    1.978836e+00    3.825253e+00    2.035555e+01    1.492440e+09    4.295522e-09    2.104410e-10    4.065021e-09   -2.685059e+00
    1.998849e+00    3.934588e+00    2.015414e+01    1.494372e+09    4.290479e-09    2.040801e-10    4.064589e-09   -2.680059e+00
    2.019128e+00    4.048963e+00    1.995271e+01    1.496179e+09    4.285508e-09    1.978800e-10    4.064078e-09   -2.675059e+00
    2.039673e+00    4.168653e+00    1.975127e+01    1.497857e+09    4.280610e-09    1.918390e-10    4.063490e-09   -2.670059e+00
    2.060484e+00    4.293945e+00    1.954986e+01    1.499399e+09    4.275782e-09    1.859552e-10    4.062826e-09   -2.665059e+00
    2.081560e+00    4.425142e+00    1.934846e+01    1.500802e+09    4.271026e-09    1.802267e-10    4.062085e-09   -2.660059e+00
    2.102900e+00    4.562555e+00    1.914711e+01    1.502058e+09    4.266339e-09    1.746514e-10    4.061270e-09   -2.655059e+00
    2.124503e+00    4.706515e+00    1.894582e+01    1.503163e+09    4.261719e-09    1.692270e-10    4.060381e-09   -2.650059e+00
    2.146367e+00    4.857360e+00    1.874461e+01    1.504111e+09    4.257166e-09    1.639513e-10    4.059418e-09   -2.645059e+00
    2.168488e+00    5.015443e+00    1.854350e+01    1.504896e+09    4.252678e-09    1.588218e-10    4.058383e-09   -2.640059e+00
    2.190867e+00    5.181123e+00    1.834250e+01    1.505512e+09    4.248254e-09    1.538362e-10    4.057275e-09   -2.635059e+00
    2.213498e+00    5.354778e+00    1.814165e+01    1.505954e+09    4.243891e-09    1.489916e-10    4.056097e-09   -2.630059e+00
    2.236379e+00    5.536793e+00    1.794094e+01    1.506215e+09    4.239590e-09    1.442857e-10    4.054849e-09   -2.625059e+00
    2.259506e+00    5.727554e+00    1.774042e+01    1.506291e+09    4.235346e-09    1.397155e-10    4.053531e-09   -2.620059e+00
    2.282876e+00    5.927461e+00    1.754011e+01    1.506175e+09    4.231160e-09    1.352785e-10    4.052144e-09   -2.615059e+00
    2.306484e+00    6.136913e+00    1.734002e+01    1.505861e+09    4.227029e-09    1.309719e-10    4.050689e-09   -2.610059e+00
    2.330327e+00    6.356316e+00    1.714017e+01    1.505345e+09    4.222951e-09    1.267928e-10    4.049168e-09   -2.605059e+00
    2.354399e+00    6.586079e+00    1.694060e+01    1.504622e+09    4.218925e-09    1.227383e-10    4.047578e-09   -2.600059e+00
    2.378697e+00    6.826598e+00    1.674133e+01    1.503686e+09    4.214947e-09    1.188058e-10    4.045924e-09   -2.595059e+00
    2.403216e+00    7.078276e+00    1.654238e+01    1.502533e+09    4.211018e-09    1.149923e-10    4.044204e-09   -2.590059e+00
    2.427952e+00    7.341499e+00    1.634379e+01    1.501159e+09    4.207134e-09    1.112949e-10    4.042420e-09   -2.585059e+00
    2.452901e+00    7.616645e+00    1.614558e+01    1.499560e+09    4.203294e-09    1.077109e-10    4.040570e-09   -2.580059e+00
    2.478060e+00    7.904071e+00    1.594777e+01    1.497734e+09    4.199496e-09    1.042372e-10    4.038657e-09   -2.575059e+00
    2.503425e+00    8.204133e+00    1.575039e+01    1.495677e+09    4.195736e-09    1.008713e-10    4.036681e-09   -2.570059e+00
    2.528994e+00    8.517155e+00    1.555348e+01    1.493388e+09    4.192015e-09    9.761005e-11    4.034642e-09   -2.565059e+00
    2.554764e+00    8.843440e+00    1.535705e+01    1.490864e+09    4.188329e-09    9.445090e-11    4.032540e-09   -2.560059e+00
    2.580732e+00    9.183268e+00    1.516115e+01    1.488104e+09    4.184676e-09    9.139105e-11    4.030376e-09   -2.555059e+00
    2.606900e+00    9.536890e+00    1.496579e+01    1.485109e+09    4.181055e-09    8.842770e-11    4.028150e-09   -2.550059e+00
    2.633266e+00    9.904525e+00    1.477102e+01    1.481879e+09    4.177462e-09    8.555825e-11    4.025863e-09   -2.545059e+00
    2.659831e+00    1.028636e+01    1.457684e+01    1.478413e+09    4.173896e-09    8.277995e-11    4.023514e-09   -2.540059e+00
    2.686595e+00    1.068256e+01    1.438331e+01    1.474714e+09    4.170356e-09    8.009030e-11    4.021103e-09   -2.535059e+00
    2.713562e+00    1.109325e+01    1.419043e+01    1.470784e+09    4.166838e-09    7.748665e-11    4.018632e-09   -2.530059e+00
    2.740734e+00    1.151851e+01    1.399825e+01    1.466624e+09    4.163341e-09    7.496650e-11    4.016099e-09   -2.525059e+00
    2.768116e+00    1.195841e+01    1.380679e+01    1.462238e+09    4.159863e-09    7.252735e-11    4.013504e-09   -2.520059e+00
    2.795712e+00    1.241296e+01    1.361607e+01    1.457629e+09    4.156401e-09    7.016685e-11    4.010848e-09   -2.515059e+00
    2.823528e+00    1.288218e+01    1.342613e+01    1.452801e+09    4.152953e-09    6.788250e-11    4.008130e-09   -2.510059e+00
    2.851572e+00    1.336602e+01    1.323699e+01    1.447758e+09    4.149517e-09    6.567210e-11    4.005352e-09   -2.505059e+00
    2.879849e+00    1.386442e+01    1.304867e+01    1.442506e+09    4.146091e-09    6.353330e-11    4.002510e-09   -2.500059e+00
    2.908370e+00    1.437732e+01    1.286122e+01    1.437047e+09    4.142674e-09    6.146390e-11    3.999607e-09   -2.495059e+00
    2.937143e+00    1.490460e+01    1.267463e+01    1.431389e+09    4.139261e-09    5.946170e-11    3.996640e-09   -2.490059e+00
    2.966176e+00    1.544614e+01    1.248895e+01    1.425535e+09    4.135853e-09    5.752465e-11    3.993610e-09   -2.485059e+00
    2.995481e+00    1.600182e+01    1.230419e+01    1.419491e+09    4.132447e-09    5.565065e-11    3.990518e-09   -2.480059e+00
    3.025070e+00    1.657149e+01    1.212039e+01    1.413263e+09    4.129039e-09    5.383765e-11    3.987361e-09   -2.475059e+00
    3.054955e+00    1.715499e+01    1.193755e+01    1.406857e+09    4.125629e-09    5.208380e-11    3.984139e-09   -2.470059e+00
    3.085145e+00    1.775219e+01    1.175571e+01    1.400278e+09    4.122213e-09    5.038710e-11    3.980851e-09   -2.465059e+00
    3.115657e+00    1.836292e+01    1.157488e+01    1.393531e+09    4.118791e-09    4.874573e-11    3.977498e-09   -2.460059e+00
    3.146504e+00    1.898705e+01    1.139508e+01    1.386622e+09    4.115360e-09    4.715790e-11    3.974077e-09   -2.455059e+00
    3.177698e+00    1.962442e+01    1.121634e+01    1.379556e+09    4.111917e-09    4.562185e-11    3.970588e-09   -2.450059e+00
    3.209254e+00    2.027490e+01    1.103867e+01    1.372340e+09    4.108460e-09    4.413590e-11    3.967031e-09   -2.445059e+00
    3.241187e+00    2.093837e+01    1.086209e+01    1.364977e+09    4.104988e-09    4.269840e-11    3.963404e-09   -2.440059e+00
    3.273513e+00    2.161472e+01    1.068661e+01    1.357474e+09    4.101499e-09    4.130774e-11    3.959706e-09   -2.435059e+00
    3.306246e+00    2.230385e+01    1.051227e+01    1.349835e+09    4.097989e-09    3.996238e-11    3.955937e-09   -2.430059e+00
    3.339404e+00    2.300570e+01    1.033906e+01    1.342066e+09    4.094456e-09    3.866082e-11    3.952094e-09   -2.425059e+00
    3.373003e+00    2.372021e+01    1.016700e+01    1.334170e+09    4.090899e-09    3.740161e-11    3.948177e-09   -2.420059e+00
    3.407059e+00    2.444733e+01    9.996125e+00    1.326152e+09    4.087316e-09    3.618332e-11    3.944184e-09   -2.415059e+00
    3.441589e+00    2.518707e+01    9.826435e+00    1.318017e+09    4.083702e-09    3.500460e-11    3.940114e-09   -2.410059e+00
    3.476611e+00    2.593941e+01    9.657945e+00    1.309769e+09    4.080058e-09    3.386413e-11    3.935966e-09   -2.405059e+00
    3.512144e+00    2.670439e+01    9.490670e+00    1.301411e+09    4.076381e-09    3.276063e-11    3.931737e-09   -2.400059e+00
    3.548203e+00    2.748206e+01    9.324625e+00    1.292948e+09    4.072668e-09    3.169286e-11    3.927427e-09   -2.395059e+00
    3.584811e+00    2.827249e+01    9.159820e+00    1.284383e+09    4.068916e-09    3.065961e-11    3.923034e-09   -2.390059e+00
    3.621985e+00    2.907578e+01    8.996265e+00    1.275720e+09    4.065125e-09    2.965974e-11    3.918556e-09   -2.385059e+00
    3.659744e+00    2.989206e+01    8.833980e+00    1.266961e+09    4.061290e-09    2.869213e-11    3.913991e-09   -2.380059e+00
    3.698109e+00    3.072146e+01    8.672970e+00    1.258111e+09    4.057409e-09    2.775569e-11    3.909337e-09   -2.375059e+00
    3.737102e+00    3.156414e+01    8.513245e+00    1.249172e+09    4.053481e-09    2.684937e-11    3.904592e-09   -2.370059e+00
    3.776740e+00    3.242030e+01    8.354825e+00    1.240146e+09    4.049503e-09    2.597217e-11    3.899755e-09   -2.365059e+00
    3.817048e+00    3.329014e+01    8.197710e+00    1.231037e+09    4.045472e-09    2.512310e-11    3.894822e-09   -2.360059e+00
    3.858047e+00    3.417389e+01    8.041915e+00    1.221847e+09    4.041386e-09    2.430123e-11    3.889793e-09   -2.355059e+00
    3.899757e+00    3.507181e+01    7.887455e+00    1.212578e+09    4.037242e-09    2.350563e-11    3.884665e-09   -2.350059e+00
    3.942205e+00    3.598418e+01    7.734330e+00    1.203233e+09    4.033037e-09    2.273545e-11    3.879434e-09   -2.345059e+00
    3.985413e+00    3.691126e+01    7.582555e+00    1.193814e+09    4.028770e-09    2.198981e-11    3.874100e-09   -2.340059e+00
    4.029408e+00    3.785342e+01    7.432135e+00    1.184322e+09    4.024437e-09    2.126790e-11    3.868660e-09   -2.335059e+00
    4.074211e+00    3.881091e+01    7.283085e+00    1.174760e+09    4.020036e-09    2.056892e-11    3.863109e-09   -2.330059e+00
    4.119849e+00    3.978416e+01    7.135410e+00    1.165129e+09    4.015563e-09    1.989212e-11    3.857448e-09   -2.325059e+00
    4.166350e+00    4.077352e+01    6.989120e+00    1.155431e+09    4.011017e-09    1.923674e-11    3.851672e-09   -2.320059e+00
    4.213741e+00    4.177936e+01    6.844220e+00    1.145667e+09    4.006394e-09    1.860209e-11    3.845777e-09   -2.315059e+00
    4.262047e+00    4.280214e+01    6.700725e+00    1.135839e+09    4.001691e-09    1.798746e-11    3.839763e-09   -2.310059e+00
    4.311303e+00    4.384226e+01    6.558635e+00    1.125948e+09    3.996905e-09    1.739220e-11    3.833626e-09   -2.305059e+00
    4.361531e+00    4.490013e+01    6.417965e+00    1.115995e+09    3.992035e-09    1.681567e-11    3.827361e-09   -2.300059e+00
    4.412769e+00    4.597627e+01    6.278715e+00    1.105981e+09    3.987076e-09    1.625724e-11    3.820968e-09   -2.295059e+00
    4.465043e+00    4.707114e+01    6.140900e+00    1.095908e+09    3.982025e-09    1.571631e-11    3.814442e-09   -2.290059e+00
    4.518388e+00    4.818525e+01    6.004525e+00    1.085775e+09    3.976879e-09    1.519232e-11    3.807778e-09   -2.285059e+00
    4.572839e+00    4.931914e+01    5.869595e+00    1.075585e+09    3.971636e-09    1.468470e-11    3.800976e-09   -2.280059e+00
    4.628427e+00    5.047330e+01    5.736120e+00    1.065338e+09    3.966290e-09    1.419293e-11    3.794030e-09   -2.275059e+00
    4.685189e+00    5.164835e+01    5.604105e+00    1.055033e+09    3.960841e-09    1.371648e-11    3.786936e-09   -2.270059e+00
    4.743161e+00    5.284480e+01    5.473560e+00    1.044672e+09    3.955285e-09    1.325484e-11    3.779693e-09   -2.265059e+00
    4.802382e+00    5.406329e+01    5.344490e+00    1.034256e+09    3.949617e-09    1.280756e-11    3.772295e-09   -2.260059e+00
    4.862891e+00    5.530438e+01    5.216900e+00    1.023784e+09    3.943834e-09    1.237414e-11    3.764738e-09   -2.255059e+00
    4.924726e+00    5.656872e+01    5.090800e+00    1.013258e+09    3.937933e-09    1.195414e-11    3.757019e-09   -2.250059e+00
    4.987931e+00    5.785697e+01    4.966194e+00    1.002676e+09    3.931911e-09    1.154715e-11    3.749133e-09   -2.245059e+00
    5.052546e+00    5.916974e+01    4.843091e+00    9.920392e+08    3.925764e-09    1.115273e-11    3.741077e-09   -2.240059e+00
    5.118615e+00    6.050774e+01    4.721497e+00    9.813478e+08    3.919488e-09    1.077048e-11    3.732846e-09   -2.235059e+00
    5.186184e+00    6.187164e+01    4.601418e+00    9.706019e+08    3.913079e-09    1.040001e-11    3.724436e-09   -2.230059e+00
    5.255298e+00    6.326214e+01    4.482861e+00    9.598010e+08    3.906534e-09    1.004096e-11    3.715841e-09   -2.225059e+00
    5.326005e+00    6.467998e+01    4.365833e+00    9.489451e+08    3.899848e-09    9.692945e-12    3.707058e-09   -2.220059e+00
    5.398352e+00    6.612584e+01    4.250339e+00    9.380336e+08    3.893018e-09    9.355630e-12    3.698083e-09   -2.215059e+00
    5.472391e+00    6.760051e+01    4.136386e+00    9.270669e+08    3.886041e-09    9.028675e-12    3.688909e-09   -2.210059e+00
    5.548173e+00    6.910472e+01    4.023982e+00    9.160439e+08    3.878911e-09    8.711750e-12    3.679533e-09   -2.205059e+00
    5.625748e+00    7.063923e+01    3.913131e+00    9.049644e+08    3.871626e-09    8.404550e-12    3.669949e-09   -2.200059e+00
    5.705174e+00    7.220485e+01    3.803841e+00    8.938283e+08    3.864180e-09    8.106765e-12    3.660154e-09   -2.195059e+00
    5.786502e+00    7.380230e+01    3.696118e+00    8.826343e+08    3.856570e-09    7.818110e-12    3.650140e-09   -2.190059e+00
    5.869789e+00    7.543240e+01    3.589967e+00    8.713824e+08    3.848791e-09    7.538290e-12    3.639905e-09   -2.185059e+00
    5.955094e+00    7.709593e+01    3.485396e+00    8.600718e+08    3.840840e-09    7.267045e-12    3.629442e-09   -2.180059e+00
    6.042473e+00    7.879369e+01    3.382411e+00    8.487017e+08    3.832712e-09    7.004105e-12    3.618745e-09   -2.175059e+00
    6.131987e+00    8.052645e+01    3.281017e+00    8.372712e+08    3.824403e-09    6.749215e-12    3.607811e-09   -2.170059e+00
    6.223695e+00    8.229501e+01    3.181221e+00    8.257802e+08    3.815908e-09    6.502140e-12    3.596633e-09   -2.165059e+00
    6.317658e+00    8.410012e+01    3.083029e+00    8.142272e+08    3.807223e-09    6.262630e-12    3.585206e-09   -2.160059e+00
    6.413938e+00    8.594258e+01    2.986448e+00    8.026117e+08    3.798344e-09    6.030465e-12    3.573524e-09   -2.155059e+00
    6.512597e+00    8.782310e+01    2.891482e+00    7.909331e+08    3.789266e-09    5.805425e-12    3.561583e-09   -2.150059e+00
    6.613698e+00    8.974244e+01    2.798139e+00    7.791903e+08    3.779986e-09    5.587290e-12    3.549375e-09   -2.145059e+00
    6.717301e+00    9.170128e+01    2.706424e+00    7.673828e+08    3.770498e-09    5.375865e-12    3.536897e-09   -2.140059e+00
    6.823472e+00    9.370032e+01    2.616343e+00    7.555098e+08    3.760799e-09    5.170940e-12    3.524141e-09   -2.135059e+00
    6.932270e+00    9.574015e+01    2.527901e+00    7.435706e+08    3.750882e-09    4.972331e-12    3.511104e-09   -2.130059e+00
    7.043759e+00    9.782142e+01    2.441104e+00    7.315647e+08    3.740745e-09    4.779849e-12    3.497777e-09   -2.125059e+00
    7.157999e+00    9.994462e+01    2.355957e+00    7.194914e+08    3.730383e-09    4.593317e-12    3.484158e-09   -2.120059e+00
    7.275050e+00    1.021103e+02    2.272466e+00    7.073507e+08    3.719792e-09    4.412561e-12    3.470239e-09   -2.115059e+00
    7.394966e+00    1.043188e+02    2.190635e+00    6.951420e+08    3.708966e-09    4.237414e-12    3.456015e-09   -2.110059e+00
    7.517807e+00    1.065705e+02    2.110471e+00    6.828654e+08    3.697903e-09    4.067716e-12    3.441481e-09   -2.105059e+00
    7.643626e+00    1.088658e+02    2.031975e+00    6.705209e+08    3.686597e-09    3.903309e-12    3.426630e-09   -2.100059e+00
    7.772468e+00    1.112046e+02    1.955155e+00    6.581089e+08    3.675044e-09    3.744044e-12    3.411458e-09   -2.095059e+00
    7.904384e+00    1.135871e+02    1.880013e+00    6.456297e+08    3.663241e-09    3.589773e-12    3.395959e-09   -2.090059e+00
    8.039413e+00    1.160133e+02    1.806553e+00    6.330844e+08    3.651183e-09    3.440357e-12    3.380127e-09   -2.085059e+00
    8.177591e+00    1.184829e+02    1.734778e+00    6.204738e+08    3.638866e-09    3.295659e-12    3.363958e-09   -2.080059e+00
    8.318952e+00    1.209956e+02    1.664691e+00    6.077993e+08    3.626286e-09    3.155548e-12    3.347446e-09   -2.075059e+00
    8.463519e+00    1.235509e+02    1.596294e+00    5.950631e+08    3.613440e-09    3.019895e-12    3.330586e-09   -2.070059e+00
    8.611306e+00    1.261482e+02    1.529589e+00    5.822671e+08    3.600324e-09    2.888579e-12    3.313374e-09   -2.065059e+00
    8.762321e+00    1.287865e+02    1.464577e+00    5.694139e+08    3.586934e-09    2.761479e-12    3.295804e-09   -2.060059e+00
    8.916573e+00    1.314649e+02    1.401258e+00    5.565070e+08    3.573266e-09    2.638479e-12    3.277872e-09   -2.055059e+00
    9.074040e+00    1.341821e+02    1.339632e+00    5.435499e+08    3.559319e-09    2.519468e-12    3.259574e-09   -2.050059e+00
    9.234706e+00    1.369367e+02    1.279699e+00    5.305469e+08    3.545089e-09    2.404338e-12    3.240905e-09   -2.045059e+00
    9.398533e+00    1.397267e+02    1.221455e+00    5.175027e+08    3.530572e-09    2.292983e-12    3.221861e-09   -2.040059e+00
    9.565473e+00    1.425504e+02    1.164899e+00    5.044226e+08    3.515767e-09    2.185303e-12    3.202440e-09   -2.035059e+00
    9.735466e+00    1.454054e+02    1.110025e+00    4.913134e+08    3.500671e-09    2.081198e-12    3.182636e-09   -2.030059e+00
    9.908434e+00    1.482890e+02    1.056831e+00    4.781815e+08    3.485281e-09    1.980573e-12    3.162448e-09   -2.025059e+00
    1.008428e+01    1.511988e+02    1.005308e+00    4.650346e+08    3.469595e-09    1.883337e-12    3.141871e-09   -2.020059e+00
    1.026289e+01    1.541312e+02    9.554500e-01    4.518809e+08    3.453613e-09    1.789398e-12    3.120904e-09   -2.015059e+00
    1.044414e+01    1.570832e+02    9.072480e-01    4.387300e+08    3.437333e-09    1.698670e-12    3.099545e-09   -2.010059e+00
    1.062787e+01    1.600508e+02    8.606920e-01    4.255912e+08    3.420752e-09    1.611068e-12    3.077790e-09   -2.005059e+00
    1.081392e+01    1.630297e+02    8.157705e-01    4.124753e+08    3.403872e-09    1.526511e-12    3.055640e-09   -2.000059e+00
    1.100209e+01    1.660161e+02    7.724705e-01    3.993942e+08    3.386691e-09    1.444917e-12    3.033091e-09   -1.995059e+00
    1.119217e+01    1.690049e+02    7.307775e-01    3.863596e+08    3.369209e-09    1.366210e-12    3.010145e-09   -1.990059e+00
    1.138392e+01    1.719913e+02    6.906750e-01    3.733844e+08    3.351426e-09    1.290313e-12    2.986802e-09   -1.985059e+00
