# sky130 pfet_01v8 gm/ID Processed Lookup Table
# Corner: sf
# Temperature: 75C
# W = 2.0 um
# L = 1.44 um (1440 nm)
# Columns: gm/id [1/V]  gm/gds [V/V]  id/W [A/m]  ft [Hz]  Cgg/W [F/m]  Cgd/W [F/m]  Cgs/W [F/m]  Vov [V]
#         gm/id          gm/gds            id/W              ft           Cgg/W           Cgd/W           Cgs/W             Vov
    1.890370e+00    3.465275e+00    1.135362e+01    4.045542e+08    8.443535e-09    6.921060e-10    7.750570e-09   -2.764001e+00
    1.909029e+00    3.560056e+00    1.124628e+01    4.053495e+08    8.429695e-09    6.728705e-10    7.751565e-09   -2.759001e+00
    1.927950e+00    3.659266e+00    1.113892e+01    4.061182e+08    8.416015e-09    6.539785e-10    7.752390e-09   -2.754001e+00
    1.947137e+00    3.763176e+00    1.103153e+01    4.068595e+08    8.402490e-09    6.354350e-10    7.753050e-09   -2.749001e+00
    1.966590e+00    3.872065e+00    1.092413e+01    4.075715e+08    8.389130e-09    6.172450e-10    7.753535e-09   -2.744001e+00
    1.986313e+00    3.986243e+00    1.081670e+01    4.082529e+08    8.375935e-09    5.994120e-10    7.753850e-09   -2.739001e+00
    2.006303e+00    4.106028e+00    1.070927e+01    4.089022e+08    8.362905e-09    5.819390e-10    7.753990e-09   -2.734001e+00
    2.026562e+00    4.231764e+00    1.060185e+01    4.095178e+08    8.350045e-09    5.648290e-10    7.753965e-09   -2.729001e+00
    2.047092e+00    4.363813e+00    1.049442e+01    4.100977e+08    8.337360e-09    5.480840e-10    7.753765e-09   -2.724001e+00
    2.067889e+00    4.502565e+00    1.038701e+01    4.106403e+08    8.324850e-09    5.317055e-10    7.753400e-09   -2.719001e+00
    2.088955e+00    4.648429e+00    1.027963e+01    4.111444e+08    8.312510e-09    5.156940e-10    7.752860e-09   -2.714001e+00
    2.110287e+00    4.801840e+00    1.017228e+01    4.116080e+08    8.300345e-09    5.000505e-10    7.752150e-09   -2.709001e+00
    2.131885e+00    4.963254e+00    1.006497e+01    4.120289e+08    8.288360e-09    4.847739e-10    7.751275e-09   -2.704001e+00
    2.153745e+00    5.133159e+00    9.957710e+00    4.124059e+08    8.276545e-09    4.698639e-10    7.750235e-09   -2.699001e+00
    2.175867e+00    5.312063e+00    9.850510e+00    4.127366e+08    8.264910e-09    4.553189e-10    7.749020e-09   -2.694001e+00
    2.198245e+00    5.500504e+00    9.743380e+00    4.130195e+08    8.253445e-09    4.411374e-10    7.747645e-09   -2.689001e+00
    2.220878e+00    5.699049e+00    9.636330e+00    4.132525e+08    8.242160e-09    4.273168e-10    7.746110e-09   -2.684001e+00
    2.243761e+00    5.908287e+00    9.529375e+00    4.134342e+08    8.231040e-09    4.138544e-10    7.744405e-09   -2.679001e+00
    2.266891e+00    6.128838e+00    9.422520e+00    4.135623e+08    8.220095e-09    4.007471e-10    7.742540e-09   -2.674001e+00
    2.290262e+00    6.361344e+00    9.315780e+00    4.136354e+08    8.209315e-09    3.879912e-10    7.740520e-09   -2.669001e+00
    2.313872e+00    6.606477e+00    9.209165e+00    4.136513e+08    8.198705e-09    3.755828e-10    7.738335e-09   -2.664001e+00
    2.337712e+00    6.864931e+00    9.102695e+00    4.136087e+08    8.188255e-09    3.635175e-10    7.735995e-09   -2.659001e+00
    2.361779e+00    7.137424e+00    8.996375e+00    4.135059e+08    8.177965e-09    3.517906e-10    7.733500e-09   -2.654001e+00
    2.386067e+00    7.424691e+00    8.890225e+00    4.133410e+08    8.167835e-09    3.403973e-10    7.730855e-09   -2.649001e+00
    2.410572e+00    7.727495e+00    8.784255e+00    4.131130e+08    8.157860e-09    3.293323e-10    7.728055e-09   -2.644001e+00
    2.435287e+00    8.046608e+00    8.678480e+00    4.128203e+08    8.148035e-09    3.185900e-10    7.725100e-09   -2.639001e+00
    2.460208e+00    8.382817e+00    8.572915e+00    4.124617e+08    8.138360e-09    3.081650e-10    7.722000e-09   -2.634001e+00
    2.485332e+00    8.736924e+00    8.467570e+00    4.120363e+08    8.128825e-09    2.980510e-10    7.718755e-09   -2.629001e+00
    2.510650e+00    9.109732e+00    8.362470e+00    4.115429e+08    8.119435e-09    2.882424e-10    7.715360e-09   -2.624001e+00
    2.536161e+00    9.502054e+00    8.257625e+00    4.109812e+08    8.110175e-09    2.787327e-10    7.711820e-09   -2.619001e+00
    2.561862e+00    9.914695e+00    8.153050e+00    4.103501e+08    8.101050e-09    2.695156e-10    7.708135e-09   -2.614001e+00
    2.587748e+00    1.034846e+01    8.048760e+00    4.096495e+08    8.092050e-09    2.605848e-10    7.704310e-09   -2.609001e+00
    2.613817e+00    1.080415e+01    7.944775e+00    4.088794e+08    8.083170e-09    2.519337e-10    7.700345e-09   -2.604001e+00
    2.640070e+00    1.128254e+01    7.841105e+00    4.080393e+08    8.074410e-09    2.435557e-10    7.696240e-09   -2.599001e+00
    2.666504e+00    1.178441e+01    7.737770e+00    4.071296e+08    8.065765e-09    2.354444e-10    7.691995e-09   -2.594001e+00
    2.693121e+00    1.231048e+01    7.634780e+00    4.061506e+08    8.057225e-09    2.275929e-10    7.687615e-09   -2.589001e+00
    2.719920e+00    1.286150e+01    7.532160e+00    4.051027e+08    8.048790e-09    2.199947e-10    7.683095e-09   -2.584001e+00
    2.746904e+00    1.343813e+01    7.429920e+00    4.039867e+08    8.040455e-09    2.126433e-10    7.678445e-09   -2.579001e+00
    2.774078e+00    1.404107e+01    7.328070e+00    4.028037e+08    8.032210e-09    2.055319e-10    7.673655e-09   -2.574001e+00
    2.801444e+00    1.467091e+01    7.226635e+00    4.015545e+08    8.024050e-09    1.986541e-10    7.668730e-09   -2.569001e+00
    2.829006e+00    1.532826e+01    7.125625e+00    4.002398e+08    8.015980e-09    1.920033e-10    7.663670e-09   -2.564001e+00
    2.856772e+00    1.601368e+01    7.025055e+00    3.988616e+08    8.007985e-09    1.855731e-10    7.658480e-09   -2.559001e+00
    2.884748e+00    1.672767e+01    6.924940e+00    3.974209e+08    8.000060e-09    1.793572e-10    7.653155e-09   -2.554001e+00
    2.912941e+00    1.747072e+01    6.825295e+00    3.959192e+08    7.992205e-09    1.733492e-10    7.647700e-09   -2.549001e+00
    2.941361e+00    1.824327e+01    6.726130e+00    3.943579e+08    7.984415e-09    1.675430e-10    7.642105e-09   -2.544001e+00
    2.970016e+00    1.904572e+01    6.627460e+00    3.927389e+08    7.976680e-09    1.619324e-10    7.636385e-09   -2.539001e+00
    2.998919e+00    1.987844e+01    6.529295e+00    3.910639e+08    7.968995e-09    1.565116e-10    7.630525e-09   -2.534001e+00
    3.028078e+00    2.074176e+01    6.431655e+00    3.893343e+08    7.961360e-09    1.512745e-10    7.624535e-09   -2.529001e+00
    3.057506e+00    2.163598e+01    6.334545e+00    3.875521e+08    7.953765e-09    1.462155e-10    7.618410e-09   -2.524001e+00
    3.087214e+00    2.256137e+01    6.237980e+00    3.857191e+08    7.946205e-09    1.413289e-10    7.612150e-09   -2.519001e+00
    3.117216e+00    2.351819e+01    6.141970e+00    3.838366e+08    7.938680e-09    1.366091e-10    7.605755e-09   -2.514001e+00
    3.147524e+00    2.450664e+01    6.046525e+00    3.819067e+08    7.931180e-09    1.320508e-10    7.599225e-09   -2.509001e+00
    3.178155e+00    2.552694e+01    5.951655e+00    3.799315e+08    7.923695e-09    1.276488e-10    7.592555e-09   -2.504001e+00
    3.209119e+00    2.657926e+01    5.857375e+00    3.779117e+08    7.916235e-09    1.233978e-10    7.585750e-09   -2.499001e+00
    3.240434e+00    2.766380e+01    5.763690e+00    3.758499e+08    7.908780e-09    1.192928e-10    7.578800e-09   -2.494001e+00
    3.272114e+00    2.878069e+01    5.670610e+00    3.737473e+08    7.901330e-09    1.153290e-10    7.571715e-09   -2.489001e+00
    3.304174e+00    2.993012e+01    5.578145e+00    3.716056e+08    7.893880e-09    1.115017e-10    7.564485e-09   -2.484001e+00
    3.336632e+00    3.111225e+01    5.486300e+00    3.694263e+08    7.886425e-09    1.078063e-10    7.557110e-09   -2.479001e+00
    3.369501e+00    3.232722e+01    5.395090e+00    3.672108e+08    7.878960e-09    1.042381e-10    7.549590e-09   -2.474001e+00
    3.402802e+00    3.357524e+01    5.304515e+00    3.649607e+08    7.871480e-09    1.007929e-10    7.541920e-09   -2.469001e+00
    3.436548e+00    3.485642e+01    5.214590e+00    3.626775e+08    7.863975e-09    9.746650e-11    7.534105e-09   -2.464001e+00
    3.470761e+00    3.617104e+01    5.125315e+00    3.603621e+08    7.856450e-09    9.425470e-11    7.526130e-09   -2.459001e+00
    3.505453e+00    3.751924e+01    5.036705e+00    3.580161e+08    7.848890e-09    9.115360e-11    7.518005e-09   -2.454001e+00
    3.540648e+00    3.890128e+01    4.948759e+00    3.556407e+08    7.841295e-09    8.815935e-11    7.509725e-09   -2.449001e+00
    3.576361e+00    4.031739e+01    4.861487e+00    3.532368e+08    7.833660e-09    8.526815e-11    7.501280e-09   -2.444001e+00
    3.612611e+00    4.176784e+01    4.774897e+00    3.508059e+08    7.825975e-09    8.247645e-11    7.492675e-09   -2.439001e+00
    3.649418e+00    4.325293e+01    4.688991e+00    3.483487e+08    7.818240e-09    7.978075e-11    7.483905e-09   -2.434001e+00
    3.686802e+00    4.477299e+01    4.603778e+00    3.458665e+08    7.810445e-09    7.717760e-11    7.474965e-09   -2.429001e+00
    3.724783e+00    4.632838e+01    4.519261e+00    3.433600e+08    7.802590e-09    7.466385e-11    7.465855e-09   -2.424001e+00
    3.763381e+00    4.791948e+01    4.435446e+00    3.408303e+08    7.794665e-09    7.223625e-11    7.456565e-09   -2.419001e+00
    3.802617e+00    4.954669e+01    4.352340e+00    3.382780e+08    7.786670e-09    6.989175e-11    7.447100e-09   -2.414001e+00
    3.842513e+00    5.121050e+01    4.269946e+00    3.357041e+08    7.778595e-09    6.762745e-11    7.437450e-09   -2.409001e+00
    3.883092e+00    5.291140e+01    4.188268e+00    3.331094e+08    7.770435e-09    6.544045e-11    7.427615e-09   -2.404001e+00
    3.924374e+00    5.464988e+01    4.107312e+00    3.304945e+08    7.762185e-09    6.332805e-11    7.417590e-09   -2.399001e+00
    3.966384e+00    5.642655e+01    4.027083e+00    3.278602e+08    7.753840e-09    6.128755e-11    7.407365e-09   -2.394001e+00
    4.009145e+00    5.824200e+01    3.947585e+00    3.252071e+08    7.745390e-09    5.931640e-11    7.396945e-09   -2.389001e+00
    4.052683e+00    6.009688e+01    3.868820e+00    3.225356e+08    7.736840e-09    5.741215e-11    7.386320e-09   -2.384001e+00
    4.097021e+00    6.199192e+01    3.790795e+00    3.198465e+08    7.728175e-09    5.557240e-11    7.375485e-09   -2.379001e+00
    4.142184e+00    6.392778e+01    3.713512e+00    3.171400e+08    7.719395e-09    5.379485e-11    7.364435e-09   -2.374001e+00
    4.188201e+00    6.590530e+01    3.636976e+00    3.144170e+08    7.710490e-09    5.207730e-11    7.353170e-09   -2.369001e+00
    4.235096e+00    6.792527e+01    3.561190e+00    3.116777e+08    7.701455e-09    5.041760e-11    7.341680e-09   -2.364001e+00
    4.282901e+00    6.998860e+01    3.486157e+00    3.089226e+08    7.692285e-09    4.881367e-11    7.329960e-09   -2.359001e+00
    4.331640e+00    7.209617e+01    3.411882e+00    3.061520e+08    7.682975e-09    4.726355e-11    7.318010e-09   -2.354001e+00
    4.381345e+00    7.424894e+01    3.338367e+00    3.033663e+08    7.673515e-09    4.576533e-11    7.305815e-09   -2.349001e+00
    4.432047e+00    7.644797e+01    3.265618e+00    3.005659e+08    7.663905e-09    4.431716e-11    7.293375e-09   -2.344001e+00
    4.483775e+00    7.869425e+01    3.193635e+00    2.977509e+08    7.654135e-09    4.291725e-11    7.280685e-09   -2.339001e+00
    4.536562e+00    8.098893e+01    3.122423e+00    2.949217e+08    7.644200e-09    4.156390e-11    7.267730e-09   -2.334001e+00
    4.590441e+00    8.333317e+01    3.051986e+00    2.920786e+08    7.634090e-09    4.025546e-11    7.254515e-09   -2.329001e+00
    4.645447e+00    8.572817e+01    2.982325e+00    2.892216e+08    7.623805e-09    3.899034e-11    7.241030e-09   -2.324001e+00
    4.701614e+00    8.817520e+01    2.913444e+00    2.863511e+08    7.613335e-09    3.776701e-11    7.227265e-09   -2.319001e+00
    4.758977e+00    9.067556e+01    2.845347e+00    2.834670e+08    7.602675e-09    3.658400e-11    7.213215e-09   -2.314001e+00
    4.817577e+00    9.323065e+01    2.778036e+00    2.805698e+08    7.591815e-09    3.543989e-11    7.198875e-09   -2.309001e+00
    4.877447e+00    9.584182e+01    2.711514e+00    2.776594e+08    7.580750e-09    3.433330e-11    7.184235e-09   -2.304001e+00
    4.938631e+00    9.851060e+01    2.645784e+00    2.747358e+08    7.569475e-09    3.326293e-11    7.169285e-09   -2.299001e+00
    5.001168e+00    1.012385e+02    2.580849e+00    2.717994e+08    7.557980e-09    3.222750e-11    7.154025e-09   -2.294001e+00
    5.065098e+00    1.040272e+02    2.516713e+00    2.688497e+08    7.546265e-09    3.122580e-11    7.138440e-09   -2.289001e+00
    5.130465e+00    1.068781e+02    2.453376e+00    2.658872e+08    7.534310e-09    3.025664e-11    7.122525e-09   -2.284001e+00
    5.197314e+00    1.097930e+02    2.390843e+00    2.629118e+08    7.522120e-09    2.931889e-11    7.106275e-09   -2.279001e+00
    5.265688e+00    1.127737e+02    2.329117e+00    2.599231e+08    7.509685e-09    2.841147e-11    7.089675e-09   -2.274001e+00
    5.335637e+00    1.158220e+02    2.268200e+00    2.569216e+08    7.496995e-09    2.753332e-11    7.072720e-09   -2.269001e+00
    5.407205e+00    1.189396e+02    2.208095e+00    2.539070e+08    7.484040e-09    2.668343e-11    7.055405e-09   -2.264001e+00
    5.480444e+00    1.221286e+02    2.148805e+00    2.508792e+08    7.470820e-09    2.586083e-11    7.037715e-09   -2.259001e+00
    5.555401e+00    1.253908e+02    2.090333e+00    2.478381e+08    7.457320e-09    2.506457e-11    7.019645e-09   -2.254001e+00
    5.632129e+00    1.287281e+02    2.032680e+00    2.447835e+08    7.443540e-09    2.429376e-11    7.001185e-09   -2.249001e+00
    5.710681e+00    1.321428e+02    1.975850e+00    2.417155e+08    7.429465e-09    2.354751e-11    6.982330e-09   -2.244001e+00
    5.791110e+00    1.356369e+02    1.919846e+00    2.386338e+08    7.415090e-09    2.282500e-11    6.963060e-09   -2.239001e+00
    5.873472e+00    1.392124e+02    1.864671e+00    2.355382e+08    7.400410e-09    2.212541e-11    6.943375e-09   -2.234001e+00
    5.957819e+00    1.428715e+02    1.810326e+00    2.324285e+08    7.385415e-09    2.144797e-11    6.923260e-09   -2.229001e+00
    6.044215e+00    1.466164e+02    1.756816e+00    2.293048e+08    7.370095e-09    2.079192e-11    6.902710e-09   -2.224001e+00
    6.132710e+00    1.504495e+02    1.704141e+00    2.261667e+08    7.354440e-09    2.015654e-11    6.881715e-09   -2.219001e+00
    6.223367e+00    1.543728e+02    1.652306e+00    2.230138e+08    7.338450e-09    1.954114e-11    6.860255e-09   -2.214001e+00
    6.316245e+00    1.583887e+02    1.601313e+00    2.198463e+08    7.322110e-09    1.894505e-11    6.838335e-09   -2.209001e+00
    6.411403e+00    1.624994e+02    1.551165e+00    2.166637e+08    7.305415e-09    1.836761e-11    6.815935e-09   -2.204001e+00
    6.508905e+00    1.667074e+02    1.501863e+00    2.134660e+08    7.288355e-09    1.780820e-11    6.793045e-09   -2.199001e+00
    6.608804e+00    1.710145e+02    1.453410e+00    2.102527e+08    7.270925e-09    1.726623e-11    6.769660e-09   -2.194001e+00
    6.711168e+00    1.754234e+02    1.405811e+00    2.070240e+08    7.253110e-09    1.674112e-11    6.745770e-09   -2.189001e+00
    6.816054e+00    1.799361e+02    1.359065e+00    2.037794e+08    7.234910e-09    1.623230e-11    6.721355e-09   -2.184001e+00
    6.923525e+00    1.845549e+02    1.313177e+00    2.005189e+08    7.216310e-09    1.573923e-11    6.696415e-09   -2.179001e+00
    7.033642e+00    1.892818e+02    1.268147e+00    1.972422e+08    7.197310e-09    1.526141e-11    6.670935e-09   -2.174001e+00
    7.146454e+00    1.941188e+02    1.223981e+00    1.939494e+08    7.177890e-09    1.479833e-11    6.644900e-09   -2.169001e+00
    7.262033e+00    1.990680e+02    1.180677e+00    1.906402e+08    7.158055e-09    1.434951e-11    6.618310e-09   -2.164001e+00
    7.380421e+00    2.041310e+02    1.138240e+00    1.873146e+08    7.137785e-09    1.391447e-11    6.591150e-09   -2.159001e+00
    7.501680e+00    2.093097e+02    1.096671e+00    1.839726e+08    7.117080e-09    1.349278e-11    6.563405e-09   -2.154001e+00
    7.625860e+00    2.146055e+02    1.055972e+00    1.806143e+08    7.095930e-09    1.308401e-11    6.535070e-09   -2.149001e+00
    7.753012e+00    2.200199e+02    1.016145e+00    1.772397e+08    7.074325e-09    1.268772e-11    6.506135e-09   -2.144001e+00
    7.883176e+00    2.255539e+02    9.771905e-01    1.738490e+08    7.052260e-09    1.230352e-11    6.476590e-09   -2.139001e+00
    8.016386e+00    2.312083e+02    9.391115e-01    1.704424e+08    7.029725e-09    1.193104e-11    6.446420e-09   -2.134001e+00
    8.152694e+00    2.369839e+02    9.019080e-01    1.670202e+08    7.006715e-09    1.156987e-11    6.415620e-09   -2.129001e+00
    8.292109e+00    2.428807e+02    8.655820e-01    1.635827e+08    6.983225e-09    1.121968e-11    6.384185e-09   -2.124001e+00
    8.434673e+00    2.488990e+02    8.301335e-01    1.601306e+08    6.959245e-09    1.088010e-11    6.352095e-09   -2.119001e+00
    8.580389e+00    2.550379e+02    7.955630e-01    1.566643e+08    6.934765e-09    1.055079e-11    6.319345e-09   -2.114001e+00
    8.729273e+00    2.612969e+02    7.618710e-01    1.531846e+08    6.909785e-09    1.023145e-11    6.285930e-09   -2.109001e+00
    8.881322e+00    2.676744e+02    7.290570e-01    1.496924e+08    6.884295e-09    9.921740e-12    6.251840e-09   -2.104001e+00
    9.036522e+00    2.741684e+02    6.971205e-01    1.461886e+08    6.858290e-09    9.621370e-12    6.217065e-09   -2.099001e+00
    9.194856e+00    2.807768e+02    6.660610e-01    1.426744e+08    6.831765e-09    9.330045e-12    6.181600e-09   -2.094001e+00
    9.356283e+00    2.874961e+02    6.358770e-01    1.391511e+08    6.804715e-09    9.047480e-12    6.145435e-09   -2.089001e+00
    9.520769e+00    2.943229e+02    6.065660e-01    1.356201e+08    6.777135e-09    8.773405e-12    6.108565e-09   -2.084001e+00
    9.688234e+00    3.012522e+02    5.781265e-01    1.320831e+08    6.749015e-09    8.507555e-12    6.070980e-09   -2.079001e+00
    9.858633e+00    3.082794e+02    5.505545e-01    1.285419e+08    6.720360e-09    8.249675e-12    6.032680e-09   -2.074001e+00
    1.003183e+01    3.153977e+02    5.238480e-01    1.249982e+08    6.691165e-09    7.999515e-12    5.993655e-09   -2.069001e+00
    1.020777e+01    3.226012e+02    4.980017e-01    1.214548e+08    6.661420e-09    7.756840e-12    5.953905e-09   -2.064001e+00
    1.038628e+01    3.298814e+02    4.730113e-01    1.179137e+08    6.631130e-09    7.521425e-12    5.913420e-09   -2.059001e+00
    1.056724e+01    3.372300e+02    4.488715e-01    1.143776e+08    6.600285e-09    7.293040e-12    5.872200e-09   -2.054001e+00
    1.075048e+01    3.446372e+02    4.255759e-01    1.108493e+08    6.568890e-09    7.071475e-12    5.830245e-09   -2.049001e+00
    1.093581e+01    3.520927e+02    4.031176e-01    1.073317e+08    6.536945e-09    6.856515e-12    5.787545e-09   -2.044001e+00
    1.112303e+01    3.595849e+02    3.814890e-01    1.038281e+08    6.504450e-09    6.647970e-12    5.744105e-09   -2.039001e+00
    1.131192e+01    3.671016e+02    3.606815e-01    1.003419e+08    6.471395e-09    6.445635e-12    5.699925e-09   -2.034001e+00
    1.150223e+01    3.746294e+02    3.406857e-01    9.687659e+07    6.437795e-09    6.249330e-12    5.655000e-09   -2.029001e+00
    1.169369e+01    3.821541e+02    3.214915e-01    9.343589e+07    6.403645e-09    6.058870e-12    5.609335e-09   -2.024001e+00
    1.188601e+01    3.896607e+02    3.030876e-01    9.002371e+07    6.368945e-09    5.874080e-12    5.562935e-09   -2.019001e+00
    1.207889e+01    3.971333e+02    2.854623e-01    8.664394e+07    6.333705e-09    5.694785e-12    5.515800e-09   -2.014001e+00
    1.227201e+01    4.045561e+02    2.686025e-01    8.330070e+07    6.297925e-09    5.520825e-12    5.467930e-09   -2.009001e+00
