# sky130 pfet_01v8 gm/ID Processed Lookup Table
# Corner: sf
# Temperature: 75C
# W = 2.0 um
# L = 0.54 um (540 nm)
# Columns: gm/id [1/V]  gm/gds [V/V]  id/W [A/m]  ft [Hz]  Cgg/W [F/m]  Cgd/W [F/m]  Cgs/W [F/m]  Vov [V]
#         gm/id          gm/gds            id/W              ft           Cgg/W           Cgd/W           Cgs/W             Vov
    1.683878e+00    2.580712e+00    2.962313e+01    2.377658e+09    3.338969e-09    2.208793e-10    3.125812e-09   -2.721437e+00
    1.699625e+00    2.635577e+00    2.937362e+01    2.382813e+09    3.334577e-09    2.146696e-10    3.126276e-09   -2.716438e+00
    1.715596e+00    2.692457e+00    2.912389e+01    2.387862e+09    3.330239e-09    2.085833e-10    3.126680e-09   -2.711438e+00
    1.731793e+00    2.751452e+00    2.887397e+01    2.392800e+09    3.325955e-09    2.026207e-10    3.127020e-09   -2.706437e+00
    1.748220e+00    2.812664e+00    2.862385e+01    2.397621e+09    3.321726e-09    1.967820e-10    3.127299e-09   -2.701437e+00
    1.764879e+00    2.876200e+00    2.837357e+01    2.402322e+09    3.317552e-09    1.910676e-10    3.127517e-09   -2.696438e+00
    1.781774e+00    2.942179e+00    2.812310e+01    2.406898e+09    3.313434e-09    1.854773e-10    3.127672e-09   -2.691438e+00
    1.798906e+00    3.010718e+00    2.787248e+01    2.411341e+09    3.309370e-09    1.800109e-10    3.127766e-09   -2.686437e+00
    1.816278e+00    3.081945e+00    2.762171e+01    2.415649e+09    3.305363e-09    1.746680e-10    3.127799e-09   -2.681437e+00
    1.833894e+00    3.155993e+00    2.737080e+01    2.419816e+09    3.301410e-09    1.694482e-10    3.127772e-09   -2.676438e+00
    1.851755e+00    3.233000e+00    2.711976e+01    2.423835e+09    3.297512e-09    1.643507e-10    3.127684e-09   -2.671438e+00
    1.869863e+00    3.313114e+00    2.686860e+01    2.427700e+09    3.293669e-09    1.593748e-10    3.127537e-09   -2.666438e+00
    1.888219e+00    3.396486e+00    2.661736e+01    2.431406e+09    3.289880e-09    1.545197e-10    3.127330e-09   -2.661437e+00
    1.906828e+00    3.483280e+00    2.636602e+01    2.434947e+09    3.286144e-09    1.497841e-10    3.127064e-09   -2.656438e+00
    1.925687e+00    3.573658e+00    2.611461e+01    2.438314e+09    3.282461e-09    1.451670e-10    3.126741e-09   -2.651438e+00
    1.944799e+00    3.667796e+00    2.586313e+01    2.441502e+09    3.278831e-09    1.406673e-10    3.126359e-09   -2.646438e+00
    1.964167e+00    3.765879e+00    2.561163e+01    2.444504e+09    3.275253e-09    1.362832e-10    3.125921e-09   -2.641437e+00
    1.983787e+00    3.868089e+00    2.536009e+01    2.447311e+09    3.271725e-09    1.320137e-10    3.125425e-09   -2.636437e+00
    2.003665e+00    3.974630e+00    2.510854e+01    2.449919e+09    3.268247e-09    1.278571e-10    3.124874e-09   -2.631438e+00
    2.023796e+00    4.085694e+00    2.485700e+01    2.452317e+09    3.264818e-09    1.238116e-10    3.124267e-09   -2.626438e+00
    2.044182e+00    4.201496e+00    2.460549e+01    2.454498e+09    3.261438e-09    1.198757e-10    3.123605e-09   -2.621437e+00
    2.064823e+00    4.322249e+00    2.435403e+01    2.456455e+09    3.258104e-09    1.160475e-10    3.122889e-09   -2.616437e+00
    2.085718e+00    4.448174e+00    2.410263e+01    2.458181e+09    3.254816e-09    1.123253e-10    3.122118e-09   -2.611438e+00
    2.106867e+00    4.579493e+00    2.385132e+01    2.459666e+09    3.251573e-09    1.087070e-10    3.121296e-09   -2.606438e+00
    2.128264e+00    4.716435e+00    2.360013e+01    2.460900e+09    3.248374e-09    1.051910e-10    3.120420e-09   -2.601437e+00
    2.149914e+00    4.859237e+00    2.334905e+01    2.461879e+09    3.245217e-09    1.017752e-10    3.119492e-09   -2.596437e+00
    2.171809e+00    5.008126e+00    2.309815e+01    2.462591e+09    3.242100e-09    9.845750e-11    3.118513e-09   -2.591438e+00
    2.193950e+00    5.163343e+00    2.284742e+01    2.463031e+09    3.239025e-09    9.523595e-11    3.117483e-09   -2.586438e+00
    2.216333e+00    5.325120e+00    2.259689e+01    2.463186e+09    3.235987e-09    9.210855e-11    3.116403e-09   -2.581437e+00
    2.238960e+00    5.493699e+00    2.234661e+01    2.463054e+09    3.232987e-09    8.907320e-11    3.115273e-09   -2.576437e+00
    2.261823e+00    5.669303e+00    2.209657e+01    2.462624e+09    3.230022e-09    8.612780e-11    3.114093e-09   -2.571438e+00
    2.284922e+00    5.852166e+00    2.184683e+01    2.461890e+09    3.227092e-09    8.327035e-11    3.112864e-09   -2.566438e+00
    2.308254e+00    6.042505e+00    2.159740e+01    2.460843e+09    3.224195e-09    8.049870e-11    3.111587e-09   -2.561437e+00
    2.331817e+00    6.240539e+00    2.134832e+01    2.459479e+09    3.221329e-09    7.781080e-11    3.110261e-09   -2.556437e+00
    2.355608e+00    6.446472e+00    2.109961e+01    2.457790e+09    3.218494e-09    7.520460e-11    3.108888e-09   -2.551438e+00
    2.379624e+00    6.660499e+00    2.085130e+01    2.455771e+09    3.215686e-09    7.267800e-11    3.107468e-09   -2.546438e+00
    2.403863e+00    6.882806e+00    2.060344e+01    2.453418e+09    3.212906e-09    7.022900e-11    3.106000e-09   -2.541438e+00
    2.428325e+00    7.113561e+00    2.035603e+01    2.450724e+09    3.210153e-09    6.785555e-11    3.104485e-09   -2.536437e+00
    2.453007e+00    7.352916e+00    2.010914e+01    2.447689e+09    3.207422e-09    6.555560e-11    3.102924e-09   -2.531438e+00
    2.477908e+00    7.601012e+00    1.986276e+01    2.444307e+09    3.204714e-09    6.332725e-11    3.101316e-09   -2.526438e+00
    2.503028e+00    7.857981e+00    1.961697e+01    2.440577e+09    3.202028e-09    6.116850e-11    3.099663e-09   -2.521438e+00
    2.528367e+00    8.123913e+00    1.937176e+01    2.436498e+09    3.199361e-09    5.907740e-11    3.097964e-09   -2.516437e+00
    2.553925e+00    8.398900e+00    1.912719e+01    2.432068e+09    3.196712e-09    5.705205e-11    3.096218e-09   -2.511437e+00
    2.579703e+00    8.683009e+00    1.888328e+01    2.427289e+09    3.194080e-09    5.509060e-11    3.094427e-09   -2.506438e+00
    2.605704e+00    8.976299e+00    1.864006e+01    2.422160e+09    3.191463e-09    5.319125e-11    3.092590e-09   -2.501438e+00
    2.631930e+00    9.278790e+00    1.839758e+01    2.416684e+09    3.188859e-09    5.135210e-11    3.090707e-09   -2.496437e+00
    2.658382e+00    9.590497e+00    1.815587e+01    2.410862e+09    3.186267e-09    4.957139e-11    3.088779e-09   -2.491437e+00
    2.685068e+00    9.911428e+00    1.791494e+01    2.404699e+09    3.183685e-09    4.784744e-11    3.086804e-09   -2.486438e+00
    2.711990e+00    1.024155e+01    1.767484e+01    2.398197e+09    3.181113e-09    4.617853e-11    3.084784e-09   -2.481438e+00
    2.739153e+00    1.058084e+01    1.743561e+01    2.391360e+09    3.178547e-09    4.456298e-11    3.082717e-09   -2.476437e+00
    2.766564e+00    1.092925e+01    1.719727e+01    2.384194e+09    3.175987e-09    4.299919e-11    3.080604e-09   -2.471437e+00
    2.794230e+00    1.128672e+01    1.695985e+01    2.376704e+09    3.173432e-09    4.148554e-11    3.078444e-09   -2.466438e+00
    2.822159e+00    1.165319e+01    1.672338e+01    2.368895e+09    3.170880e-09    4.002052e-11    3.076238e-09   -2.461438e+00
    2.850357e+00    1.202857e+01    1.648790e+01    2.360774e+09    3.168328e-09    3.860259e-11    3.073984e-09   -2.456437e+00
    2.878834e+00    1.241280e+01    1.625343e+01    2.352348e+09    3.165776e-09    3.723029e-11    3.071682e-09   -2.451437e+00
    2.907599e+00    1.280578e+01    1.602000e+01    2.343621e+09    3.163223e-09    3.590218e-11    3.069332e-09   -2.446438e+00
    2.936663e+00    1.320743e+01    1.578764e+01    2.334603e+09    3.160665e-09    3.461686e-11    3.066934e-09   -2.441438e+00
    2.966036e+00    1.361767e+01    1.555638e+01    2.325298e+09    3.158103e-09    3.337299e-11    3.064487e-09   -2.436437e+00
    2.995728e+00    1.403640e+01    1.532624e+01    2.315716e+09    3.155534e-09    3.216924e-11    3.061990e-09   -2.431437e+00
    3.025752e+00    1.446355e+01    1.509726e+01    2.305863e+09    3.152957e-09    3.100431e-11    3.059444e-09   -2.426438e+00
    3.056119e+00    1.489903e+01    1.486945e+01    2.295745e+09    3.150370e-09    2.987697e-11    3.056846e-09   -2.421438e+00
    3.086844e+00    1.534278e+01    1.464284e+01    2.285371e+09    3.147772e-09    2.878601e-11    3.054197e-09   -2.416438e+00
    3.117938e+00    1.579473e+01    1.441745e+01    2.274747e+09    3.145161e-09    2.773024e-11    3.051495e-09   -2.411437e+00
    3.149414e+00    1.625483e+01    1.419332e+01    2.263881e+09    3.142535e-09    2.670853e-11    3.048741e-09   -2.406438e+00
    3.181288e+00    1.672302e+01    1.397045e+01    2.252779e+09    3.139894e-09    2.571977e-11    3.045932e-09   -2.401438e+00
    3.213573e+00    1.719927e+01    1.374888e+01    2.241448e+09    3.137235e-09    2.476289e-11    3.043069e-09   -2.396438e+00
    3.246285e+00    1.768356e+01    1.352862e+01    2.229894e+09    3.134557e-09    2.383684e-11    3.040150e-09   -2.391437e+00
    3.279437e+00    1.817586e+01    1.330971e+01    2.218125e+09    3.131857e-09    2.294061e-11    3.037174e-09   -2.386437e+00
    3.313047e+00    1.867617e+01    1.309215e+01    2.206147e+09    3.129135e-09    2.207325e-11    3.034142e-09   -2.381438e+00
    3.347129e+00    1.918450e+01    1.287597e+01    2.193964e+09    3.126389e-09    2.123380e-11    3.031050e-09   -2.376438e+00
    3.381703e+00    1.970087e+01    1.266118e+01    2.181584e+09    3.123617e-09    2.042133e-11    3.027898e-09   -2.371437e+00
    3.416781e+00    2.022532e+01    1.244781e+01    2.169012e+09    3.120818e-09    1.963497e-11    3.024685e-09   -2.366437e+00
    3.452384e+00    2.075788e+01    1.223588e+01    2.156253e+09    3.117989e-09    1.887386e-11    3.021410e-09   -2.361438e+00
    3.488529e+00    2.129861e+01    1.202539e+01    2.143312e+09    3.115129e-09    1.813716e-11    3.018071e-09   -2.356438e+00
    3.525233e+00    2.184757e+01    1.181637e+01    2.130196e+09    3.112237e-09    1.742410e-11    3.014668e-09   -2.351437e+00
    3.562516e+00    2.240486e+01    1.160884e+01    2.116907e+09    3.109310e-09    1.673387e-11    3.011198e-09   -2.346437e+00
    3.600397e+00    2.297055e+01    1.140281e+01    2.103452e+09    3.106346e-09    1.606572e-11    3.007660e-09   -2.341438e+00
    3.638896e+00    2.354475e+01    1.119830e+01    2.089833e+09    3.103345e-09    1.541896e-11    3.004053e-09   -2.336438e+00
    3.678030e+00    2.412757e+01    1.099532e+01    2.076056e+09    3.100304e-09    1.479286e-11    3.000374e-09   -2.331437e+00
    3.717825e+00    2.471915e+01    1.079389e+01    2.062125e+09    3.097221e-09    1.418674e-11    2.996624e-09   -2.326437e+00
    3.758298e+00    2.531962e+01    1.059403e+01    2.048042e+09    3.094094e-09    1.359997e-11    2.992800e-09   -2.321438e+00
    3.799472e+00    2.592910e+01    1.039574e+01    2.033812e+09    3.090921e-09    1.303190e-11    2.988899e-09   -2.316438e+00
    3.841369e+00    2.654778e+01    1.019905e+01    2.019438e+09    3.087702e-09    1.248192e-11    2.984921e-09   -2.311437e+00
    3.884015e+00    2.717581e+01    1.000396e+01    2.004923e+09    3.084433e-09    1.194945e-11    2.980863e-09   -2.306437e+00
    3.927430e+00    2.781337e+01    9.810495e+00    1.990270e+09    3.081113e-09    1.143391e-11    2.976725e-09   -2.301438e+00
    3.971640e+00    2.846065e+01    9.618665e+00    1.975482e+09    3.077739e-09    1.093476e-11    2.972503e-09   -2.296438e+00
    4.016668e+00    2.911782e+01    9.428485e+00    1.960561e+09    3.074309e-09    1.045146e-11    2.968195e-09   -2.291438e+00
    4.062544e+00    2.978512e+01    9.239960e+00    1.945511e+09    3.070823e-09    9.983500e-12    2.963799e-09   -2.286437e+00
    4.109291e+00    3.046273e+01    9.053110e+00    1.930332e+09    3.067275e-09    9.530395e-12    2.959314e-09   -2.281438e+00
    4.156939e+00    3.115090e+01    8.867945e+00    1.915028e+09    3.063667e-09    9.091660e-12    2.954738e-09   -2.276438e+00
    4.205513e+00    3.184983e+01    8.684480e+00    1.899601e+09    3.059995e-09    8.666830e-12    2.950067e-09   -2.271438e+00
    4.255047e+00    3.255977e+01    8.502720e+00    1.884051e+09    3.056256e-09    8.255465e-12    2.945299e-09   -2.266437e+00
    4.305563e+00    3.328098e+01    8.322690e+00    1.868381e+09    3.052449e-09    7.857140e-12    2.940432e-09   -2.261437e+00
    4.357101e+00    3.401368e+01    8.144385e+00    1.852592e+09    3.048571e-09    7.471435e-12    2.935464e-09   -2.256438e+00
    4.409687e+00    3.475816e+01    7.967830e+00    1.836686e+09    3.044619e-09    7.097950e-12    2.930392e-09   -2.251438e+00
    4.463352e+00    3.551466e+01    7.793035e+00    1.820664e+09    3.040592e-09    6.736300e-12    2.925213e-09   -2.246437e+00
    4.518136e+00    3.628349e+01    7.620005e+00    1.804527e+09    3.036487e-09    6.386115e-12    2.919925e-09   -2.241437e+00
    4.574070e+00    3.706490e+01    7.448755e+00    1.788275e+09    3.032302e-09    6.047035e-12    2.914525e-09   -2.236438e+00
    4.631188e+00    3.785921e+01    7.279300e+00    1.771909e+09    3.028034e-09    5.718715e-12    2.909010e-09   -2.231438e+00
    4.689535e+00    3.866666e+01    7.111640e+00    1.755431e+09    3.023680e-09    5.400820e-12    2.903377e-09   -2.226437e+00
    4.749138e+00    3.948761e+01    6.945800e+00    1.738841e+09    3.019238e-09    5.093025e-12    2.897624e-09   -2.221437e+00
    4.810045e+00    4.032233e+01    6.781780e+00    1.722138e+09    3.014706e-09    4.795021e-12    2.891747e-09   -2.216438e+00
    4.872293e+00    4.117114e+01    6.619595e+00    1.705324e+09    3.010080e-09    4.506509e-12    2.885743e-09   -2.211438e+00
    4.935924e+00    4.203433e+01    6.459255e+00    1.688398e+09    3.005358e-09    4.227200e-12    2.879608e-09   -2.206437e+00
    5.000978e+00    4.291228e+01    6.300775e+00    1.671360e+09    3.000537e-09    3.956814e-12    2.873341e-09   -2.201437e+00
    5.067503e+00    4.380526e+01    6.144160e+00    1.654210e+09    2.995615e-09    3.695082e-12    2.866937e-09   -2.196438e+00
    5.135541e+00    4.471361e+01    5.989425e+00    1.636948e+09    2.990588e-09    3.441744e-12    2.860393e-09   -2.191438e+00
    5.205144e+00    4.563766e+01    5.836575e+00    1.619573e+09    2.985454e-09    3.196551e-12    2.853706e-09   -2.186437e+00
    5.276355e+00    4.657771e+01    5.685625e+00    1.602085e+09    2.980210e-09    2.959260e-12    2.846872e-09   -2.181437e+00
    5.349225e+00    4.753419e+01    5.536585e+00    1.584483e+09    2.974852e-09    2.729639e-12    2.839888e-09   -2.176438e+00
    5.423804e+00    4.850731e+01    5.389465e+00    1.566766e+09    2.969379e-09    2.507463e-12    2.832750e-09   -2.171438e+00
    5.500143e+00    4.949745e+01    5.244275e+00    1.548934e+09    2.963785e-09    2.292516e-12    2.825453e-09   -2.166438e+00
    5.578298e+00    5.050499e+01    5.101025e+00    1.530985e+09    2.958070e-09    2.084588e-12    2.817996e-09   -2.161437e+00
    5.658322e+00    5.153015e+01    4.959727e+00    1.512918e+09    2.952229e-09    1.883479e-12    2.810373e-09   -2.156438e+00
    5.740268e+00    5.257337e+01    4.820391e+00    1.494733e+09    2.946260e-09    1.688994e-12    2.802582e-09   -2.151438e+00
    5.824194e+00    5.363487e+01    4.683027e+00    1.476427e+09    2.940159e-09    1.500946e-12    2.794617e-09   -2.146438e+00
    5.910159e+00    5.471497e+01    4.547646e+00    1.457999e+09    2.933923e-09    1.319153e-12    2.786475e-09   -2.141437e+00
    5.998222e+00    5.581402e+01    4.414257e+00    1.439449e+09    2.927549e-09    1.143443e-12    2.778152e-09   -2.136437e+00
    6.088441e+00    5.693227e+01    4.282872e+00    1.420773e+09    2.921034e-09    9.736450e-13    2.769645e-09   -2.131438e+00
    6.180877e+00    5.807000e+01    4.153501e+00    1.401972e+09    2.914374e-09    8.095995e-13    2.760948e-09   -2.126438e+00
    6.275594e+00    5.922747e+01    4.026153e+00    1.383043e+09    2.907566e-09    6.511490e-13    2.752059e-09   -2.121437e+00
    6.372650e+00    6.040492e+01    3.900840e+00    1.363984e+09    2.900607e-09    4.981429e-13    2.742971e-09   -2.116437e+00
    6.472113e+00    6.160258e+01    3.777570e+00    1.344795e+09    2.893493e-09    3.504356e-13    2.733682e-09   -2.111438e+00
    6.574041e+00    6.282063e+01    3.656354e+00    1.325474e+09    2.886222e-09    2.078869e-13    2.724188e-09   -2.106438e+00
    6.678499e+00    6.405925e+01    3.537203e+00    1.306018e+09    2.878789e-09    7.036130e-14    2.714484e-09   -2.101437e+00
    6.785551e+00    6.531858e+01    3.420126e+00    1.286427e+09    2.871192e-09    6.227165e-14    2.704565e-09   -2.096437e+00
    6.895258e+00    6.659873e+01    3.305131e+00    1.266699e+09    2.863426e-09    1.901381e-13    2.694428e-09   -2.091438e+00
    7.007684e+00    6.789978e+01    3.192231e+00    1.246833e+09    2.855490e-09    3.133595e-13    2.684068e-09   -2.086438e+00
    7.122889e+00    6.922174e+01    3.081433e+00    1.226828e+09    2.847379e-09    4.320533e-13    2.673482e-09   -2.081437e+00
    7.240932e+00    7.056462e+01    2.972747e+00    1.206683e+09    2.839091e-09    5.463330e-13    2.662663e-09   -2.076437e+00
    7.361872e+00    7.192834e+01    2.866182e+00    1.186398e+09    2.830621e-09    6.563075e-13    2.651611e-09   -2.071438e+00
    7.485764e+00    7.331279e+01    2.761745e+00    1.165971e+09    2.821967e-09    7.620830e-13    2.640317e-09   -2.066438e+00
    7.612661e+00    7.471779e+01    2.659447e+00    1.145404e+09    2.813126e-09    8.637610e-13    2.628781e-09   -2.061437e+00
    7.742615e+00    7.614311e+01    2.559293e+00    1.124696e+09    2.804095e-09    9.614400e-13    2.616997e-09   -2.056437e+00
    7.875669e+00    7.758843e+01    2.461292e+00    1.103848e+09    2.794870e-09    1.055216e-12    2.604961e-09   -2.051438e+00
    8.011866e+00    7.905338e+01    2.365452e+00    1.082861e+09    2.785448e-09    1.145180e-12    2.592668e-09   -2.046438e+00
    8.151243e+00    8.053750e+01    2.271778e+00    1.061738e+09    2.775827e-09    1.231422e-12    2.580117e-09   -2.041438e+00
    8.293833e+00    8.204025e+01    2.180276e+00    1.040481e+09    2.766003e-09    1.314027e-12    2.567302e-09   -2.036437e+00
    8.439657e+00    8.356098e+01    2.090951e+00    1.019093e+09    2.755975e-09    1.393079e-12    2.554220e-09   -2.031438e+00
    8.588735e+00    8.509898e+01    2.003808e+00    9.975766e+08    2.745739e-09    1.468659e-12    2.540867e-09   -2.026438e+00
    8.741072e+00    8.665342e+01    1.918851e+00    9.759383e+08    2.735292e-09    1.540845e-12    2.527239e-09   -2.021438e+00
    8.896669e+00    8.822333e+01    1.836081e+00    9.541823e+08    2.724632e-09    1.609712e-12    2.513334e-09   -2.016437e+00
    9.055514e+00    8.980773e+01    1.755501e+00    9.323159e+08    2.713758e-09    1.675335e-12    2.499148e-09   -2.011437e+00
    9.217586e+00    9.140542e+01    1.677111e+00    9.103466e+08    2.702666e-09    1.737783e-12    2.484678e-09   -2.006438e+00
    9.382851e+00    9.301515e+01    1.600911e+00    8.882826e+08    2.691355e-09    1.797128e-12    2.469922e-09   -2.001438e+00
    9.551257e+00    9.463548e+01    1.526899e+00    8.661336e+08    2.679823e-09    1.853434e-12    2.454876e-09   -1.996437e+00
    9.722746e+00    9.626495e+01    1.455072e+00    8.439108e+08    2.668068e-09    1.906770e-12    2.439538e-09   -1.991437e+00
    9.897241e+00    9.790190e+01    1.385425e+00    8.216266e+08    2.656089e-09    1.957198e-12    2.423906e-09   -1.986438e+00
    1.007465e+01    9.954456e+01    1.317951e+00    7.992940e+08    2.643884e-09    2.004780e-12    2.407979e-09   -1.981438e+00
    1.025485e+01    1.011910e+02    1.252643e+00    7.769280e+08    2.631453e-09    2.049577e-12    2.391753e-09   -1.976437e+00
    1.043772e+01    1.028392e+02    1.189491e+00    7.545452e+08    2.618794e-09    2.091648e-12    2.375227e-09   -1.971437e+00
    1.062310e+01    1.044871e+02    1.128483e+00    7.321628e+08    2.605907e-09    2.131051e-12    2.358402e-09   -1.966438e+00
