# sky130 pfet_01v8 gm/ID Processed Lookup Table
# Corner: sf
# Temperature: 75C
# W = 2.0 um
# L = 4.86 um (4860 nm)
# Columns: gm/id [1/V]  gm/gds [V/V]  id/W [A/m]  ft [Hz]  Cgg/W [F/m]  Cgd/W [F/m]  Cgs/W [F/m]  Vov [V]
#         gm/id          gm/gds            id/W              ft           Cgg/W           Cgd/W           Cgs/W             Vov
    1.997910e+00    4.412900e+00    3.372004e+00    3.860680e+07    2.777284e-08    2.793398e-09    2.537387e-08   -2.779403e+00
    2.017432e+00    4.557435e+00    3.338323e+00    3.867216e+07    2.771718e-08    2.717808e-09    2.537774e-08   -2.774403e+00
    2.037214e+00    4.709916e+00    3.304655e+00    3.873468e+07    2.766196e-08    2.643293e-09    2.538105e-08   -2.769403e+00
    2.057252e+00    4.870888e+00    3.271002e+00    3.879408e+07    2.760724e-08    2.569891e-09    2.538379e-08   -2.764403e+00
    2.077546e+00    5.040939e+00    3.237363e+00    3.885019e+07    2.755301e-08    2.497633e-09    2.538595e-08   -2.759403e+00
    2.098095e+00    5.220711e+00    3.203744e+00    3.890284e+07    2.749932e-08    2.426553e-09    2.538753e-08   -2.754403e+00
    2.118897e+00    5.410884e+00    3.170147e+00    3.895181e+07    2.744617e-08    2.356679e-09    2.538852e-08   -2.749403e+00
    2.139948e+00    5.612187e+00    3.136574e+00    3.899688e+07    2.739360e-08    2.288038e-09    2.538892e-08   -2.744403e+00
    2.161246e+00    5.825403e+00    3.103027e+00    3.903785e+07    2.734161e-08    2.220657e-09    2.538873e-08   -2.739403e+00
    2.182788e+00    6.051379e+00    3.069511e+00    3.907453e+07    2.729022e-08    2.154555e-09    2.538794e-08   -2.734403e+00
    2.204567e+00    6.291004e+00    3.036027e+00    3.910665e+07    2.723945e-08    2.089753e-09    2.538655e-08   -2.729403e+00
    2.226581e+00    6.545251e+00    3.002581e+00    3.913408e+07    2.718932e-08    2.026269e-09    2.538455e-08   -2.724403e+00
    2.248826e+00    6.815145e+00    2.969174e+00    3.915656e+07    2.713983e-08    1.964116e-09    2.538196e-08   -2.719403e+00
    2.271295e+00    7.101778e+00    2.935810e+00    3.917390e+07    2.709099e-08    1.903307e-09    2.537876e-08   -2.714403e+00
    2.293981e+00    7.406318e+00    2.902494e+00    3.918586e+07    2.704281e-08    1.843852e-09    2.537496e-08   -2.709403e+00
    2.316881e+00    7.730017e+00    2.869229e+00    3.919230e+07    2.699530e-08    1.785758e-09    2.537058e-08   -2.704403e+00
    2.339985e+00    8.074179e+00    2.836018e+00    3.919297e+07    2.694847e-08    1.729028e-09    2.536558e-08   -2.699403e+00
    2.363292e+00    8.440226e+00    2.802868e+00    3.918778e+07    2.690230e-08    1.673665e-09    2.536000e-08   -2.694403e+00
    2.386791e+00    8.829618e+00    2.769780e+00    3.917645e+07    2.685683e-08    1.619669e-09    2.535382e-08   -2.689403e+00
    2.410480e+00    9.243946e+00    2.736760e+00    3.915892e+07    2.681203e-08    1.567037e-09    2.534704e-08   -2.684403e+00
    2.434348e+00    9.684825e+00    2.703813e+00    3.913497e+07    2.676790e-08    1.515765e-09    2.533969e-08   -2.679403e+00
    2.458393e+00    1.015403e+01    2.670942e+00    3.910453e+07    2.672445e-08    1.465846e-09    2.533175e-08   -2.674403e+00
    2.482609e+00    1.065336e+01    2.638152e+00    3.906747e+07    2.668167e-08    1.417270e-09    2.532324e-08   -2.669403e+00
    2.506989e+00    1.118473e+01    2.605448e+00    3.902366e+07    2.663955e-08    1.370028e-09    2.531415e-08   -2.664403e+00
    2.531530e+00    1.175013e+01    2.572835e+00    3.897308e+07    2.659810e-08    1.324107e-09    2.530449e-08   -2.659403e+00
    2.556226e+00    1.235165e+01    2.540318e+00    3.891560e+07    2.655728e-08    1.279491e-09    2.529427e-08   -2.654403e+00
    2.581077e+00    1.299145e+01    2.507900e+00    3.885128e+07    2.651711e-08    1.236166e-09    2.528348e-08   -2.649403e+00
    2.606077e+00    1.367176e+01    2.475588e+00    3.878001e+07    2.647756e-08    1.194114e-09    2.527214e-08   -2.644403e+00
    2.631227e+00    1.439491e+01    2.443386e+00    3.870186e+07    2.643863e-08    1.153316e-09    2.526025e-08   -2.639403e+00
    2.656525e+00    1.516329e+01    2.411299e+00    3.861680e+07    2.640029e-08    1.113753e-09    2.524781e-08   -2.634403e+00
    2.681972e+00    1.597937e+01    2.379331e+00    3.852494e+07    2.636254e-08    1.075404e-09    2.523484e-08   -2.629403e+00
    2.707569e+00    1.684567e+01    2.347488e+00    3.842629e+07    2.632537e-08    1.038246e-09    2.522133e-08   -2.624403e+00
    2.733316e+00    1.776476e+01    2.315773e+00    3.832093e+07    2.628876e-08    1.002257e-09    2.520729e-08   -2.619403e+00
    2.759221e+00    1.873931e+01    2.284192e+00    3.820900e+07    2.625268e-08    9.674125e-10    2.519272e-08   -2.614403e+00
    2.785284e+00    1.977200e+01    2.252749e+00    3.809056e+07    2.621712e-08    9.336895e-10    2.517762e-08   -2.609403e+00
    2.811514e+00    2.086557e+01    2.221448e+00    3.796579e+07    2.618206e-08    9.010625e-10    2.516200e-08   -2.604403e+00
    2.837914e+00    2.202279e+01    2.190294e+00    3.783482e+07    2.614750e-08    8.695065e-10    2.514588e-08   -2.599403e+00
    2.864492e+00    2.324644e+01    2.159291e+00    3.769776e+07    2.611339e-08    8.389960e-10    2.512923e-08   -2.594403e+00
    2.891260e+00    2.453941e+01    2.128442e+00    3.755485e+07    2.607974e-08    8.095045e-10    2.511208e-08   -2.589403e+00
    2.918220e+00    2.590447e+01    2.097753e+00    3.740616e+07    2.604650e-08    7.810060e-10    2.509442e-08   -2.584403e+00
    2.945388e+00    2.734454e+01    2.067226e+00    3.725195e+07    2.601367e-08    7.534755e-10    2.507625e-08   -2.579403e+00
    2.972773e+00    2.886247e+01    2.036866e+00    3.709237e+07    2.598123e-08    7.268855e-10    2.505758e-08   -2.574403e+00
    3.000385e+00    3.046114e+01    2.006676e+00    3.692760e+07    2.594916e-08    7.012105e-10    2.503841e-08   -2.569403e+00
    3.028238e+00    3.214344e+01    1.976660e+00    3.675786e+07    2.591742e-08    6.764245e-10    2.501873e-08   -2.564403e+00
    3.056342e+00    3.391219e+01    1.946819e+00    3.658328e+07    2.588601e-08    6.525020e-10    2.499856e-08   -2.559403e+00
    3.084710e+00    3.577028e+01    1.917159e+00    3.640408e+07    2.585489e-08    6.294165e-10    2.497789e-08   -2.554403e+00
    3.113359e+00    3.772057e+01    1.887682e+00    3.622044e+07    2.582405e-08    6.071435e-10    2.495671e-08   -2.549403e+00
    3.142301e+00    3.976586e+01    1.858390e+00    3.603255e+07    2.579347e-08    5.856580e-10    2.493504e-08   -2.544403e+00
    3.171552e+00    4.190899e+01    1.829286e+00    3.584059e+07    2.576312e-08    5.649345e-10    2.491286e-08   -2.539403e+00
    3.201122e+00    4.415270e+01    1.800374e+00    3.564469e+07    2.573298e-08    5.449500e-10    2.489018e-08   -2.534403e+00
    3.231033e+00    4.649984e+01    1.771655e+00    3.544511e+07    2.570303e-08    5.256795e-10    2.486699e-08   -2.529403e+00
    3.261294e+00    4.895308e+01    1.743132e+00    3.524191e+07    2.567325e-08    5.071005e-10    2.484329e-08   -2.524403e+00
    3.291925e+00    5.151518e+01    1.714807e+00    3.503531e+07    2.564362e-08    4.891900e-10    2.481908e-08   -2.519403e+00
    3.322941e+00    5.418883e+01    1.686682e+00    3.482545e+07    2.561411e-08    4.719253e-10    2.479436e-08   -2.514403e+00
    3.354358e+00    5.697671e+01    1.658760e+00    3.461248e+07    2.558470e-08    4.552846e-10    2.476911e-08   -2.509403e+00
    3.386194e+00    5.988152e+01    1.631042e+00    3.439655e+07    2.555537e-08    4.392466e-10    2.474334e-08   -2.504403e+00
    3.418466e+00    6.290591e+01    1.603531e+00    3.417779e+07    2.552611e-08    4.237904e-10    2.471704e-08   -2.499403e+00
    3.451189e+00    6.605237e+01    1.576227e+00    3.395631e+07    2.549687e-08    4.088959e-10    2.469020e-08   -2.494403e+00
    3.484382e+00    6.932367e+01    1.549133e+00    3.373226e+07    2.546766e-08    3.945432e-10    2.466282e-08   -2.489403e+00
    3.518063e+00    7.272237e+01    1.522250e+00    3.350573e+07    2.543844e-08    3.807132e-10    2.463489e-08   -2.484403e+00
    3.552250e+00    7.625094e+01    1.495579e+00    3.327685e+07    2.540919e-08    3.673872e-10    2.460640e-08   -2.479403e+00
    3.586960e+00    7.991212e+01    1.469123e+00    3.304570e+07    2.537990e-08    3.545471e-10    2.457735e-08   -2.474403e+00
    3.622215e+00    8.370846e+01    1.442883e+00    3.281242e+07    2.535053e-08    3.421754e-10    2.454773e-08   -2.469403e+00
    3.658032e+00    8.764251e+01    1.416859e+00    3.257709e+07    2.532106e-08    3.302552e-10    2.451752e-08   -2.464403e+00
    3.694425e+00    9.171673e+01    1.391054e+00    3.233975e+07    2.529149e-08    3.187698e-10    2.448672e-08   -2.459403e+00
    3.731424e+00    9.593398e+01    1.365468e+00    3.210054e+07    2.526178e-08    3.077035e-10    2.445532e-08   -2.454403e+00
    3.769042e+00    1.002967e+02    1.340103e+00    3.185952e+07    2.523191e-08    2.970407e-10    2.442331e-08   -2.449403e+00
    3.807304e+00    1.048075e+02    1.314960e+00    3.161676e+07    2.520187e-08    2.867665e-10    2.439067e-08   -2.444403e+00
    3.846228e+00    1.094692e+02    1.290039e+00    3.137233e+07    2.517162e-08    2.768666e-10    2.435740e-08   -2.439403e+00
    3.885837e+00    1.142843e+02    1.265342e+00    3.112629e+07    2.514116e-08    2.673270e-10    2.432348e-08   -2.434403e+00
    3.926153e+00    1.192556e+02    1.240870e+00    3.087870e+07    2.511046e-08    2.581343e-10    2.428890e-08   -2.429403e+00
    3.967197e+00    1.243859e+02    1.216624e+00    3.062962e+07    2.507949e-08    2.492755e-10    2.425365e-08   -2.424403e+00
    4.008994e+00    1.296779e+02    1.192605e+00    3.037910e+07    2.504823e-08    2.407381e-10    2.421771e-08   -2.419403e+00
    4.051568e+00    1.351344e+02    1.168813e+00    3.012718e+07    2.501668e-08    2.325100e-10    2.418107e-08   -2.414403e+00
    4.094940e+00    1.407584e+02    1.145250e+00    2.987392e+07    2.498479e-08    2.245797e-10    2.414371e-08   -2.409403e+00
    4.139139e+00    1.465528e+02    1.121916e+00    2.961934e+07    2.495255e-08    2.169359e-10    2.410562e-08   -2.404403e+00
    4.184188e+00    1.525206e+02    1.098812e+00    2.936349e+07    2.491994e-08    2.095678e-10    2.406678e-08   -2.399403e+00
    4.230115e+00    1.586648e+02    1.075940e+00    2.910640e+07    2.488695e-08    2.024650e-10    2.402718e-08   -2.394403e+00
    4.276945e+00    1.649887e+02    1.053299e+00    2.884810e+07    2.485354e-08    1.956175e-10    2.398679e-08   -2.389403e+00
    4.324706e+00    1.714953e+02    1.030891e+00    2.858862e+07    2.481968e-08    1.890157e-10    2.394560e-08   -2.384403e+00
    4.373430e+00    1.781880e+02    1.008716e+00    2.832798e+07    2.478538e-08    1.826503e-10    2.390360e-08   -2.379403e+00
    4.423142e+00    1.850702e+02    9.867755e-01    2.806621e+07    2.475060e-08    1.765124e-10    2.386076e-08   -2.374403e+00
    4.473873e+00    1.921452e+02    9.650700e-01    2.780332e+07    2.471531e-08    1.705933e-10    2.381707e-08   -2.369403e+00
    4.525655e+00    1.994166e+02    9.436000e-01    2.753933e+07    2.467949e-08    1.648849e-10    2.377249e-08   -2.364403e+00
    4.578521e+00    2.068881e+02    9.223660e-01    2.727425e+07    2.464313e-08    1.593792e-10    2.372702e-08   -2.359403e+00
    4.632500e+00    2.145632e+02    9.013695e-01    2.700810e+07    2.460620e-08    1.540685e-10    2.368064e-08   -2.354403e+00
    4.687629e+00    2.224459e+02    8.806105e-01    2.674088e+07    2.456867e-08    1.489456e-10    2.363331e-08   -2.349403e+00
    4.743942e+00    2.305399e+02    8.600900e-01    2.647260e+07    2.453053e-08    1.440033e-10    2.358503e-08   -2.344403e+00
    4.801474e+00    2.388493e+02    8.398085e-01    2.620326e+07    2.449174e-08    1.392348e-10    2.353576e-08   -2.339403e+00
    4.860262e+00    2.473782e+02    8.197670e-01    2.593287e+07    2.445230e-08    1.346337e-10    2.348548e-08   -2.334403e+00
    4.920342e+00    2.561307e+02    7.999660e-01    2.566142e+07    2.441216e-08    1.301937e-10    2.343417e-08   -2.329403e+00
    4.981756e+00    2.651110e+02    7.804060e-01    2.538892e+07    2.437132e-08    1.259087e-10    2.338181e-08   -2.324403e+00
    5.044542e+00    2.743236e+02    7.610880e-01    2.511535e+07    2.432974e-08    1.217729e-10    2.332837e-08   -2.319403e+00
    5.108737e+00    2.837728e+02    7.420130e-01    2.484072e+07    2.428740e-08    1.177809e-10    2.327382e-08   -2.314403e+00
    5.174389e+00    2.934633e+02    7.231810e-01    2.456501e+07    2.424428e-08    1.139271e-10    2.321815e-08   -2.309403e+00
    5.241538e+00    3.033994e+02    7.045930e-01    2.428821e+07    2.420035e-08    1.102066e-10    2.316131e-08   -2.304403e+00
    5.310230e+00    3.135862e+02    6.862495e-01    2.401031e+07    2.415559e-08    1.066144e-10    2.310330e-08   -2.299403e+00
    5.380507e+00    3.240280e+02    6.681515e-01    2.373130e+07    2.410997e-08    1.031456e-10    2.304406e-08   -2.294403e+00
    5.452413e+00    3.347298e+02    6.503000e-01    2.345116e+07    2.406347e-08    9.979580e-11    2.298360e-08   -2.289403e+00
    5.526001e+00    3.456964e+02    6.326950e-01    2.316988e+07    2.401606e-08    9.656060e-11    2.292187e-08   -2.284403e+00
    5.601316e+00    3.569328e+02    6.153375e-01    2.288743e+07    2.396772e-08    9.343580e-11    2.285884e-08   -2.279403e+00
    5.678410e+00    3.684436e+02    5.982280e-01    2.260379e+07    2.391841e-08    9.041725e-11    2.279448e-08   -2.274403e+00
    5.757326e+00    3.802341e+02    5.813680e-01    2.231895e+07    2.386813e-08    8.750120e-11    2.272878e-08   -2.269403e+00
    5.838126e+00    3.923089e+02    5.647570e-01    2.203288e+07    2.381683e-08    8.468380e-11    2.266169e-08   -2.264403e+00
    5.920849e+00    4.046729e+02    5.483970e-01    2.174556e+07    2.376449e-08    8.196155e-11    2.259318e-08   -2.259403e+00
    6.005561e+00    4.173311e+02    5.322875e-01    2.145697e+07    2.371110e-08    7.933090e-11    2.252324e-08   -2.254403e+00
    6.092306e+00    4.302878e+02    5.164300e-01    2.116707e+07    2.365661e-08    7.678865e-11    2.245181e-08   -2.249403e+00
    6.181134e+00    4.435479e+02    5.008255e-01    2.087585e+07    2.360101e-08    7.433150e-11    2.237889e-08   -2.244403e+00
    6.272113e+00    4.571160e+02    4.854738e-01    2.058328e+07    2.354427e-08    7.195645e-11    2.230442e-08   -2.239403e+00
    6.365287e+00    4.709963e+02    4.703761e-01    2.028933e+07    2.348636e-08    6.966055e-11    2.222839e-08   -2.234403e+00
    6.460715e+00    4.851923e+02    4.555331e-01    1.999398e+07    2.342726e-08    6.744095e-11    2.215075e-08   -2.229403e+00
    6.558449e+00    4.997088e+02    4.409457e-01    1.969721e+07    2.336693e-08    6.529495e-11    2.207149e-08   -2.224403e+00
    6.658547e+00    5.145482e+02    4.266142e-01    1.939899e+07    2.330536e-08    6.321995e-11    2.199056e-08   -2.219403e+00
    6.761060e+00    5.297146e+02    4.125396e-01    1.909929e+07    2.324252e-08    6.121335e-11    2.190794e-08   -2.214403e+00
    6.866043e+00    5.452097e+02    3.987224e-01    1.879811e+07    2.317838e-08    5.927280e-11    2.182360e-08   -2.209403e+00
    6.973548e+00    5.610366e+02    3.851634e-01    1.849541e+07    2.311292e-08    5.739595e-11    2.173749e-08   -2.204403e+00
    7.083627e+00    5.771964e+02    3.718631e-01    1.819119e+07    2.304611e-08    5.558060e-11    2.164960e-08   -2.199403e+00
    7.196327e+00    5.936902e+02    3.588222e-01    1.788543e+07    2.297793e-08    5.382450e-11    2.155987e-08   -2.194403e+00
    7.311700e+00    6.105186e+02    3.460412e-01    1.757813e+07    2.290834e-08    5.212570e-11    2.146831e-08   -2.189403e+00
    7.429786e+00    6.276806e+02    3.335209e-01    1.726927e+07    2.283733e-08    5.048210e-11    2.137485e-08   -2.184403e+00
    7.550632e+00    6.451753e+02    3.212615e-01    1.695887e+07    2.276487e-08    4.889187e-11    2.127948e-08   -2.179403e+00
    7.674274e+00    6.630001e+02    3.092637e-01    1.664691e+07    2.269095e-08    4.735311e-11    2.118217e-08   -2.174403e+00
    7.800749e+00    6.811518e+02    2.975279e-01    1.633343e+07    2.261553e-08    4.586405e-11    2.108288e-08   -2.169403e+00
    7.930086e+00    6.996254e+02    2.860544e-01    1.601843e+07    2.253860e-08    4.442300e-11    2.098159e-08   -2.164403e+00
    8.062309e+00    7.184152e+02    2.748436e-01    1.570194e+07    2.246012e-08    4.302831e-11    2.087826e-08   -2.159403e+00
    8.197443e+00    7.375141e+02    2.638958e-01    1.538400e+07    2.238008e-08    4.167838e-11    2.077287e-08   -2.154403e+00
    8.335497e+00    7.569129e+02    2.532109e-01    1.506465e+07    2.229847e-08    4.037170e-11    2.066541e-08   -2.149403e+00
    8.476476e+00    7.766010e+02    2.427894e-01    1.474395e+07    2.221525e-08    3.910680e-11    2.055583e-08   -2.144403e+00
    8.620381e+00    7.965666e+02    2.326310e-01    1.442197e+07    2.213042e-08    3.788226e-11    2.044410e-08   -2.139403e+00
    8.767198e+00    8.167949e+02    2.227357e-01    1.409877e+07    2.204395e-08    3.669673e-11    2.033023e-08   -2.134403e+00
    8.916910e+00    8.372702e+02    2.131032e-01    1.377447e+07    2.195582e-08    3.554888e-11    2.021416e-08   -2.129403e+00
    9.069482e+00    8.579740e+02    2.037333e-01    1.344915e+07    2.186603e-08    3.443747e-11    2.009589e-08   -2.124403e+00
    9.224875e+00    8.788856e+02    1.946255e-01    1.312293e+07    2.177455e-08    3.336126e-11    1.997540e-08   -2.119403e+00
    9.383031e+00    8.999820e+02    1.857791e-01    1.279597e+07    2.168138e-08    3.231909e-11    1.985266e-08   -2.114403e+00
    9.543883e+00    9.212383e+02    1.771935e-01    1.246840e+07    2.158651e-08    3.130983e-11    1.972766e-08   -2.109403e+00
    9.707348e+00    9.426261e+02    1.688677e-01    1.214039e+07    2.148991e-08    3.033239e-11    1.960038e-08   -2.104403e+00
    9.873331e+00    9.641152e+02    1.608005e-01    1.181213e+07    2.139159e-08    2.938571e-11    1.947081e-08   -2.099403e+00
    1.004171e+01    9.856720e+02    1.529909e-01    1.148382e+07    2.129153e-08    2.846879e-11    1.933894e-08   -2.094403e+00
    1.021236e+01    1.007262e+03    1.454371e-01    1.115568e+07    2.118973e-08    2.758065e-11    1.920477e-08   -2.089403e+00
    1.038514e+01    1.028845e+03    1.381377e-01    1.082795e+07    2.108620e-08    2.672035e-11    1.906827e-08   -2.084403e+00
    1.055988e+01    1.050382e+03    1.310907e-01    1.050090e+07    2.098091e-08    2.588697e-11    1.892944e-08   -2.079403e+00
    1.073639e+01    1.071830e+03    1.242939e-01    1.017478e+07    2.087389e-08    2.507965e-11    1.878830e-08   -2.074403e+00
    1.091448e+01    1.093141e+03    1.177452e-01    9.849897e+06    2.076511e-08    2.429754e-11    1.864483e-08   -2.069403e+00
    1.109391e+01    1.114269e+03    1.114418e-01    9.526549e+06    2.065461e-08    2.353982e-11    1.849904e-08   -2.064403e+00
    1.127446e+01    1.135164e+03    1.053809e-01    9.205075e+06    2.054237e-08    2.280572e-11    1.835092e-08   -2.059403e+00
    1.145586e+01    1.155774e+03    9.955955e-02    8.885795e+06    2.042841e-08    2.209446e-11    1.820049e-08   -2.054403e+00
    1.163785e+01    1.176048e+03    9.397435e-02    8.569071e+06    2.031274e-08    2.140532e-11    1.804777e-08   -2.049403e+00
    1.182012e+01    1.195930e+03    8.862175e-02    8.255254e+06    2.019537e-08    2.073758e-11    1.789276e-08   -2.044403e+00
    1.200238e+01    1.215367e+03    8.349785e-02    7.944722e+06    2.007632e-08    2.009058e-11    1.773547e-08   -2.039403e+00
    1.218430e+01    1.234305e+03    7.859860e-02    7.637842e+06    1.995560e-08    1.946365e-11    1.757594e-08   -2.034403e+00
    1.236556e+01    1.252690e+03    7.391965e-02    7.334994e+06    1.983325e-08    1.885614e-11    1.741417e-08   -2.029403e+00
    1.254580e+01    1.270469e+03    6.945645e-02    7.036559e+06    1.970927e-08    1.826746e-11    1.725021e-08   -2.024403e+00
