# sky130 pfet_01v8 gm/ID Processed Lookup Table
# Corner: sf
# Temperature: 75C
# W = 2.0 um
# L = 2.7 um (2700 nm)
# Columns: gm/id [1/V]  gm/gds [V/V]  id/W [A/m]  ft [Hz]  Cgg/W [F/m]  Cgd/W [F/m]  Cgs/W [F/m]  Vov [V]
#         gm/id          gm/gds            id/W              ft           Cgg/W           Cgd/W           Cgs/W             Vov
    1.945700e+00    3.939193e+00    6.003400e+00    1.192855e+08    1.558495e-08    1.480603e-09    1.415879e-08   -2.774674e+00
    1.964793e+00    4.057323e+00    5.944995e+00    1.195091e+08    1.555562e-08    1.440255e-09    1.416098e-08   -2.769674e+00
    1.984148e+00    4.181446e+00    5.886595e+00    1.197246e+08    1.552656e-08    1.400523e-09    1.416285e-08   -2.764674e+00
    2.003766e+00    4.311945e+00    5.828200e+00    1.199313e+08    1.549777e-08    1.361423e-09    1.416440e-08   -2.759674e+00
    2.023647e+00    4.449232e+00    5.769815e+00    1.201287e+08    1.546928e-08    1.322974e-09    1.416563e-08   -2.754674e+00
    2.043792e+00    4.593743e+00    5.711440e+00    1.203163e+08    1.544108e-08    1.285187e-09    1.416654e-08   -2.749674e+00
    2.064199e+00    4.745950e+00    5.653085e+00    1.204936e+08    1.541321e-08    1.248077e-09    1.416711e-08   -2.744674e+00
    2.084866e+00    4.906347e+00    5.594750e+00    1.206600e+08    1.538565e-08    1.211655e-09    1.416736e-08   -2.739674e+00
    2.105791e+00    5.075466e+00    5.536445e+00    1.208147e+08    1.535842e-08    1.175932e-09    1.416728e-08   -2.734674e+00
    2.126975e+00    5.253876e+00    5.478165e+00    1.209574e+08    1.533152e-08    1.140918e-09    1.416687e-08   -2.729674e+00
    2.148413e+00    5.442176e+00    5.419925e+00    1.210873e+08    1.530497e-08    1.106620e-09    1.416613e-08   -2.724674e+00
    2.170101e+00    5.641001e+00    5.361725e+00    1.212038e+08    1.527877e-08    1.073045e-09    1.416506e-08   -2.719674e+00
    2.192039e+00    5.851032e+00    5.303570e+00    1.213065e+08    1.525291e-08    1.040199e-09    1.416366e-08   -2.714674e+00
    2.214219e+00    6.072986e+00    5.245470e+00    1.213945e+08    1.522742e-08    1.008085e-09    1.416193e-08   -2.709674e+00
    2.236637e+00    6.307613e+00    5.187430e+00    1.214673e+08    1.520228e-08    9.767065e-10    1.415987e-08   -2.704674e+00
    2.259294e+00    6.555721e+00    5.129450e+00    1.215244e+08    1.517750e-08    9.460650e-10    1.415747e-08   -2.699674e+00
    2.282181e+00    6.818149e+00    5.071540e+00    1.215651e+08    1.515308e-08    9.161600e-10    1.415476e-08   -2.694674e+00
    2.305292e+00    7.095781e+00    5.013710e+00    1.215890e+08    1.512903e-08    8.869910e-10    1.415172e-08   -2.689674e+00
    2.328622e+00    7.389542e+00    4.955963e+00    1.215954e+08    1.510533e-08    8.585565e-10    1.414835e-08   -2.684674e+00
    2.352168e+00    7.700409e+00    4.898306e+00    1.215838e+08    1.508200e-08    8.308525e-10    1.414467e-08   -2.679674e+00
    2.375923e+00    8.029392e+00    4.840749e+00    1.215537e+08    1.505903e-08    8.038750e-10    1.414067e-08   -2.674674e+00
    2.399881e+00    8.377548e+00    4.783297e+00    1.215047e+08    1.503640e-08    7.776185e-10    1.413635e-08   -2.669674e+00
    2.424036e+00    8.745972e+00    4.725957e+00    1.214363e+08    1.501414e-08    7.520770e-10    1.413172e-08   -2.664674e+00
    2.448383e+00    9.135797e+00    4.668740e+00    1.213481e+08    1.499223e-08    7.272435e-10    1.412677e-08   -2.659674e+00
    2.472920e+00    9.548207e+00    4.611652e+00    1.212400e+08    1.497065e-08    7.031095e-10    1.412151e-08   -2.654674e+00
    2.497640e+00    9.984399e+00    4.554701e+00    1.211115e+08    1.494942e-08    6.796665e-10    1.411596e-08   -2.649674e+00
    2.522538e+00    1.044561e+01    4.497895e+00    1.209625e+08    1.492851e-08    6.569045e-10    1.411010e-08   -2.644674e+00
    2.547613e+00    1.093313e+01    4.441242e+00    1.207926e+08    1.490793e-08    6.348145e-10    1.410394e-08   -2.639674e+00
    2.572861e+00    1.144823e+01    4.384752e+00    1.206020e+08    1.488767e-08    6.133845e-10    1.409747e-08   -2.634674e+00
    2.598280e+00    1.199224e+01    4.328432e+00    1.203904e+08    1.486773e-08    5.926035e-10    1.409072e-08   -2.629674e+00
    2.623868e+00    1.256649e+01    4.272290e+00    1.201579e+08    1.484808e-08    5.724600e-10    1.408367e-08   -2.624674e+00
    2.649626e+00    1.317233e+01    4.216335e+00    1.199046e+08    1.482873e-08    5.529415e-10    1.407634e-08   -2.619674e+00
    2.675553e+00    1.381112e+01    4.160576e+00    1.196304e+08    1.480967e-08    5.340355e-10    1.406872e-08   -2.614674e+00
    2.701653e+00    1.448424e+01    4.105019e+00    1.193358e+08    1.479088e-08    5.157285e-10    1.406082e-08   -2.609674e+00
    2.727925e+00    1.519304e+01    4.049675e+00    1.190208e+08    1.477236e-08    4.980082e-10    1.405263e-08   -2.604674e+00
    2.754374e+00    1.593889e+01    3.994550e+00    1.186856e+08    1.475410e-08    4.808607e-10    1.404416e-08   -2.599674e+00
    2.781004e+00    1.672314e+01    3.939652e+00    1.183307e+08    1.473609e-08    4.642722e-10    1.403541e-08   -2.594674e+00
    2.807820e+00    1.754715e+01    3.884991e+00    1.179564e+08    1.471831e-08    4.482293e-10    1.402640e-08   -2.589674e+00
    2.834829e+00    1.841226e+01    3.830572e+00    1.175630e+08    1.470076e-08    4.327181e-10    1.401710e-08   -2.584674e+00
    2.862036e+00    1.931976e+01    3.776403e+00    1.171510e+08    1.468342e-08    4.177248e-10    1.400754e-08   -2.579674e+00
    2.889450e+00    2.027100e+01    3.722492e+00    1.167209e+08    1.466630e-08    4.032355e-10    1.399770e-08   -2.574674e+00
    2.917081e+00    2.126721e+01    3.668845e+00    1.162731e+08    1.464937e-08    3.892364e-10    1.398759e-08   -2.569674e+00
    2.944937e+00    2.230966e+01    3.615471e+00    1.158081e+08    1.463261e-08    3.757139e-10    1.397721e-08   -2.564674e+00
    2.973028e+00    2.339958e+01    3.562374e+00    1.153265e+08    1.461603e-08    3.626543e-10    1.396656e-08   -2.559674e+00
    3.001366e+00    2.453816e+01    3.509563e+00    1.148287e+08    1.459962e-08    3.500440e-10    1.395564e-08   -2.554674e+00
    3.029961e+00    2.572659e+01    3.457041e+00    1.143153e+08    1.458336e-08    3.378696e-10    1.394446e-08   -2.549674e+00
    3.058826e+00    2.696601e+01    3.404818e+00    1.137868e+08    1.456723e-08    3.261181e-10    1.393300e-08   -2.544674e+00
    3.087974e+00    2.825755e+01    3.352896e+00    1.132437e+08    1.455123e-08    3.147763e-10    1.392128e-08   -2.539674e+00
    3.117417e+00    2.960229e+01    3.301283e+00    1.126866e+08    1.453535e-08    3.038315e-10    1.390928e-08   -2.534674e+00
    3.147170e+00    3.100132e+01    3.249983e+00    1.121160e+08    1.451957e-08    2.932710e-10    1.389702e-08   -2.529674e+00
    3.177247e+00    3.245567e+01    3.199002e+00    1.115325e+08    1.450389e-08    2.830826e-10    1.388449e-08   -2.524674e+00
    3.207662e+00    3.396638e+01    3.148345e+00    1.109364e+08    1.448829e-08    2.732541e-10    1.387168e-08   -2.519674e+00
    3.238431e+00    3.553446e+01    3.098016e+00    1.103284e+08    1.447276e-08    2.637738e-10    1.385859e-08   -2.514674e+00
    3.269568e+00    3.716090e+01    3.048019e+00    1.097088e+08    1.445728e-08    2.546300e-10    1.384523e-08   -2.509674e+00
    3.301090e+00    3.884667e+01    2.998360e+00    1.090782e+08    1.444186e-08    2.458114e-10    1.383159e-08   -2.504674e+00
    3.333012e+00    4.059274e+01    2.949041e+00    1.084371e+08    1.442647e-08    2.373070e-10    1.381767e-08   -2.499674e+00
    3.365351e+00    4.240008e+01    2.900069e+00    1.077858e+08    1.441111e-08    2.291060e-10    1.380347e-08   -2.494674e+00
    3.398122e+00    4.426962e+01    2.851446e+00    1.071247e+08    1.439576e-08    2.211980e-10    1.378898e-08   -2.489674e+00
    3.431345e+00    4.620235e+01    2.803174e+00    1.064543e+08    1.438042e-08    2.135728e-10    1.377419e-08   -2.484674e+00
    3.465036e+00    4.819920e+01    2.755260e+00    1.057749e+08    1.436507e-08    2.062206e-10    1.375911e-08   -2.479674e+00
    3.499212e+00    5.026114e+01    2.707705e+00    1.050870e+08    1.434970e-08    1.991316e-10    1.374374e-08   -2.474674e+00
    3.533892e+00    5.238911e+01    2.660512e+00    1.043908e+08    1.433430e-08    1.922966e-10    1.372806e-08   -2.469674e+00
    3.569093e+00    5.458411e+01    2.613687e+00    1.036867e+08    1.431886e-08    1.857066e-10    1.371207e-08   -2.464674e+00
    3.604835e+00    5.684715e+01    2.567228e+00    1.029750e+08    1.430336e-08    1.793527e-10    1.369578e-08   -2.459674e+00
    3.641136e+00    5.917922e+01    2.521143e+00    1.022561e+08    1.428780e-08    1.732265e-10    1.367916e-08   -2.454674e+00
    3.678019e+00    6.158143e+01    2.475432e+00    1.015302e+08    1.427217e-08    1.673196e-10    1.366223e-08   -2.449674e+00
    3.715500e+00    6.405474e+01    2.430097e+00    1.007975e+08    1.425644e-08    1.616244e-10    1.364496e-08   -2.444674e+00
    3.753600e+00    6.660031e+01    2.385142e+00    1.000584e+08    1.424062e-08    1.561329e-10    1.362736e-08   -2.439674e+00
    3.792341e+00    6.921923e+01    2.340569e+00    9.931293e+07    1.422470e-08    1.508379e-10    1.360942e-08   -2.434674e+00
    3.831743e+00    7.191269e+01    2.296381e+00    9.856152e+07    1.420865e-08    1.457319e-10    1.359114e-08   -2.429674e+00
    3.871830e+00    7.468191e+01    2.252579e+00    9.780435e+07    1.419247e-08    1.408083e-10    1.357249e-08   -2.424674e+00
    3.912623e+00    7.752809e+01    2.209165e+00    9.704158e+07    1.417616e-08    1.360601e-10    1.355350e-08   -2.419674e+00
    3.954144e+00    8.045255e+01    2.166142e+00    9.627335e+07    1.415968e-08    1.314811e-10    1.353413e-08   -2.414674e+00
    3.996417e+00    8.345658e+01    2.123514e+00    9.549992e+07    1.414305e-08    1.270649e-10    1.351438e-08   -2.409674e+00
    4.039466e+00    8.654158e+01    2.081279e+00    9.472136e+07    1.412624e-08    1.228055e-10    1.349425e-08   -2.404674e+00
    4.083316e+00    8.970903e+01    2.039442e+00    9.393796e+07    1.410923e-08    1.186971e-10    1.347373e-08   -2.399674e+00
    4.127993e+00    9.296041e+01    1.998003e+00    9.314972e+07    1.409203e-08    1.147342e-10    1.345281e-08   -2.394674e+00
    4.173522e+00    9.629729e+01    1.956965e+00    9.235686e+07    1.407462e-08    1.109114e-10    1.343147e-08   -2.389674e+00
    4.219930e+00    9.972125e+01    1.916329e+00    9.155945e+07    1.405699e-08    1.072234e-10    1.340972e-08   -2.384674e+00
    4.267244e+00    1.032340e+02    1.876097e+00    9.075762e+07    1.403912e-08    1.036652e-10    1.338754e-08   -2.379674e+00
    4.315491e+00    1.068372e+02    1.836272e+00    8.995142e+07    1.402101e-08    1.002321e-10    1.336491e-08   -2.374674e+00
    4.364704e+00    1.105328e+02    1.796854e+00    8.914105e+07    1.400264e-08    9.691945e-11    1.334184e-08   -2.369674e+00
    4.414911e+00    1.143226e+02    1.757845e+00    8.832655e+07    1.398400e-08    9.372275e-11    1.331831e-08   -2.364674e+00
    4.466141e+00    1.182087e+02    1.719247e+00    8.750794e+07    1.396508e-08    9.063770e-11    1.329431e-08   -2.359674e+00
    4.518428e+00    1.221930e+02    1.681061e+00    8.668530e+07    1.394587e-08    8.766015e-11    1.326983e-08   -2.354674e+00
    4.571801e+00    1.262776e+02    1.643290e+00    8.585871e+07    1.392635e-08    8.478615e-11    1.324485e-08   -2.349674e+00
    4.626295e+00    1.304647e+02    1.605934e+00    8.502818e+07    1.390652e-08    8.201190e-11    1.321937e-08   -2.344674e+00
    4.681948e+00    1.347568e+02    1.568995e+00    8.419383e+07    1.388635e-08    7.933365e-11    1.319337e-08   -2.339674e+00
    4.738792e+00    1.391559e+02    1.532475e+00    8.335564e+07    1.386584e-08    7.674795e-11    1.316685e-08   -2.334674e+00
    4.796862e+00    1.436646e+02    1.496375e+00    8.251362e+07    1.384497e-08    7.425130e-11    1.313977e-08   -2.329674e+00
    4.856197e+00    1.482855e+02    1.460697e+00    8.166780e+07    1.382374e-08    7.184050e-11    1.311215e-08   -2.324674e+00
    4.916835e+00    1.530211e+02    1.425442e+00    8.081820e+07    1.380213e-08    6.951235e-11    1.308396e-08   -2.319674e+00
    4.978820e+00    1.578742e+02    1.390611e+00    7.996485e+07    1.378012e-08    6.726380e-11    1.305519e-08   -2.314674e+00
    5.042184e+00    1.628474e+02    1.356206e+00    7.910765e+07    1.375771e-08    6.509200e-11    1.302582e-08   -2.309674e+00
    5.106977e+00    1.679438e+02    1.322229e+00    7.824672e+07    1.373487e-08    6.299415e-11    1.299584e-08   -2.304674e+00
    5.173237e+00    1.731662e+02    1.288681e+00    7.738197e+07    1.371160e-08    6.096750e-11    1.296523e-08   -2.299674e+00
    5.241013e+00    1.785178e+02    1.255563e+00    7.651341e+07    1.368788e-08    5.900945e-11    1.293399e-08   -2.294674e+00
    5.310344e+00    1.840016e+02    1.222877e+00    7.564097e+07    1.366370e-08    5.711755e-11    1.290209e-08   -2.289674e+00
    5.381279e+00    1.896207e+02    1.190624e+00    7.476462e+07    1.363905e-08    5.528945e-11    1.286952e-08   -2.284674e+00
    5.453861e+00    1.953785e+02    1.158807e+00    7.388432e+07    1.361391e-08    5.352270e-11    1.283627e-08   -2.279674e+00
    5.528150e+00    2.012785e+02    1.127425e+00    7.300013e+07    1.358827e-08    5.181525e-11    1.280231e-08   -2.274674e+00
    5.604187e+00    2.073240e+02    1.096481e+00    7.211188e+07    1.356211e-08    5.016485e-11    1.276764e-08   -2.269674e+00
    5.682020e+00    2.135183e+02    1.065976e+00    7.121953e+07    1.353541e-08    4.856950e-11    1.273223e-08   -2.264674e+00
    5.761708e+00    2.198653e+02    1.035913e+00    7.032306e+07    1.350818e-08    4.702722e-11    1.269608e-08   -2.259674e+00
    5.843300e+00    2.263686e+02    1.006291e+00    6.942242e+07    1.348038e-08    4.553612e-11    1.265916e-08   -2.254674e+00
    5.926851e+00    2.330317e+02    9.771125e-01    6.851750e+07    1.345201e-08    4.409437e-11    1.262145e-08   -2.249674e+00
    6.012409e+00    2.398583e+02    9.483795e-01    6.760823e+07    1.342305e-08    4.270021e-11    1.258294e-08   -2.244674e+00
    6.100039e+00    2.468522e+02    9.200925e-01    6.669457e+07    1.339349e-08    4.135198e-11    1.254362e-08   -2.239674e+00
    6.189794e+00    2.540173e+02    8.922535e-01    6.577646e+07    1.336331e-08    4.004803e-11    1.250346e-08   -2.234674e+00
    6.281730e+00    2.613574e+02    8.648645e-01    6.485386e+07    1.333250e-08    3.878681e-11    1.246245e-08   -2.229674e+00
    6.375897e+00    2.688759e+02    8.379260e-01    6.392658e+07    1.330104e-08    3.756682e-11    1.242056e-08   -2.224674e+00
    6.472362e+00    2.765766e+02    8.114395e-01    6.299462e+07    1.326892e-08    3.638661e-11    1.237779e-08   -2.219674e+00
    6.571179e+00    2.844634e+02    7.854070e-01    6.205794e+07    1.323613e-08    3.524480e-11    1.233410e-08   -2.214674e+00
    6.672405e+00    2.925399e+02    7.598295e-01    6.111642e+07    1.320264e-08    3.414003e-11    1.228950e-08   -2.209674e+00
    6.776091e+00    3.008092e+02    7.347085e-01    6.016999e+07    1.316845e-08    3.307104e-11    1.224394e-08   -2.204674e+00
    6.882301e+00    3.092749e+02    7.100455e-01    5.921862e+07    1.313353e-08    3.203659e-11    1.219743e-08   -2.199674e+00
    6.991089e+00    3.179405e+02    6.858415e-01    5.826227e+07    1.309789e-08    3.103547e-11    1.214994e-08   -2.194674e+00
    7.102508e+00    3.268088e+02    6.620980e-01    5.730090e+07    1.306149e-08    3.006654e-11    1.210145e-08   -2.189674e+00
    7.216608e+00    3.358825e+02    6.388165e-01    5.633442e+07    1.302434e-08    2.912870e-11    1.205194e-08   -2.184674e+00
    7.333447e+00    3.451643e+02    6.159975e-01    5.536287e+07    1.298640e-08    2.822088e-11    1.200140e-08   -2.179674e+00
    7.453064e+00    3.546566e+02    5.936430e-01    5.438620e+07    1.294767e-08    2.734206e-11    1.194981e-08   -2.174674e+00
    7.575512e+00    3.643610e+02    5.717535e-01    5.340445e+07    1.290814e-08    2.649126e-11    1.189715e-08   -2.169674e+00
    7.700833e+00    3.742792e+02    5.503300e-01    5.241761e+07    1.286778e-08    2.566752e-11    1.184340e-08   -2.164674e+00
    7.829065e+00    3.844122e+02    5.293735e-01    5.142573e+07    1.282660e-08    2.486992e-11    1.178855e-08   -2.159674e+00
    7.960240e+00    3.947603e+02    5.088850e-01    5.042891e+07    1.278458e-08    2.409760e-11    1.173258e-08   -2.154674e+00
    8.094383e+00    4.053239e+02    4.888653e-01    4.942719e+07    1.274170e-08    2.334969e-11    1.167547e-08   -2.149674e+00
    8.231526e+00    4.161018e+02    4.693148e-01    4.842074e+07    1.269794e-08    2.262539e-11    1.161721e-08   -2.144674e+00
    8.371682e+00    4.270931e+02    4.502338e-01    4.740967e+07    1.265331e-08    2.192391e-11    1.155778e-08   -2.139674e+00
    8.514862e+00    4.382951e+02    4.316226e-01    4.639417e+07    1.260778e-08    2.124447e-11    1.149717e-08   -2.134674e+00
    8.661066e+00    4.497053e+02    4.134817e-01    4.537445e+07    1.256135e-08    2.058637e-11    1.143536e-08   -2.129674e+00
    8.810287e+00    4.613188e+02    3.958107e-01    4.435078e+07    1.251401e-08    1.994888e-11    1.137234e-08   -2.124674e+00
    8.962509e+00    4.731317e+02    3.786095e-01    4.332345e+07    1.246575e-08    1.933134e-11    1.130809e-08   -2.119674e+00
    9.117703e+00    4.851371e+02    3.618776e-01    4.229281e+07    1.241655e-08    1.873308e-11    1.124261e-08   -2.114674e+00
    9.275830e+00    4.973278e+02    3.456143e-01    4.125923e+07    1.236641e-08    1.815347e-11    1.117587e-08   -2.109674e+00
    9.436837e+00    5.096954e+02    3.298186e-01    4.022315e+07    1.231532e-08    1.759191e-11    1.110788e-08   -2.104674e+00
    9.600659e+00    5.222302e+02    3.144894e-01    3.918506e+07    1.226328e-08    1.704780e-11    1.103861e-08   -2.099674e+00
    9.767217e+00    5.349201e+02    2.996250e-01    3.814552e+07    1.221028e-08    1.652059e-11    1.096806e-08   -2.094674e+00
    9.936413e+00    5.477534e+02    2.852237e-01    3.710512e+07    1.215631e-08    1.600972e-11    1.089622e-08   -2.089674e+00
    1.010814e+01    5.607150e+02    2.712833e-01    3.606451e+07    1.210136e-08    1.551467e-11    1.082310e-08   -2.084674e+00
    1.028226e+01    5.737891e+02    2.578011e-01    3.502439e+07    1.204544e-08    1.503492e-11    1.074867e-08   -2.079674e+00
    1.045863e+01    5.869583e+02    2.447744e-01    3.398556e+07    1.198855e-08    1.457000e-11    1.067293e-08   -2.074674e+00
    1.063709e+01    6.002033e+02    2.321999e-01    3.294883e+07    1.193068e-08    1.411941e-11    1.059588e-08   -2.069674e+00
    1.081745e+01    6.135034e+02    2.200738e-01    3.191509e+07    1.187182e-08    1.368271e-11    1.051752e-08   -2.064674e+00
    1.099951e+01    6.268362e+02    2.083921e-01    3.088529e+07    1.181199e-08    1.325946e-11    1.043785e-08   -2.059674e+00
    1.118305e+01    6.401776e+02    1.971501e-01    2.986042e+07    1.175118e-08    1.284922e-11    1.035686e-08   -2.054674e+00
    1.136782e+01    6.535017e+02    1.863430e-01    2.884153e+07    1.168940e-08    1.245159e-11    1.027456e-08   -2.049674e+00
    1.155357e+01    6.667821e+02    1.759651e-01    2.782970e+07    1.162664e-08    1.206617e-11    1.019096e-08   -2.044674e+00
    1.174001e+01    6.799900e+02    1.660107e-01    2.682605e+07    1.156293e-08    1.169257e-11    1.010605e-08   -2.039674e+00
    1.192685e+01    6.930961e+02    1.564732e-01    2.583178e+07    1.149825e-08    1.133042e-11    1.001986e-08   -2.034674e+00
    1.211379e+01    7.060700e+02    1.473460e-01    2.484805e+07    1.143263e-08    1.097937e-11    9.932370e-09   -2.029674e+00
    1.230049e+01    7.188805e+02    1.386215e-01    2.387607e+07    1.136606e-08    1.063908e-11    9.843610e-09   -2.024674e+00
    1.248661e+01    7.314956e+02    1.302921e-01    2.291708e+07    1.129858e-08    1.030919e-11    9.753585e-09   -2.019674e+00
