# sky130 pfet_01v8 gm/ID Processed Lookup Table
# Corner: sf
# Temperature: 75C
# W = 2.0 um
# L = 0.9 um (900 nm)
# Columns: gm/id [1/V]  gm/gds [V/V]  id/W [A/m]  ft [Hz]  Cgg/W [F/m]  Cgd/W [F/m]  Cgs/W [F/m]  Vov [V]
#         gm/id          gm/gds            id/W              ft           Cgg/W           Cgd/W           Cgs/W             Vov
    1.834843e+00    3.148986e+00    1.818052e+01    9.877944e+08    5.374755e-09    3.653420e-10    5.028125e-09   -2.750102e+00
    1.852911e+00    3.229525e+00    1.801368e+01    9.897365e+08    5.367320e-09    3.550351e-10    5.028575e-09   -2.745102e+00
    1.871236e+00    3.313597e+00    1.784674e+01    9.916178e+08    5.359980e-09    3.449395e-10    5.028920e-09   -2.740102e+00
    1.889818e+00    3.401404e+00    1.767972e+01    9.934359e+08    5.352735e-09    3.350559e-10    5.029160e-09   -2.735102e+00
    1.908661e+00    3.493160e+00    1.751263e+01    9.951880e+08    5.345585e-09    3.253847e-10    5.029295e-09   -2.730102e+00
    1.927767e+00    3.589098e+00    1.734547e+01    9.968703e+08    5.338535e-09    3.159259e-10    5.029330e-09   -2.725102e+00
    1.947138e+00    3.689457e+00    1.717825e+01    9.984799e+08    5.331585e-09    3.066795e-10    5.029265e-09   -2.720102e+00
    1.966773e+00    3.794497e+00    1.701099e+01    1.000014e+09    5.324730e-09    2.976450e-10    5.029095e-09   -2.715102e+00
    1.986675e+00    3.904490e+00    1.684369e+01    1.001470e+09    5.317970e-09    2.888216e-10    5.028825e-09   -2.710102e+00
    2.006844e+00    4.019726e+00    1.667636e+01    1.002844e+09    5.311310e-09    2.802084e-10    5.028455e-09   -2.705102e+00
    2.027281e+00    4.140510e+00    1.650903e+01    1.004132e+09    5.304745e-09    2.718040e-10    5.027985e-09   -2.700102e+00
    2.047986e+00    4.267168e+00    1.634168e+01    1.005330e+09    5.298280e-09    2.636071e-10    5.027415e-09   -2.695102e+00
    2.068957e+00    4.400040e+00    1.617435e+01    1.006437e+09    5.291905e-09    2.556158e-10    5.026750e-09   -2.690102e+00
    2.090195e+00    4.539486e+00    1.600705e+01    1.007446e+09    5.285625e-09    2.478283e-10    5.025985e-09   -2.685102e+00
    2.111698e+00    4.685886e+00    1.583978e+01    1.008355e+09    5.279440e-09    2.402424e-10    5.025125e-09   -2.680102e+00
    2.133465e+00    4.839632e+00    1.567257e+01    1.009159e+09    5.273345e-09    2.328558e-10    5.024170e-09   -2.675102e+00
    2.155493e+00    5.001148e+00    1.550542e+01    1.009855e+09    5.267340e-09    2.256660e-10    5.023120e-09   -2.670102e+00
    2.177780e+00    5.170865e+00    1.533835e+01    1.010437e+09    5.261425e-09    2.186703e-10    5.021975e-09   -2.665102e+00
    2.200323e+00    5.349238e+00    1.517139e+01    1.010903e+09    5.255600e-09    2.118659e-10    5.020740e-09   -2.660102e+00
    2.223118e+00    5.536738e+00    1.500454e+01    1.011249e+09    5.249855e-09    2.052498e-10    5.019415e-09   -2.655102e+00
    2.246162e+00    5.733860e+00    1.483782e+01    1.011469e+09    5.244195e-09    1.988190e-10    5.017995e-09   -2.650102e+00
    2.269450e+00    5.941102e+00    1.467126e+01    1.011559e+09    5.238620e-09    1.925704e-10    5.016490e-09   -2.645102e+00
    2.292978e+00    6.158985e+00    1.450487e+01    1.011517e+09    5.233120e-09    1.865004e-10    5.014895e-09   -2.640102e+00
    2.316741e+00    6.388040e+00    1.433868e+01    1.011337e+09    5.227700e-09    1.806060e-10    5.013210e-09   -2.635102e+00
    2.340734e+00    6.628820e+00    1.417269e+01    1.011016e+09    5.222355e-09    1.748836e-10    5.011445e-09   -2.630102e+00
    2.364952e+00    6.881867e+00    1.400694e+01    1.010550e+09    5.217085e-09    1.693296e-10    5.009590e-09   -2.625102e+00
    2.389390e+00    7.147745e+00    1.384144e+01    1.009936e+09    5.211880e-09    1.639406e-10    5.007650e-09   -2.620102e+00
    2.414043e+00    7.427012e+00    1.367622e+01    1.009170e+09    5.206750e-09    1.587129e-10    5.005625e-09   -2.615102e+00
    2.438906e+00    7.720227e+00    1.351130e+01    1.008251e+09    5.201680e-09    1.536430e-10    5.003520e-09   -2.610102e+00
    2.463972e+00    8.027946e+00    1.334670e+01    1.007172e+09    5.196680e-09    1.487271e-10    5.001330e-09   -2.605102e+00
    2.489239e+00    8.350713e+00    1.318245e+01    1.005936e+09    5.191735e-09    1.439617e-10    4.999059e-09   -2.600102e+00
    2.514701e+00    8.689063e+00    1.301857e+01    1.004537e+09    5.186850e-09    1.393431e-10    4.996708e-09   -2.595102e+00
    2.540355e+00    9.043512e+00    1.285508e+01    1.002974e+09    5.182025e-09    1.348676e-10    4.994277e-09   -2.590102e+00
    2.566197e+00    9.414552e+00    1.269200e+01    1.001247e+09    5.177250e-09    1.305315e-10    4.991766e-09   -2.585102e+00
    2.592226e+00    9.802658e+00    1.252938e+01    9.993553e+08    5.172525e-09    1.263314e-10    4.989176e-09   -2.580102e+00
    2.618437e+00    1.020827e+01    1.236723e+01    9.972973e+08    5.167850e-09    1.222635e-10    4.986507e-09   -2.575102e+00
    2.644832e+00    1.063178e+01    1.220556e+01    9.950746e+08    5.163215e-09    1.183242e-10    4.983760e-09   -2.570102e+00
    2.671408e+00    1.107358e+01    1.204442e+01    9.926856e+08    5.158630e-09    1.145102e-10    4.980936e-09   -2.565102e+00
    2.698167e+00    1.153398e+01    1.188382e+01    9.901334e+08    5.154080e-09    1.108179e-10    4.978034e-09   -2.560102e+00
    2.725111e+00    1.201328e+01    1.172378e+01    9.874181e+08    5.149570e-09    1.072439e-10    4.975054e-09   -2.555102e+00
    2.752242e+00    1.251172e+01    1.156433e+01    9.845425e+08    5.145090e-09    1.037847e-10    4.971997e-09   -2.550102e+00
    2.779562e+00    1.302949e+01    1.140551e+01    9.815075e+08    5.140645e-09    1.004371e-10    4.968864e-09   -2.545102e+00
    2.807078e+00    1.356676e+01    1.124732e+01    9.783163e+08    5.136230e-09    9.719765e-11    4.965654e-09   -2.540102e+00
    2.834794e+00    1.412362e+01    1.108980e+01    9.749716e+08    5.131840e-09    9.406335e-11    4.962367e-09   -2.535102e+00
    2.862716e+00    1.470015e+01    1.093296e+01    9.714775e+08    5.127470e-09    9.103090e-11    4.959002e-09   -2.530102e+00
    2.890851e+00    1.529635e+01    1.077683e+01    9.678357e+08    5.123125e-09    8.809725e-11    4.955562e-09   -2.525102e+00
    2.919208e+00    1.591221e+01    1.062142e+01    9.640501e+08    5.118800e-09    8.525935e-11    4.952043e-09   -2.520102e+00
    2.947795e+00    1.654768e+01    1.046677e+01    9.601260e+08    5.114485e-09    8.251425e-11    4.948446e-09   -2.515102e+00
    2.976623e+00    1.720266e+01    1.031289e+01    9.560658e+08    5.110185e-09    7.985905e-11    4.944771e-09   -2.510102e+00
    3.005703e+00    1.787703e+01    1.015980e+01    9.518740e+08    5.105895e-09    7.729095e-11    4.941018e-09   -2.505102e+00
    3.035045e+00    1.857065e+01    1.000752e+01    9.475552e+08    5.101610e-09    7.480715e-11    4.937186e-09   -2.500102e+00
    3.064660e+00    1.928335e+01    9.856075e+00    9.431128e+08    5.097330e-09    7.240500e-11    4.933274e-09   -2.495102e+00
    3.094562e+00    2.001493e+01    9.705475e+00    9.385506e+08    5.093055e-09    7.008185e-11    4.929282e-09   -2.490102e+00
    3.124765e+00    2.076523e+01    9.555735e+00    9.338741e+08    5.088775e-09    6.783515e-11    4.925208e-09   -2.485102e+00
    3.155279e+00    2.153402e+01    9.406885e+00    9.290870e+08    5.084490e-09    6.566245e-11    4.921053e-09   -2.480102e+00
    3.186122e+00    2.232110e+01    9.258930e+00    9.241918e+08    5.080205e-09    6.356130e-11    4.916814e-09   -2.475102e+00
    3.217307e+00    2.312628e+01    9.111890e+00    9.191948e+08    5.075905e-09    6.152935e-11    4.912491e-09   -2.470102e+00
    3.248850e+00    2.394936e+01    8.965775e+00    9.140994e+08    5.071590e-09    5.956435e-11    4.908085e-09   -2.465102e+00
    3.280763e+00    2.479015e+01    8.820610e+00    9.089083e+08    5.067265e-09    5.766405e-11    4.903591e-09   -2.460102e+00
    3.313066e+00    2.564848e+01    8.676400e+00    9.036260e+08    5.062920e-09    5.582635e-11    4.899010e-09   -2.455102e+00
    3.345773e+00    2.652420e+01    8.533160e+00    8.982557e+08    5.058555e-09    5.404915e-11    4.894340e-09   -2.450102e+00
    3.378903e+00    2.741719e+01    8.390900e+00    8.928007e+08    5.054170e-09    5.233045e-11    4.889581e-09   -2.445102e+00
    3.412468e+00    2.832732e+01    8.249640e+00    8.872652e+08    5.049755e-09    5.066820e-11    4.884729e-09   -2.440102e+00
    3.446488e+00    2.925451e+01    8.109390e+00    8.816521e+08    5.045310e-09    4.906059e-11    4.879784e-09   -2.435102e+00
    3.480982e+00    3.019872e+01    7.970155e+00    8.759640e+08    5.040835e-09    4.750575e-11    4.874745e-09   -2.430102e+00
    3.515964e+00    3.115990e+01    7.831955e+00    8.702039e+08    5.036325e-09    4.600190e-11    4.869609e-09   -2.425102e+00
    3.551458e+00    3.213805e+01    7.694790e+00    8.643754e+08    5.031775e-09    4.454733e-11    4.864374e-09   -2.420102e+00
    3.587477e+00    3.313320e+01    7.558680e+00    8.584795e+08    5.027190e-09    4.314037e-11    4.859039e-09   -2.415102e+00
    3.624042e+00    3.414541e+01    7.423630e+00    8.525207e+08    5.022555e-09    4.177940e-11    4.853602e-09   -2.410102e+00
    3.661175e+00    3.517477e+01    7.289645e+00    8.464995e+08    5.017880e-09    4.046285e-11    4.848060e-09   -2.405102e+00
    3.698890e+00    3.622143e+01    7.156745e+00    8.404201e+08    5.013150e-09    3.918923e-11    4.842411e-09   -2.400102e+00
    3.737212e+00    3.728553e+01    7.024930e+00    8.342832e+08    5.008370e-09    3.795708e-11    4.836654e-09   -2.395102e+00
    3.776161e+00    3.836723e+01    6.894210e+00    8.280920e+08    5.003530e-09    3.676498e-11    4.830785e-09   -2.390102e+00
    3.815757e+00    3.946679e+01    6.764595e+00    8.218471e+08    4.998637e-09    3.561157e-11    4.824802e-09   -2.385102e+00
    3.856019e+00    4.058446e+01    6.636095e+00    8.155512e+08    4.993680e-09    3.449554e-11    4.818702e-09   -2.380102e+00
    3.896976e+00    4.172049e+01    6.508710e+00    8.092059e+08    4.988658e-09    3.341562e-11    4.812483e-09   -2.375102e+00
    3.938644e+00    4.287522e+01    6.382455e+00    8.028126e+08    4.983568e-09    3.237057e-11    4.806143e-09   -2.370102e+00
    3.981050e+00    4.404900e+01    6.257330e+00    7.963729e+08    4.978407e-09    3.135922e-11    4.799678e-09   -2.365102e+00
    4.024219e+00    4.524220e+01    6.133345e+00    7.898885e+08    4.973171e-09    3.038041e-11    4.793085e-09   -2.360102e+00
    4.068168e+00    4.645520e+01    6.010515e+00    7.833606e+08    4.967856e-09    2.943305e-11    4.786360e-09   -2.355102e+00
    4.112933e+00    4.768849e+01    5.888830e+00    7.767902e+08    4.962460e-09    2.851606e-11    4.779502e-09   -2.350102e+00
    4.158531e+00    4.894247e+01    5.768310e+00    7.701787e+08    4.956980e-09    2.762841e-11    4.772507e-09   -2.345102e+00
    4.204993e+00    5.021770e+01    5.648955e+00    7.635272e+08    4.951411e-09    2.676912e-11    4.765372e-09   -2.340102e+00
    4.252343e+00    5.151466e+01    5.530775e+00    7.568367e+08    4.945750e-09    2.593722e-11    4.758091e-09   -2.335102e+00
    4.300613e+00    5.283391e+01    5.413770e+00    7.501081e+08    4.939994e-09    2.513179e-11    4.750663e-09   -2.330102e+00
    4.349830e+00    5.417605e+01    5.297950e+00    7.433424e+08    4.934139e-09    2.435192e-11    4.743084e-09   -2.325102e+00
    4.400023e+00    5.554167e+01    5.183320e+00    7.365402e+08    4.928181e-09    2.359677e-11    4.735349e-09   -2.320102e+00
    4.451222e+00    5.693141e+01    5.069885e+00    7.297022e+08    4.922116e-09    2.286550e-11    4.727455e-09   -2.315102e+00
    4.503460e+00    5.834593e+01    4.957651e+00    7.228293e+08    4.915941e-09    2.215730e-11    4.719398e-09   -2.310102e+00
    4.556771e+00    5.978594e+01    4.846622e+00    7.159221e+08    4.909652e-09    2.147141e-11    4.711173e-09   -2.305102e+00
    4.611186e+00    6.125215e+01    4.736803e+00    7.089810e+08    4.903244e-09    2.080707e-11    4.702776e-09   -2.300102e+00
    4.666740e+00    6.274531e+01    4.628201e+00    7.020065e+08    4.896714e-09    2.016357e-11    4.694203e-09   -2.295102e+00
    4.723469e+00    6.426619e+01    4.520819e+00    6.949992e+08    4.890058e-09    1.954020e-11    4.685449e-09   -2.290102e+00
    4.781409e+00    6.581561e+01    4.414663e+00    6.879592e+08    4.883272e-09    1.893631e-11    4.676511e-09   -2.285102e+00
    4.840598e+00    6.739437e+01    4.309737e+00    6.808869e+08    4.876351e-09    1.835125e-11    4.667383e-09   -2.280102e+00
    4.901074e+00    6.900336e+01    4.206048e+00    6.737827e+08    4.869291e-09    1.778438e-11    4.658059e-09   -2.275102e+00
    4.962878e+00    7.064345e+01    4.103598e+00    6.666466e+08    4.862088e-09    1.723511e-11    4.648536e-09   -2.270102e+00
    5.026051e+00    7.231556e+01    4.002393e+00    6.594790e+08    4.854738e-09    1.670285e-11    4.638808e-09   -2.265102e+00
    5.090635e+00    7.402063e+01    3.902437e+00    6.522798e+08    4.847234e-09    1.618705e-11    4.628870e-09   -2.260102e+00
    5.156674e+00    7.575962e+01    3.803735e+00    6.450491e+08    4.839575e-09    1.568717e-11    4.618717e-09   -2.255102e+00
    5.224212e+00    7.753354e+01    3.706292e+00    6.377871e+08    4.831754e-09    1.520269e-11    4.608342e-09   -2.250102e+00
    5.293294e+00    7.934336e+01    3.610112e+00    6.304934e+08    4.823767e-09    1.473310e-11    4.597742e-09   -2.245102e+00
    5.363970e+00    8.119018e+01    3.515200e+00    6.231681e+08    4.815610e-09    1.427791e-11    4.586910e-09   -2.240102e+00
    5.436288e+00    8.307506e+01    3.421559e+00    6.158111e+08    4.807277e-09    1.383667e-11    4.575840e-09   -2.235102e+00
    5.510296e+00    8.499904e+01    3.329195e+00    6.084221e+08    4.798763e-09    1.340891e-11    4.564527e-09   -2.230102e+00
    5.586047e+00    8.696330e+01    3.238112e+00    6.010011e+08    4.790064e-09    1.299421e-11    4.552964e-09   -2.225102e+00
    5.663592e+00    8.896893e+01    3.148314e+00    5.935475e+08    4.781175e-09    1.259214e-11    4.541145e-09   -2.220102e+00
    5.742983e+00    9.101709e+01    3.059806e+00    5.860612e+08    4.772090e-09    1.220229e-11    4.529065e-09   -2.215102e+00
    5.824280e+00    9.310898e+01    2.972592e+00    5.785419e+08    4.762804e-09    1.182428e-11    4.516716e-09   -2.210102e+00
    5.907536e+00    9.524582e+01    2.886675e+00    5.709894e+08    4.753313e-09    1.145773e-11    4.504093e-09   -2.205102e+00
    5.992807e+00    9.742872e+01    2.802062e+00    5.634029e+08    4.743611e-09    1.110227e-11    4.491189e-09   -2.200102e+00
    6.080154e+00    9.965895e+01    2.718754e+00    5.557822e+08    4.733692e-09    1.075754e-11    4.477998e-09   -2.195102e+00
    6.169632e+00    1.019377e+02    2.636759e+00    5.481268e+08    4.723553e-09    1.042323e-11    4.464514e-09   -2.190102e+00
    6.261307e+00    1.042663e+02    2.556078e+00    5.404365e+08    4.713185e-09    1.009898e-11    4.450728e-09   -2.185102e+00
    6.355234e+00    1.066459e+02    2.476716e+00    5.327104e+08    4.702586e-09    9.784490e-12    4.436634e-09   -2.180102e+00
    6.451477e+00    1.090777e+02    2.398678e+00    5.249483e+08    4.691748e-09    9.479450e-12    4.422227e-09   -2.175102e+00
    6.550097e+00    1.115630e+02    2.321967e+00    5.171496e+08    4.680667e-09    9.183565e-12    4.407498e-09   -2.170102e+00
    6.651157e+00    1.141028e+02    2.246588e+00    5.093139e+08    4.669338e-09    8.896555e-12    4.392441e-09   -2.165102e+00
    6.754720e+00    1.166985e+02    2.172545e+00    5.014408e+08    4.657754e-09    8.618135e-12    4.377048e-09   -2.160102e+00
    6.860849e+00    1.193512e+02    2.099840e+00    4.935299e+08    4.645909e-09    8.348050e-12    4.361314e-09   -2.155102e+00
    6.969604e+00    1.220620e+02    2.028479e+00    4.855807e+08    4.633800e-09    8.086040e-12    4.345230e-09   -2.150102e+00
    7.081047e+00    1.248319e+02    1.958465e+00    4.775930e+08    4.621420e-09    7.831850e-12    4.328790e-09   -2.145102e+00
    7.195240e+00    1.276620e+02    1.889800e+00    4.695663e+08    4.608763e-09    7.585250e-12    4.311986e-09   -2.140102e+00
    7.312238e+00    1.305531e+02    1.822490e+00    4.615005e+08    4.595824e-09    7.346005e-12    4.294812e-09   -2.135102e+00
    7.432103e+00    1.335063e+02    1.756537e+00    4.533956e+08    4.582598e-09    7.113890e-12    4.277261e-09   -2.130102e+00
    7.554888e+00    1.365222e+02    1.691943e+00    4.452513e+08    4.569079e-09    6.888695e-12    4.259325e-09   -2.125102e+00
    7.680644e+00    1.396015e+02    1.628713e+00    4.370679e+08    4.555263e-09    6.670205e-12    4.240997e-09   -2.120102e+00
    7.809421e+00    1.427448e+02    1.566849e+00    4.288455e+08    4.541142e-09    6.458225e-12    4.222272e-09   -2.115102e+00
    7.941268e+00    1.459524e+02    1.506352e+00    4.205847e+08    4.526714e-09    6.252550e-12    4.203141e-09   -2.110102e+00
    8.076222e+00    1.492246e+02    1.447226e+00    4.122857e+08    4.511971e-09    6.053005e-12    4.183598e-09   -2.105102e+00
    8.214321e+00    1.525616e+02    1.389471e+00    4.039497e+08    4.496910e-09    5.859395e-12    4.163636e-09   -2.100102e+00
    8.355596e+00    1.559632e+02    1.333091e+00    3.955772e+08    4.481526e-09    5.671555e-12    4.143249e-09   -2.095102e+00
    8.500063e+00    1.594289e+02    1.278084e+00    3.871696e+08    4.465813e-09    5.489305e-12    4.122431e-09   -2.090102e+00
    8.647751e+00    1.629585e+02    1.224452e+00    3.787285e+08    4.449767e-09    5.312485e-12    4.101176e-09   -2.085102e+00
    8.798653e+00    1.665509e+02    1.172197e+00    3.702555e+08    4.433383e-09    5.140940e-12    4.079477e-09   -2.080102e+00
    8.952779e+00    1.702051e+02    1.121315e+00    3.617527e+08    4.416658e-09    4.974512e-12    4.057327e-09   -2.075102e+00
    9.110110e+00    1.739197e+02    1.071807e+00    3.532225e+08    4.399587e-09    4.813050e-12    4.034724e-09   -2.070102e+00
    9.270625e+00    1.776931e+02    1.023672e+00    3.446679e+08    4.382167e-09    4.656413e-12    4.011660e-09   -2.065102e+00
    9.434285e+00    1.815230e+02    9.769055e-01    3.360917e+08    4.364393e-09    4.504460e-12    3.988130e-09   -2.060102e+00
    9.601044e+00    1.854069e+02    9.315060e-01    3.274977e+08    4.346264e-09    4.357057e-12    3.964131e-09   -2.055102e+00
    9.770826e+00    1.893420e+02    8.874695e-01    3.188895e+08    4.327774e-09    4.214072e-12    3.939656e-09   -2.050102e+00
    9.943560e+00    1.933250e+02    8.447915e-01    3.102723e+08    4.308922e-09    4.075380e-12    3.914703e-09   -2.045102e+00
    1.011915e+01    1.973522e+02    8.034655e-01    3.016504e+08    4.289704e-09    3.940857e-12    3.889267e-09   -2.040102e+00
    1.029747e+01    2.014192e+02    7.634850e-01    2.930294e+08    4.270120e-09    3.810386e-12    3.863345e-09   -2.035102e+00
    1.047839e+01    2.055215e+02    7.248430e-01    2.844153e+08    4.250166e-09    3.683850e-12    3.836935e-09   -2.030102e+00
    1.066177e+01    2.096538e+02    6.875300e-01    2.758144e+08    4.229842e-09    3.561139e-12    3.810033e-09   -2.025102e+00
    1.084740e+01    2.138103e+02    6.515365e-01    2.672334e+08    4.209146e-09    3.442144e-12    3.782638e-09   -2.020102e+00
    1.103511e+01    2.179850e+02    6.168515e-01    2.586799e+08    4.188077e-09    3.326762e-12    3.754749e-09   -2.015102e+00
    1.122469e+01    2.221712e+02    5.834620e-01    2.501621e+08    4.166636e-09    3.214890e-12    3.726362e-09   -2.010102e+00
    1.141587e+01    2.263615e+02    5.513550e-01    2.416876e+08    4.144822e-09    3.106431e-12    3.697481e-09   -2.005102e+00
    1.160841e+01    2.305485e+02    5.205150e-01    2.332657e+08    4.122638e-09    3.001288e-12    3.668103e-09   -2.000102e+00
    1.180201e+01    2.347237e+02    4.909256e-01    2.249052e+08    4.100081e-09    2.899369e-12    3.638229e-09   -1.995102e+00
