# sky130 pfet_01v8 gm/ID Processed Lookup Table
# Corner: sf
# Temperature: 75C
# W = 2.0 um
# L = 0.36 um (360 nm)
# Columns: gm/id [1/V]  gm/gds [V/V]  id/W [A/m]  ft [Hz]  Cgg/W [F/m]  Cgd/W [F/m]  Cgs/W [F/m]  Vov [V]
#         gm/id          gm/gds            id/W              ft           Cgg/W           Cgd/W           Cgs/W             Vov
    1.546512e+00    2.203577e+00    4.295631e+01    4.524872e+09    2.336653e-09    1.658708e-10    2.095972e-09   -2.695515e+00
    1.560812e+00    2.245324e+00    4.262391e+01    4.537170e+09    2.333667e-09    1.614011e-10    2.096470e-09   -2.690515e+00
    1.575308e+00    2.288413e+00    4.229104e+01    4.549301e+09    2.330715e-09    1.570118e-10    2.096925e-09   -2.685515e+00
    1.590002e+00    2.332898e+00    4.195770e+01    4.561250e+09    2.327799e-09    1.527035e-10    2.097339e-09   -2.680515e+00
    1.604897e+00    2.378843e+00    4.162391e+01    4.573018e+09    2.324917e-09    1.484768e-10    2.097710e-09   -2.675515e+00
    1.619997e+00    2.426308e+00    4.128968e+01    4.584589e+09    2.322071e-09    1.443321e-10    2.098040e-09   -2.670515e+00
    1.635304e+00    2.475361e+00    4.095502e+01    4.595959e+09    2.319261e-09    1.402698e-10    2.098328e-09   -2.665515e+00
    1.650822e+00    2.526073e+00    4.061995e+01    4.607125e+09    2.316486e-09    1.362899e-10    2.098574e-09   -2.660515e+00
    1.666552e+00    2.578513e+00    4.028446e+01    4.618070e+09    2.313748e-09    1.323927e-10    2.098778e-09   -2.655515e+00
    1.682498e+00    2.632758e+00    3.994859e+01    4.628788e+09    2.311047e-09    1.285781e-10    2.098940e-09   -2.650515e+00
    1.698663e+00    2.688889e+00    3.961234e+01    4.639276e+09    2.308381e-09    1.248460e-10    2.099061e-09   -2.645515e+00
    1.715049e+00    2.746985e+00    3.927571e+01    4.649518e+09    2.305753e-09    1.211963e-10    2.099140e-09   -2.640515e+00
    1.731657e+00    2.807132e+00    3.893874e+01    4.659506e+09    2.303160e-09    1.176286e-10    2.099179e-09   -2.635515e+00
    1.748494e+00    2.869425e+00    3.860143e+01    4.669235e+09    2.300604e-09    1.141425e-10    2.099177e-09   -2.630515e+00
    1.765558e+00    2.933951e+00    3.826380e+01    4.678692e+09    2.298083e-09    1.107376e-10    2.099134e-09   -2.625515e+00
    1.782852e+00    3.000809e+00    3.792587e+01    4.687865e+09    2.295598e-09    1.074132e-10    2.099051e-09   -2.620515e+00
    1.800380e+00    3.070100e+00    3.758765e+01    4.696747e+09    2.293149e-09    1.041687e-10    2.098928e-09   -2.615515e+00
    1.818142e+00    3.141926e+00    3.724916e+01    4.705324e+09    2.290735e-09    1.010035e-10    2.098767e-09   -2.610515e+00
    1.836141e+00    3.216395e+00    3.691041e+01    4.713587e+09    2.288355e-09    9.791660e-11    2.098566e-09   -2.605515e+00
    1.854378e+00    3.293620e+00    3.657144e+01    4.721525e+09    2.286009e-09    9.490730e-11    2.098326e-09   -2.600515e+00
    1.872855e+00    3.373715e+00    3.623224e+01    4.729126e+09    2.283698e-09    9.197460e-11    2.098048e-09   -2.595515e+00
    1.891573e+00    3.456793e+00    3.589286e+01    4.736375e+09    2.281420e-09    8.911755e-11    2.097732e-09   -2.590515e+00
    1.910532e+00    3.542978e+00    3.555331e+01    4.743262e+09    2.279174e-09    8.633505e-11    2.097378e-09   -2.585515e+00
    1.929735e+00    3.632392e+00    3.521361e+01    4.749775e+09    2.276960e-09    8.362610e-11    2.096987e-09   -2.580515e+00
    1.949180e+00    3.725157e+00    3.487379e+01    4.755895e+09    2.274778e-09    8.098950e-11    2.096560e-09   -2.575515e+00
    1.968870e+00    3.821404e+00    3.453387e+01    4.761617e+09    2.272626e-09    7.842415e-11    2.096097e-09   -2.570515e+00
    1.988805e+00    3.921262e+00    3.419387e+01    4.766925e+09    2.270505e-09    7.592875e-11    2.095596e-09   -2.565515e+00
    2.008983e+00    4.024853e+00    3.385383e+01    4.771799e+09    2.268412e-09    7.350210e-11    2.095062e-09   -2.560515e+00
    2.029405e+00    4.132316e+00    3.351377e+01    4.776233e+09    2.266348e-09    7.114300e-11    2.094491e-09   -2.555515e+00
    2.050071e+00    4.243774e+00    3.317370e+01    4.780207e+09    2.264312e-09    6.885005e-11    2.093886e-09   -2.550515e+00
    2.070981e+00    4.359360e+00    3.283369e+01    4.783715e+09    2.262303e-09    6.662200e-11    2.093246e-09   -2.545515e+00
    2.092132e+00    4.479196e+00    3.249374e+01    4.786732e+09    2.260320e-09    6.445755e-11    2.092572e-09   -2.540515e+00
    2.113525e+00    4.603407e+00    3.215389e+01    4.789252e+09    2.258361e-09    6.235530e-11    2.091865e-09   -2.535515e+00
    2.135160e+00    4.732120e+00    3.181417e+01    4.791261e+09    2.256427e-09    6.031395e-11    2.091124e-09   -2.530515e+00
    2.157034e+00    4.865442e+00    3.147462e+01    4.792741e+09    2.254517e-09    5.833210e-11    2.090351e-09   -2.525515e+00
    2.179147e+00    5.003494e+00    3.113526e+01    4.793683e+09    2.252630e-09    5.640845e-11    2.089544e-09   -2.520515e+00
    2.201496e+00    5.146375e+00    3.079614e+01    4.794073e+09    2.250763e-09    5.454155e-11    2.088706e-09   -2.515515e+00
    2.224083e+00    5.294183e+00    3.045730e+01    4.793899e+09    2.248918e-09    5.273015e-11    2.087835e-09   -2.510515e+00
    2.246904e+00    5.447012e+00    3.011876e+01    4.793148e+09    2.247092e-09    5.097285e-11    2.086933e-09   -2.505515e+00
    2.269960e+00    5.604942e+00    2.978057e+01    4.791813e+09    2.245285e-09    4.926835e-11    2.085998e-09   -2.500515e+00
    2.293249e+00    5.768047e+00    2.944277e+01    4.789881e+09    2.243496e-09    4.761525e-11    2.085032e-09   -2.495515e+00
    2.316770e+00    5.936384e+00    2.910539e+01    4.787341e+09    2.241724e-09    4.601226e-11    2.084036e-09   -2.490515e+00
    2.340526e+00    6.110016e+00    2.876847e+01    4.784191e+09    2.239968e-09    4.445806e-11    2.083008e-09   -2.485515e+00
    2.364513e+00    6.288974e+00    2.843207e+01    4.780422e+09    2.238227e-09    4.295137e-11    2.081950e-09   -2.480515e+00
    2.388731e+00    6.473287e+00    2.809621e+01    4.776022e+09    2.236500e-09    4.149091e-11    2.080860e-09   -2.475515e+00
    2.413186e+00    6.662980e+00    2.776094e+01    4.770996e+09    2.234786e-09    4.007541e-11    2.079740e-09   -2.470515e+00
    2.437874e+00    6.858055e+00    2.742630e+01    4.765335e+09    2.233084e-09    3.870363e-11    2.078589e-09   -2.465515e+00
    2.462796e+00    7.058503e+00    2.709234e+01    4.759036e+09    2.231393e-09    3.737436e-11    2.077409e-09   -2.460515e+00
    2.487957e+00    7.264311e+00    2.675909e+01    4.752099e+09    2.229712e-09    3.608639e-11    2.076198e-09   -2.455515e+00
    2.513358e+00    7.475456e+00    2.642659e+01    4.744524e+09    2.228041e-09    3.483854e-11    2.074956e-09   -2.450515e+00
    2.539003e+00    7.691894e+00    2.609491e+01    4.736313e+09    2.226377e-09    3.362964e-11    2.073684e-09   -2.445515e+00
    2.564897e+00    7.913589e+00    2.576406e+01    4.727470e+09    2.224721e-09    3.245858e-11    2.072382e-09   -2.440515e+00
    2.591039e+00    8.140478e+00    2.543410e+01    4.717993e+09    2.223071e-09    3.132423e-11    2.071049e-09   -2.435515e+00
    2.617438e+00    8.372501e+00    2.510506e+01    4.707887e+09    2.221426e-09    3.022550e-11    2.069685e-09   -2.430515e+00
    2.644099e+00    8.609593e+00    2.477700e+01    4.697164e+09    2.219785e-09    2.916135e-11    2.068290e-09   -2.425515e+00
    2.671026e+00    8.851679e+00    2.444995e+01    4.685822e+09    2.218148e-09    2.813071e-11    2.066866e-09   -2.420515e+00
    2.698227e+00    9.098691e+00    2.412395e+01    4.673873e+09    2.216513e-09    2.713259e-11    2.065410e-09   -2.415515e+00
    2.725710e+00    9.350550e+00    2.379904e+01    4.661326e+09    2.214879e-09    2.616599e-11    2.063922e-09   -2.410515e+00
    2.753481e+00    9.607167e+00    2.347527e+01    4.648184e+09    2.213245e-09    2.522994e-11    2.062404e-09   -2.405515e+00
    2.781550e+00    9.868477e+00    2.315267e+01    4.634464e+09    2.211610e-09    2.432351e-11    2.060853e-09   -2.400515e+00
    2.809923e+00    1.013439e+01    2.283128e+01    4.620168e+09    2.209974e-09    2.344577e-11    2.059271e-09   -2.395515e+00
    2.838612e+00    1.040484e+01    2.251114e+01    4.605309e+09    2.208335e-09    2.259584e-11    2.057656e-09   -2.390515e+00
    2.867624e+00    1.067975e+01    2.219229e+01    4.589894e+09    2.206692e-09    2.177284e-11    2.056009e-09   -2.385515e+00
    2.896973e+00    1.095906e+01    2.187477e+01    4.573940e+09    2.205045e-09    2.097593e-11    2.054328e-09   -2.380515e+00
    2.926668e+00    1.124271e+01    2.155860e+01    4.557454e+09    2.203392e-09    2.020429e-11    2.052615e-09   -2.375515e+00
    2.956720e+00    1.153063e+01    2.124383e+01    4.540447e+09    2.201732e-09    1.945713e-11    2.050867e-09   -2.370515e+00
    2.987140e+00    1.182277e+01    2.093049e+01    4.522928e+09    2.200065e-09    1.873365e-11    2.049085e-09   -2.365515e+00
    3.017943e+00    1.211911e+01    2.061862e+01    4.504911e+09    2.198389e-09    1.803312e-11    2.047268e-09   -2.360515e+00
    3.049139e+00    1.241959e+01    2.030824e+01    4.486405e+09    2.196702e-09    1.735480e-11    2.045416e-09   -2.355515e+00
    3.080742e+00    1.272420e+01    1.999940e+01    4.467421e+09    2.195006e-09    1.669799e-11    2.043528e-09   -2.350515e+00
    3.112768e+00    1.303291e+01    1.969212e+01    4.447972e+09    2.193296e-09    1.606200e-11    2.041603e-09   -2.345515e+00
    3.145224e+00    1.334570e+01    1.938644e+01    4.428060e+09    2.191575e-09    1.544615e-11    2.039642e-09   -2.340515e+00
    3.178133e+00    1.366258e+01    1.908239e+01    4.407705e+09    2.189840e-09    1.484980e-11    2.037643e-09   -2.335515e+00
    3.211504e+00    1.398356e+01    1.877998e+01    4.386913e+09    2.188088e-09    1.427234e-11    2.035605e-09   -2.330515e+00
    3.245355e+00    1.430864e+01    1.847928e+01    4.365692e+09    2.186322e-09    1.371314e-11    2.033529e-09   -2.325515e+00
    3.279700e+00    1.463784e+01    1.818028e+01    4.344053e+09    2.184538e-09    1.317163e-11    2.031412e-09   -2.320515e+00
    3.314554e+00    1.497118e+01    1.788302e+01    4.322002e+09    2.182736e-09    1.264723e-11    2.029254e-09   -2.315515e+00
    3.349936e+00    1.530872e+01    1.758755e+01    4.299551e+09    2.180915e-09    1.213939e-11    2.027056e-09   -2.310515e+00
    3.385864e+00    1.565048e+01    1.729386e+01    4.276709e+09    2.179073e-09    1.164759e-11    2.024814e-09   -2.305515e+00
    3.422349e+00    1.599651e+01    1.700201e+01    4.253479e+09    2.177210e-09    1.117129e-11    2.022531e-09   -2.300515e+00
    3.459417e+00    1.634689e+01    1.671201e+01    4.229877e+09    2.175324e-09    1.071001e-11    2.020202e-09   -2.295515e+00
    3.497080e+00    1.670163e+01    1.642387e+01    4.205899e+09    2.173414e-09    1.026328e-11    2.017829e-09   -2.290515e+00
    3.535362e+00    1.706086e+01    1.613766e+01    4.181564e+09    2.171479e-09    9.830595e-12    2.015409e-09   -2.285515e+00
    3.574277e+00    1.742461e+01    1.585336e+01    4.156870e+09    2.169518e-09    9.411535e-12    2.012942e-09   -2.280515e+00
    3.613848e+00    1.779298e+01    1.557102e+01    4.131825e+09    2.167530e-09    9.005650e-12    2.010428e-09   -2.275515e+00
    3.654095e+00    1.816604e+01    1.529065e+01    4.106437e+09    2.165513e-09    8.612520e-12    2.007864e-09   -2.270515e+00
    3.695038e+00    1.854390e+01    1.501229e+01    4.080712e+09    2.163466e-09    8.231735e-12    2.005249e-09   -2.265515e+00
    3.736697e+00    1.892662e+01    1.473596e+01    4.054651e+09    2.161389e-09    7.862910e-12    2.002584e-09   -2.260515e+00
    3.779102e+00    1.931435e+01    1.446166e+01    4.028268e+09    2.159279e-09    7.505650e-12    1.999865e-09   -2.255515e+00
    3.822265e+00    1.970715e+01    1.418944e+01    4.001556e+09    2.157135e-09    7.159600e-12    1.997092e-09   -2.250515e+00
    3.866219e+00    2.010515e+01    1.391931e+01    3.974530e+09    2.154957e-09    6.824400e-12    1.994264e-09   -2.245515e+00
    3.910981e+00    2.050844e+01    1.365130e+01    3.947187e+09    2.152742e-09    6.499700e-12    1.991379e-09   -2.240515e+00
    3.956581e+00    2.091718e+01    1.338542e+01    3.919537e+09    2.150490e-09    6.185175e-12    1.988436e-09   -2.235515e+00
    4.003041e+00    2.133144e+01    1.312170e+01    3.891578e+09    2.148199e-09    5.880505e-12    1.985435e-09   -2.230515e+00
    4.050389e+00    2.175136e+01    1.286016e+01    3.863316e+09    2.145868e-09    5.585380e-12    1.982372e-09   -2.225515e+00
    4.098650e+00    2.217706e+01    1.260082e+01    3.834752e+09    2.143495e-09    5.299495e-12    1.979246e-09   -2.220515e+00
    4.147855e+00    2.260868e+01    1.234371e+01    3.805892e+09    2.141080e-09    5.022570e-12    1.976057e-09   -2.215515e+00
    4.198032e+00    2.304634e+01    1.208883e+01    3.776737e+09    2.138619e-09    4.754320e-12    1.972803e-09   -2.210515e+00
    4.249213e+00    2.349018e+01    1.183622e+01    3.747291e+09    2.136112e-09    4.494478e-12    1.969481e-09   -2.205515e+00
    4.301423e+00    2.394034e+01    1.158589e+01    3.717552e+09    2.133559e-09    4.242785e-12    1.966090e-09   -2.200515e+00
    4.354698e+00    2.439694e+01    1.133787e+01    3.687525e+09    2.130956e-09    3.998988e-12    1.962630e-09   -2.195515e+00
    4.409068e+00    2.486013e+01    1.109216e+01    3.657210e+09    2.128302e-09    3.762847e-12    1.959097e-09   -2.190515e+00
    4.464567e+00    2.533005e+01    1.084881e+01    3.626608e+09    2.125598e-09    3.534127e-12    1.955490e-09   -2.185515e+00
    4.521230e+00    2.580684e+01    1.060782e+01    3.595720e+09    2.122839e-09    3.312603e-12    1.951808e-09   -2.180515e+00
    4.579091e+00    2.629064e+01    1.036922e+01    3.564548e+09    2.120024e-09    3.098057e-12    1.948048e-09   -2.175515e+00
    4.638189e+00    2.678159e+01    1.013301e+01    3.533091e+09    2.117153e-09    2.890280e-12    1.944209e-09   -2.170515e+00
    4.698561e+00    2.727986e+01    9.899230e+00    3.501351e+09    2.114223e-09    2.689067e-12    1.940288e-09   -2.165515e+00
    4.760244e+00    2.778556e+01    9.667895e+00    3.469326e+09    2.111233e-09    2.494223e-12    1.936283e-09   -2.160515e+00
    4.823277e+00    2.829886e+01    9.439025e+00    3.437016e+09    2.108181e-09    2.305561e-12    1.932193e-09   -2.155515e+00
    4.887706e+00    2.881990e+01    9.212630e+00    3.404421e+09    2.105065e-09    2.122896e-12    1.928016e-09   -2.150515e+00
    4.953566e+00    2.934880e+01    8.988745e+00    3.371541e+09    2.101884e-09    1.946054e-12    1.923749e-09   -2.145515e+00
    5.020907e+00    2.988573e+01    8.767375e+00    3.338373e+09    2.098636e-09    1.774864e-12    1.919390e-09   -2.140515e+00
    5.089768e+00    3.043082e+01    8.548550e+00    3.304917e+09    2.095318e-09    1.609163e-12    1.914937e-09   -2.135515e+00
    5.160200e+00    3.098419e+01    8.332280e+00    3.271173e+09    2.091930e-09    1.448793e-12    1.910388e-09   -2.130515e+00
    5.232246e+00    3.154599e+01    8.118590e+00    3.237136e+09    2.088469e-09    1.293601e-12    1.905740e-09   -2.125515e+00
    5.305954e+00    3.211635e+01    7.907500e+00    3.202806e+09    2.084933e-09    1.143440e-12    1.900992e-09   -2.120515e+00
    5.381371e+00    3.269539e+01    7.699030e+00    3.168181e+09    2.081321e-09    9.981680e-13    1.896141e-09   -2.115515e+00
    5.458552e+00    3.328323e+01    7.493195e+00    3.133260e+09    2.077630e-09    8.576485e-13    1.891183e-09   -2.110515e+00
    5.537548e+00    3.387999e+01    7.290015e+00    3.098038e+09    2.073859e-09    7.217495e-13    1.886119e-09   -2.105515e+00
    5.618404e+00    3.448576e+01    7.089515e+00    3.062514e+09    2.070006e-09    5.903425e-13    1.880943e-09   -2.100515e+00
    5.701184e+00    3.510065e+01    6.891705e+00    3.026684e+09    2.066069e-09    4.633052e-13    1.875655e-09   -2.095515e+00
    5.785936e+00    3.572474e+01    6.696610e+00    2.990548e+09    2.062044e-09    3.405189e-13    1.870252e-09   -2.090515e+00
    5.872714e+00    3.635810e+01    6.504250e+00    2.954099e+09    2.057933e-09    2.218690e-13    1.864730e-09   -2.085515e+00
    5.961578e+00    3.700081e+01    6.314640e+00    2.917336e+09    2.053730e-09    1.072451e-13    1.859088e-09   -2.080515e+00
    6.052581e+00    3.765294e+01    6.127805e+00    2.880257e+09    2.049436e-09    3.459473e-15    1.853324e-09   -2.075515e+00
    6.145781e+00    3.831449e+01    5.943760e+00    2.842858e+09    2.045047e-09    1.103476e-13    1.847433e-09   -2.070515e+00
    6.241243e+00    3.898549e+01    5.762520e+00    2.805136e+09    2.040561e-09    2.135183e-13    1.841414e-09   -2.065515e+00
    6.339016e+00    3.966596e+01    5.584110e+00    2.767088e+09    2.035978e-09    3.130676e-13    1.835265e-09   -2.060515e+00
    6.439159e+00    4.035588e+01    5.408550e+00    2.728710e+09    2.031294e-09    4.090878e-13    1.828982e-09   -2.055515e+00
    6.541739e+00    4.105519e+01    5.235850e+00    2.690000e+09    2.026507e-09    5.016680e-13    1.822563e-09   -2.050515e+00
    6.646800e+00    4.176384e+01    5.066040e+00    2.650956e+09    2.021617e-09    5.908945e-13    1.816004e-09   -2.045515e+00
    6.754412e+00    4.248174e+01    4.899128e+00    2.611576e+09    2.016619e-09    6.768505e-13    1.809305e-09   -2.040515e+00
    6.864625e+00    4.320877e+01    4.735138e+00    2.571856e+09    2.011513e-09    7.596155e-13    1.802461e-09   -2.035515e+00
    6.977496e+00    4.394480e+01    4.574085e+00    2.531797e+09    2.006297e-09    8.392680e-13    1.795471e-09   -2.030515e+00
    7.093079e+00    4.468964e+01    4.415987e+00    2.491396e+09    2.000967e-09    9.158820e-13    1.788332e-09   -2.025515e+00
    7.211427e+00    4.544306e+01    4.260861e+00    2.450653e+09    1.995524e-09    9.895305e-13    1.781040e-09   -2.020515e+00
    7.332590e+00    4.620480e+01    4.108724e+00    2.409569e+09    1.989963e-09    1.060283e-12    1.773594e-09   -2.015515e+00
    7.456615e+00    4.697457e+01    3.959591e+00    2.368144e+09    1.984285e-09    1.128206e-12    1.765990e-09   -2.010515e+00
    7.583545e+00    4.775202e+01    3.813477e+00    2.326379e+09    1.978487e-09    1.193366e-12    1.758227e-09   -2.005515e+00
    7.713423e+00    4.853682e+01    3.670399e+00    2.284278e+09    1.972566e-09    1.255826e-12    1.750302e-09   -2.000515e+00
    7.846283e+00    4.932845e+01    3.530368e+00    2.241845e+09    1.966521e-09    1.315646e-12    1.742212e-09   -1.995515e+00
    7.982157e+00    5.012649e+01    3.393400e+00    2.199083e+09    1.960350e-09    1.372886e-12    1.733955e-09   -1.990515e+00
    8.121071e+00    5.093036e+01    3.259505e+00    2.156001e+09    1.954052e-09    1.427603e-12    1.725529e-09   -1.985515e+00
    8.263042e+00    5.173944e+01    3.128697e+00    2.112604e+09    1.947626e-09    1.479852e-12    1.716931e-09   -1.980515e+00
    8.408085e+00    5.255311e+01    3.000984e+00    2.068903e+09    1.941068e-09    1.529687e-12    1.708159e-09   -1.975515e+00
    8.556205e+00    5.337063e+01    2.876375e+00    2.024908e+09    1.934379e-09    1.577160e-12    1.699211e-09   -1.970515e+00
    8.707400e+00    5.419123e+01    2.754877e+00    1.980633e+09    1.927556e-09    1.622320e-12    1.690085e-09   -1.965515e+00
    8.861649e+00    5.501402e+01    2.636498e+00    1.936091e+09    1.920598e-09    1.665218e-12    1.680778e-09   -1.960515e+00
    9.018934e+00    5.583809e+01    2.521241e+00    1.891300e+09    1.913503e-09    1.705901e-12    1.671291e-09   -1.955515e+00
    9.179217e+00    5.666248e+01    2.409110e+00    1.846280e+09    1.906271e-09    1.744415e-12    1.661620e-09   -1.950515e+00
    9.342456e+00    5.748611e+01    2.300104e+00    1.801051e+09    1.898901e-09    1.780804e-12    1.651763e-09   -1.945515e+00
    9.508582e+00    5.830784e+01    2.194222e+00    1.755638e+09    1.891392e-09    1.815114e-12    1.641720e-09   -1.940515e+00
