# sky130 pfet_01v8 gm/ID Processed Lookup Table
# Corner: sf
# Temperature: 75C
# W = 2.0 um
# L = 3.6 um (3600 nm)
# Columns: gm/id [1/V]  gm/gds [V/V]  id/W [A/m]  ft [Hz]  Cgg/W [F/m]  Cgd/W [F/m]  Cgs/W [F/m]  Vov [V]
#         gm/id          gm/gds            id/W              ft           Cgg/W           Cgd/W           Cgs/W             Vov
    1.971970e+00    4.186735e+00    4.559846e+00    6.927677e+07    2.065775e-08    2.001801e-09    1.884455e-08   -2.777706e+00
    1.991284e+00    4.318339e+00    4.514890e+00    6.939988e+07    2.061778e-08    1.947250e-09    1.884738e-08   -2.772706e+00
    2.010859e+00    4.456893e+00    4.469943e+00    6.951797e+07    2.057817e-08    1.893515e-09    1.884978e-08   -2.767707e+00
    2.030692e+00    4.602852e+00    4.425007e+00    6.963064e+07    2.053893e-08    1.840622e-09    1.885175e-08   -2.762707e+00
    2.050784e+00    4.756715e+00    4.380086e+00    6.973767e+07    2.050006e-08    1.788591e-09    1.885329e-08   -2.757707e+00
    2.071134e+00    4.919010e+00    4.335182e+00    6.983867e+07    2.046161e-08    1.737444e-09    1.885440e-08   -2.752706e+00
    2.091740e+00    5.090295e+00    4.290299e+00    6.993325e+07    2.042357e-08    1.687199e-09    1.885507e-08   -2.747707e+00
    2.112599e+00    5.271178e+00    4.245441e+00    7.002111e+07    2.038596e-08    1.637875e-09    1.885531e-08   -2.742706e+00
    2.133711e+00    5.462306e+00    4.200611e+00    7.010191e+07    2.034878e-08    1.589486e-09    1.885510e-08   -2.737706e+00
    2.155069e+00    5.664353e+00    4.155814e+00    7.017518e+07    2.031206e-08    1.542048e-09    1.885445e-08   -2.732706e+00
    2.176673e+00    5.878062e+00    4.111052e+00    7.024066e+07    2.027579e-08    1.495570e-09    1.885335e-08   -2.727707e+00
    2.198518e+00    6.104208e+00    4.066331e+00    7.029794e+07    2.023998e-08    1.450063e-09    1.885181e-08   -2.722707e+00
    2.220600e+00    6.343618e+00    4.021654e+00    7.034668e+07    2.020466e-08    1.405537e-09    1.884983e-08   -2.717707e+00
    2.242913e+00    6.597164e+00    3.977027e+00    7.038647e+07    2.016982e-08    1.361996e-09    1.884741e-08   -2.712707e+00
    2.265454e+00    6.865785e+00    3.932455e+00    7.041704e+07    2.013545e-08    1.319447e-09    1.884454e-08   -2.707707e+00
    2.288215e+00    7.150448e+00    3.887942e+00    7.043791e+07    2.010158e-08    1.277891e-09    1.884123e-08   -2.702707e+00
    2.311194e+00    7.452209e+00    3.843492e+00    7.044889e+07    2.006820e-08    1.237331e-09    1.883748e-08   -2.697706e+00
    2.334382e+00    7.772148e+00    3.799113e+00    7.044957e+07    2.003530e-08    1.197765e-09    1.883330e-08   -2.692706e+00
    2.357774e+00    8.111412e+00    3.754809e+00    7.043966e+07    2.000290e-08    1.159192e-09    1.882868e-08   -2.687706e+00
    2.381365e+00    8.471213e+00    3.710585e+00    7.041886e+07    1.997098e-08    1.121608e-09    1.882363e-08   -2.682707e+00
    2.405148e+00    8.852810e+00    3.666448e+00    7.038693e+07    1.993955e-08    1.085008e-09    1.881815e-08   -2.677707e+00
    2.429120e+00    9.257516e+00    3.622403e+00    7.034362e+07    1.990862e-08    1.049386e-09    1.881224e-08   -2.672707e+00
    2.453272e+00    9.686705e+00    3.578457e+00    7.028874e+07    1.987815e-08    1.014733e-09    1.880591e-08   -2.667706e+00
    2.477602e+00    1.014180e+01    3.534616e+00    7.022204e+07    1.984817e-08    9.810405e-10    1.879916e-08   -2.662707e+00
    2.502102e+00    1.062426e+01    3.490886e+00    7.014338e+07    1.981864e-08    9.482980e-10    1.879199e-08   -2.657706e+00
    2.526772e+00    1.113563e+01    3.447273e+00    7.005273e+07    1.978959e-08    9.164935e-10    1.878442e-08   -2.652706e+00
    2.551604e+00    1.167745e+01    3.403783e+00    6.994982e+07    1.976098e-08    8.856155e-10    1.877643e-08   -2.647706e+00
    2.576599e+00    1.225136e+01    3.360424e+00    6.983478e+07    1.973283e-08    8.556495e-10    1.876804e-08   -2.642707e+00
    2.601754e+00    1.285898e+01    3.317201e+00    6.970749e+07    1.970510e-08    8.265815e-10    1.875925e-08   -2.637707e+00
    2.627067e+00    1.350200e+01    3.274120e+00    6.956799e+07    1.967780e-08    7.983965e-10    1.875006e-08   -2.632707e+00
    2.652539e+00    1.418213e+01    3.231190e+00    6.941631e+07    1.965092e-08    7.710790e-10    1.874047e-08   -2.627706e+00
    2.678169e+00    1.490108e+01    3.188414e+00    6.925254e+07    1.962443e-08    7.446115e-10    1.873049e-08   -2.622707e+00
    2.703959e+00    1.566065e+01    3.145801e+00    6.907678e+07    1.959834e-08    7.189780e-10    1.872013e-08   -2.617706e+00
    2.729913e+00    1.646258e+01    3.103355e+00    6.888922e+07    1.957263e-08    6.941610e-10    1.870939e-08   -2.612706e+00
    2.756036e+00    1.730864e+01    3.061084e+00    6.869004e+07    1.954728e-08    6.701420e-10    1.869826e-08   -2.607706e+00
    2.782327e+00    1.820062e+01    3.018993e+00    6.847936e+07    1.952229e-08    6.469030e-10    1.868675e-08   -2.602707e+00
    2.808796e+00    1.914031e+01    2.977087e+00    6.825745e+07    1.949763e-08    6.244255e-10    1.867486e-08   -2.597707e+00
    2.835450e+00    2.012949e+01    2.935374e+00    6.802459e+07    1.947330e-08    6.026915e-10    1.866261e-08   -2.592707e+00
    2.862291e+00    2.116989e+01    2.893858e+00    6.778095e+07    1.944928e-08    5.816815e-10    1.864998e-08   -2.587707e+00
    2.889334e+00    2.226332e+01    2.852545e+00    6.752690e+07    1.942556e-08    5.613775e-10    1.863697e-08   -2.582707e+00
    2.916585e+00    2.341148e+01    2.811440e+00    6.726274e+07    1.940212e-08    5.417595e-10    1.862361e-08   -2.577707e+00
    2.944052e+00    2.461608e+01    2.770549e+00    6.698868e+07    1.937894e-08    5.228100e-10    1.860987e-08   -2.572706e+00
    2.971749e+00    2.587884e+01    2.729875e+00    6.670512e+07    1.935601e-08    5.045090e-10    1.859578e-08   -2.567706e+00
    2.999686e+00    2.720142e+01    2.689425e+00    6.641234e+07    1.933332e-08    4.868389e-10    1.858131e-08   -2.562706e+00
    3.027873e+00    2.858544e+01    2.649203e+00    6.611065e+07    1.931086e-08    4.697807e-10    1.856648e-08   -2.557707e+00
    3.056325e+00    3.003252e+01    2.609212e+00    6.580039e+07    1.928860e-08    4.533163e-10    1.855129e-08   -2.552707e+00
    3.085053e+00    3.154425e+01    2.569458e+00    6.548185e+07    1.926653e-08    4.374276e-10    1.853573e-08   -2.547707e+00
    3.114073e+00    3.312217e+01    2.529944e+00    6.515539e+07    1.924463e-08    4.220969e-10    1.851981e-08   -2.542706e+00
    3.143397e+00    3.476782e+01    2.490675e+00    6.482132e+07    1.922289e-08    4.073066e-10    1.850352e-08   -2.537707e+00
    3.173038e+00    3.648265e+01    2.451654e+00    6.447986e+07    1.920129e-08    3.930395e-10    1.848687e-08   -2.532706e+00
    3.203013e+00    3.826816e+01    2.412884e+00    6.413141e+07    1.917982e-08    3.792788e-10    1.846984e-08   -2.527706e+00
    3.233336e+00    4.012577e+01    2.374370e+00    6.377621e+07    1.915846e-08    3.660078e-10    1.845245e-08   -2.522706e+00
    3.264023e+00    4.205690e+01    2.336114e+00    6.341458e+07    1.913720e-08    3.532105e-10    1.843468e-08   -2.517707e+00
    3.295090e+00    4.406294e+01    2.298120e+00    6.304674e+07    1.911601e-08    3.408708e-10    1.841653e-08   -2.512707e+00
    3.326553e+00    4.614526e+01    2.260390e+00    6.267299e+07    1.909490e-08    3.289735e-10    1.839800e-08   -2.507707e+00
    3.358427e+00    4.830522e+01    2.222928e+00    6.229360e+07    1.907383e-08    3.175032e-10    1.837909e-08   -2.502706e+00
    3.390731e+00    5.054415e+01    2.185735e+00    6.190879e+07    1.905279e-08    3.064455e-10    1.835980e-08   -2.497707e+00
    3.423478e+00    5.286336e+01    2.148816e+00    6.151875e+07    1.903178e-08    2.957860e-10    1.834012e-08   -2.492706e+00
    3.456688e+00    5.526418e+01    2.112172e+00    6.112374e+07    1.901077e-08    2.855107e-10    1.832003e-08   -2.487706e+00
    3.490380e+00    5.774798e+01    2.075806e+00    6.072400e+07    1.898975e-08    2.756059e-10    1.829955e-08   -2.482706e+00
    3.524571e+00    6.031606e+01    2.039719e+00    6.031972e+07    1.896869e-08    2.660589e-10    1.827866e-08   -2.477707e+00
    3.559275e+00    6.296969e+01    2.003915e+00    5.991105e+07    1.894760e-08    2.568565e-10    1.825736e-08   -2.472707e+00
    3.594517e+00    6.571028e+01    1.968395e+00    5.949821e+07    1.892645e-08    2.479866e-10    1.823564e-08   -2.467707e+00
    3.630313e+00    6.853914e+01    1.933161e+00    5.908138e+07    1.890521e-08    2.394371e-10    1.821350e-08   -2.462707e+00
    3.666681e+00    7.145761e+01    1.898216e+00    5.866069e+07    1.888390e-08    2.311964e-10    1.819092e-08   -2.457707e+00
    3.703642e+00    7.446713e+01    1.863560e+00    5.823632e+07    1.886248e-08    2.232533e-10    1.816791e-08   -2.452707e+00
    3.741216e+00    7.756908e+01    1.829197e+00    5.780839e+07    1.884094e-08    2.155969e-10    1.814444e-08   -2.447706e+00
    3.779422e+00    8.076487e+01    1.795127e+00    5.737702e+07    1.881926e-08    2.082167e-10    1.812053e-08   -2.442706e+00
    3.818283e+00    8.405609e+01    1.761352e+00    5.694242e+07    1.879743e-08    2.011025e-10    1.809615e-08   -2.437706e+00
    3.857820e+00    8.744411e+01    1.727874e+00    5.650461e+07    1.877544e-08    1.942447e-10    1.807129e-08   -2.432707e+00
    3.898055e+00    9.093056e+01    1.694694e+00    5.606379e+07    1.875327e-08    1.876335e-10    1.804596e-08   -2.427707e+00
    3.939009e+00    9.451696e+01    1.661814e+00    5.562000e+07    1.873090e-08    1.812599e-10    1.802013e-08   -2.422707e+00
    3.980708e+00    9.820512e+01    1.629236e+00    5.517338e+07    1.870832e-08    1.751151e-10    1.799379e-08   -2.417706e+00
    4.023170e+00    1.019965e+02    1.596960e+00    5.472396e+07    1.868551e-08    1.691907e-10    1.796696e-08   -2.412707e+00
    4.066425e+00    1.058930e+02    1.564988e+00    5.427190e+07    1.866246e-08    1.634782e-10    1.793959e-08   -2.407706e+00
    4.110496e+00    1.098965e+02    1.533321e+00    5.381723e+07    1.863915e-08    1.579700e-10    1.791169e-08   -2.402706e+00
    4.155407e+00    1.140086e+02    1.501961e+00    5.336004e+07    1.861557e-08    1.526583e-10    1.788324e-08   -2.397706e+00
    4.201186e+00    1.182315e+02    1.470909e+00    5.290037e+07    1.859170e-08    1.475359e-10    1.785424e-08   -2.392707e+00
    4.247859e+00    1.225671e+02    1.440165e+00    5.243833e+07    1.856751e-08    1.425956e-10    1.782466e-08   -2.387707e+00
    4.295452e+00    1.270176e+02    1.409733e+00    5.197391e+07    1.854302e-08    1.378305e-10    1.779450e-08   -2.382707e+00
    4.343998e+00    1.315850e+02    1.379612e+00    5.150723e+07    1.851819e-08    1.332344e-10    1.776374e-08   -2.377706e+00
    4.393519e+00    1.362715e+02    1.349803e+00    5.103825e+07    1.849300e-08    1.288007e-10    1.773237e-08   -2.372707e+00
    4.444054e+00    1.410796e+02    1.320308e+00    5.056711e+07    1.846744e-08    1.245233e-10    1.770037e-08   -2.367706e+00
    4.495623e+00    1.460114e+02    1.291128e+00    5.009371e+07    1.844150e-08    1.203966e-10    1.766773e-08   -2.362706e+00
    4.548268e+00    1.510697e+02    1.262264e+00    4.961823e+07    1.841514e-08    1.164148e-10    1.763444e-08   -2.357706e+00
    4.602014e+00    1.562569e+02    1.233718e+00    4.914057e+07    1.838839e-08    1.125726e-10    1.760047e-08   -2.352707e+00
    4.656901e+00    1.615757e+02    1.205488e+00    4.866082e+07    1.836119e-08    1.088647e-10    1.756582e-08   -2.347707e+00
    4.712960e+00    1.670289e+02    1.177580e+00    4.817903e+07    1.833353e-08    1.052862e-10    1.753047e-08   -2.342707e+00
    4.770224e+00    1.726190e+02    1.149990e+00    4.769507e+07    1.830541e-08    1.018322e-10    1.749439e-08   -2.337707e+00
    4.828736e+00    1.783494e+02    1.122723e+00    4.720911e+07    1.827680e-08    9.849810e-11    1.745758e-08   -2.332707e+00
    4.888527e+00    1.842228e+02    1.095777e+00    4.672103e+07    1.824769e-08    9.527945e-11    1.742001e-08   -2.327707e+00
    4.949635e+00    1.902423e+02    1.069156e+00    4.623087e+07    1.821806e-08    9.217205e-11    1.738167e-08   -2.322706e+00
    5.012109e+00    1.964115e+02    1.042859e+00    4.573868e+07    1.818789e-08    8.917175e-11    1.734254e-08   -2.317706e+00
    5.075979e+00    2.027331e+02    1.016887e+00    4.524437e+07    1.815716e-08    8.627455e-11    1.730260e-08   -2.312706e+00
    5.141295e+00    2.092110e+02    9.912415e-01    4.474799e+07    1.812586e-08    8.347670e-11    1.726184e-08   -2.307707e+00
    5.208088e+00    2.158483e+02    9.659245e-01    4.424945e+07    1.809397e-08    8.077455e-11    1.722022e-08   -2.302707e+00
    5.276417e+00    2.226489e+02    9.409360e-01    4.374884e+07    1.806146e-08    7.816455e-11    1.717774e-08   -2.297707e+00
    5.346320e+00    2.296163e+02    9.162770e-01    4.324604e+07    1.802833e-08    7.564340e-11    1.713437e-08   -2.292706e+00
    5.417842e+00    2.367541e+02    8.919490e-01    4.274108e+07    1.799455e-08    7.320780e-11    1.709009e-08   -2.287707e+00
    5.491029e+00    2.440663e+02    8.679530e-01    4.223391e+07    1.796011e-08    7.085465e-11    1.704487e-08   -2.282706e+00
    5.565932e+00    2.515567e+02    8.442900e-01    4.172450e+07    1.792498e-08    6.858095e-11    1.699872e-08   -2.277706e+00
    5.642603e+00    2.592293e+02    8.209605e-01    4.121283e+07    1.788914e-08    6.638380e-11    1.695159e-08   -2.272706e+00
    5.721085e+00    2.670880e+02    7.979665e-01    4.069885e+07    1.785259e-08    6.426045e-11    1.690346e-08   -2.267707e+00
    5.801435e+00    2.751369e+02    7.753085e-01    4.018252e+07    1.781529e-08    6.220825e-11    1.685432e-08   -2.262707e+00
    5.883699e+00    2.833800e+02    7.529880e-01    3.966382e+07    1.777723e-08    6.022465e-11    1.680414e-08   -2.257707e+00
    5.967936e+00    2.918216e+02    7.310055e-01    3.914270e+07    1.773839e-08    5.830715e-11    1.675290e-08   -2.252706e+00
    6.054196e+00    3.004656e+02    7.093625e-01    3.861910e+07    1.769875e-08    5.645340e-11    1.670058e-08   -2.247707e+00
    6.142537e+00    3.093162e+02    6.880595e-01    3.809299e+07    1.765830e-08    5.466110e-11    1.664715e-08   -2.242706e+00
    6.233007e+00    3.183773e+02    6.670985e-01    3.756433e+07    1.761701e-08    5.292810e-11    1.659259e-08   -2.237706e+00
    6.325665e+00    3.276533e+02    6.464800e-01    3.703308e+07    1.757485e-08    5.125225e-11    1.653688e-08   -2.232706e+00
    6.420573e+00    3.371478e+02    6.262045e-01    3.649917e+07    1.753182e-08    4.963160e-11    1.647999e-08   -2.227707e+00
    6.517775e+00    3.468649e+02    6.062740e-01    3.596258e+07    1.748790e-08    4.806414e-11    1.642190e-08   -2.222707e+00
    6.617328e+00    3.568081e+02    5.866895e-01    3.542326e+07    1.744306e-08    4.654801e-11    1.636258e-08   -2.217707e+00
    6.719293e+00    3.669814e+02    5.674515e-01    3.488118e+07    1.739728e-08    4.508142e-11    1.630202e-08   -2.212707e+00
    6.823724e+00    3.773879e+02    5.485610e-01    3.433629e+07    1.735055e-08    4.366263e-11    1.624019e-08   -2.207707e+00
    6.930669e+00    3.880307e+02    5.300195e-01    3.378856e+07    1.730284e-08    4.228997e-11    1.617705e-08   -2.202707e+00
    7.040185e+00    3.989131e+02    5.118275e-01    3.323797e+07    1.725414e-08    4.096184e-11    1.611260e-08   -2.197706e+00
    7.152323e+00    4.100373e+02    4.939861e-01    3.268449e+07    1.720443e-08    3.967671e-11    1.604680e-08   -2.192706e+00
    7.267128e+00    4.214059e+02    4.764963e-01    3.212809e+07    1.715369e-08    3.843307e-11    1.597965e-08   -2.187706e+00
    7.384651e+00    4.330202e+02    4.593588e-01    3.156878e+07    1.710190e-08    3.722950e-11    1.591109e-08   -2.182707e+00
    7.504934e+00    4.448822e+02    4.425745e-01    3.100655e+07    1.704904e-08    3.606462e-11    1.584113e-08   -2.177707e+00
    7.628021e+00    4.569922e+02    4.261441e-01    3.044142e+07    1.699510e-08    3.493712e-11    1.576972e-08   -2.172707e+00
    7.753945e+00    4.693508e+02    4.100684e-01    2.987338e+07    1.694005e-08    3.384570e-11    1.569687e-08   -2.167706e+00
    7.882741e+00    4.819568e+02    3.943479e-01    2.930248e+07    1.688389e-08    3.278915e-11    1.562253e-08   -2.162707e+00
    8.014438e+00    4.948100e+02    3.789831e-01    2.872877e+07    1.682658e-08    3.176628e-11    1.554669e-08   -2.157706e+00
    8.149059e+00    5.079080e+02    3.639746e-01    2.815230e+07    1.676813e-08    3.077596e-11    1.546931e-08   -2.152706e+00
    8.286617e+00    5.212475e+02    3.493227e-01    2.757315e+07    1.670852e-08    2.981709e-11    1.539041e-08   -2.147706e+00
    8.427125e+00    5.348245e+02    3.350277e-01    2.699142e+07    1.664771e-08    2.888860e-11    1.530993e-08   -2.142707e+00
    8.570584e+00    5.486348e+02    3.210895e-01    2.640721e+07    1.658571e-08    2.798949e-11    1.522787e-08   -2.137707e+00
    8.716984e+00    5.626711e+02    3.075083e-01    2.582068e+07    1.652250e-08    2.711877e-11    1.514422e-08   -2.132707e+00
    8.866311e+00    5.769265e+02    2.942840e-01    2.523197e+07    1.645806e-08    2.627549e-11    1.505894e-08   -2.127706e+00
    9.018539e+00    5.913921e+02    2.814161e-01    2.464126e+07    1.639239e-08    2.545876e-11    1.497203e-08   -2.122707e+00
    9.173629e+00    6.060576e+02    2.689042e-01    2.404878e+07    1.632547e-08    2.466768e-11    1.488346e-08   -2.117706e+00
    9.331528e+00    6.209109e+02    2.567476e-01    2.345476e+07    1.625729e-08    2.390141e-11    1.479322e-08   -2.112706e+00
    9.492177e+00    6.359387e+02    2.449454e-01    2.285945e+07    1.618785e-08    2.315913e-11    1.470131e-08   -2.107706e+00
    9.655494e+00    6.511257e+02    2.334965e-01    2.226318e+07    1.611714e-08    2.244007e-11    1.460772e-08   -2.102707e+00
    9.821389e+00    6.664550e+02    2.223997e-01    2.166625e+07    1.604514e-08    2.174345e-11    1.451241e-08   -2.097707e+00
    9.989752e+00    6.819074e+02    2.116532e-01    2.106903e+07    1.597184e-08    2.106856e-11    1.441539e-08   -2.092707e+00
    1.016046e+01    6.974628e+02    2.012554e-01    2.047192e+07    1.589727e-08    2.041468e-11    1.431665e-08   -2.087707e+00
    1.033337e+01    7.130979e+02    1.912040e-01    1.987534e+07    1.582139e-08    1.978112e-11    1.421619e-08   -2.082707e+00
    1.050832e+01    7.287884e+02    1.814967e-01    1.927976e+07    1.574421e-08    1.916726e-11    1.411399e-08   -2.077707e+00
    1.068514e+01    7.445077e+02    1.721307e-01    1.868565e+07    1.566573e-08    1.857243e-11    1.401006e-08   -2.072706e+00
    1.086362e+01    7.602276e+02    1.631032e-01    1.809356e+07    1.558596e-08    1.799603e-11    1.390440e-08   -2.067706e+00
    1.104355e+01    7.759174e+02    1.544107e-01    1.750403e+07    1.550488e-08    1.743748e-11    1.379699e-08   -2.062706e+00
    1.122470e+01    7.915453e+02    1.460495e-01    1.691764e+07    1.542252e-08    1.689621e-11    1.368785e-08   -2.057707e+00
    1.140681e+01    8.070779e+02    1.380157e-01    1.633501e+07    1.533886e-08    1.637165e-11    1.357699e-08   -2.052707e+00
    1.158961e+01    8.224798e+02    1.303048e-01    1.575678e+07    1.525394e-08    1.586328e-11    1.346441e-08   -2.047707e+00
    1.177280e+01    8.377150e+02    1.229123e-01    1.518359e+07    1.516773e-08    1.537060e-11    1.335011e-08   -2.042706e+00
    1.195610e+01    8.527463e+02    1.158329e-01    1.461613e+07    1.508027e-08    1.489310e-11    1.323411e-08   -2.037707e+00
    1.213916e+01    8.675350e+02    1.090613e-01    1.405506e+07    1.499156e-08    1.443030e-11    1.311642e-08   -2.032706e+00
    1.232168e+01    8.820430e+02    1.025918e-01    1.350110e+07    1.490162e-08    1.398175e-11    1.299706e-08   -2.027706e+00
    1.250330e+01    8.962317e+02    9.641815e-02    1.295493e+07    1.481046e-08    1.354699e-11    1.287605e-08   -2.022706e+00
