# sky130 pfet_01v8 gm/ID Processed Lookup Table
# Corner: sf
# Temperature: 75C
# W = 2.0 um
# L = 5.4 um (5400 nm)
# Columns: gm/id [1/V]  gm/gds [V/V]  id/W [A/m]  ft [Hz]  Cgg/W [F/m]  Cgd/W [F/m]  Cgs/W [F/m]  Vov [V]
#         gm/id          gm/gds            id/W              ft           Cgg/W           Cgd/W           Cgs/W             Vov
    2.006138e+00    4.500272e+00    3.021790e+00    3.129929e+07    3.082556e-08    3.146974e-09    2.816519e-08   -2.779767e+00
    2.025705e+00    4.649639e+00    2.991485e+00    3.135124e+07    3.076298e-08    3.062119e-09    2.816954e-08   -2.774767e+00
    2.045527e+00    4.807311e+00    2.961193e+00    3.140081e+07    3.070090e-08    2.978444e-09    2.817327e-08   -2.769767e+00
    2.065605e+00    4.973870e+00    2.930914e+00    3.144785e+07    3.063935e-08    2.895992e-09    2.817637e-08   -2.764767e+00
    2.085938e+00    5.149943e+00    2.900652e+00    3.149220e+07    3.057836e-08    2.814800e-09    2.817883e-08   -2.759767e+00
    2.106524e+00    5.336205e+00    2.870409e+00    3.153372e+07    3.051793e-08    2.734907e-09    2.818065e-08   -2.754767e+00
    2.127358e+00    5.533371e+00    2.840187e+00    3.157218e+07    3.045812e-08    2.656347e-09    2.818181e-08   -2.749767e+00
    2.148441e+00    5.742226e+00    2.809989e+00    3.160747e+07    3.039894e-08    2.579150e-09    2.818232e-08   -2.744767e+00
    2.169767e+00    5.963603e+00    2.779817e+00    3.163940e+07    3.034039e-08    2.503347e-09    2.818217e-08   -2.739767e+00
    2.191334e+00    6.198396e+00    2.749674e+00    3.166781e+07    3.028252e-08    2.428964e-09    2.818136e-08   -2.734767e+00
    2.213136e+00    6.447567e+00    2.719564e+00    3.169250e+07    3.022533e-08    2.356024e-09    2.817988e-08   -2.729767e+00
    2.235169e+00    6.712137e+00    2.689487e+00    3.171330e+07    3.016884e-08    2.284547e-09    2.817773e-08   -2.724767e+00
    2.257429e+00    6.993214e+00    2.659450e+00    3.173007e+07    3.011308e-08    2.214552e-09    2.817491e-08   -2.719767e+00
    2.279909e+00    7.291966e+00    2.629453e+00    3.174261e+07    3.005803e-08    2.146054e-09    2.817143e-08   -2.714767e+00
    2.302605e+00    7.609650e+00    2.599502e+00    3.175078e+07    3.000373e-08    2.079066e-09    2.816727e-08   -2.709767e+00
    2.325509e+00    7.947604e+00    2.569599e+00    3.175442e+07    2.995017e-08    2.013595e-09    2.816245e-08   -2.704767e+00
    2.348616e+00    8.307241e+00    2.539747e+00    3.175337e+07    2.989736e-08    1.949648e-09    2.815697e-08   -2.699767e+00
    2.371919e+00    8.690080e+00    2.509951e+00    3.174747e+07    2.984531e-08    1.887230e-09    2.815082e-08   -2.694767e+00
    2.395410e+00    9.097714e+00    2.480214e+00    3.173658e+07    2.979402e-08    1.826340e-09    2.814400e-08   -2.689767e+00
    2.419089e+00    9.531855e+00    2.450541e+00    3.172064e+07    2.974348e-08    1.766979e-09    2.813653e-08   -2.684767e+00
    2.442943e+00    9.994271e+00    2.420935e+00    3.169947e+07    2.969371e-08    1.709140e-09    2.812842e-08   -2.679767e+00
    2.466967e+00    1.048686e+01    2.391400e+00    3.167295e+07    2.964471e-08    1.652819e-09    2.811964e-08   -2.674767e+00
    2.491161e+00    1.101164e+01    2.361941e+00    3.164109e+07    2.959644e-08    1.598005e-09    2.811023e-08   -2.669767e+00
    2.515514e+00    1.157065e+01    2.332562e+00    3.160371e+07    2.954894e-08    1.544688e-09    2.810018e-08   -2.664767e+00
    2.540025e+00    1.216611e+01    2.303267e+00    3.156083e+07    2.950217e-08    1.492855e-09    2.808949e-08   -2.659767e+00
    2.564689e+00    1.280030e+01    2.274059e+00    3.151237e+07    2.945612e-08    1.442490e-09    2.807817e-08   -2.654767e+00
    2.589502e+00    1.347559e+01    2.244946e+00    3.145830e+07    2.941080e-08    1.393577e-09    2.806622e-08   -2.649767e+00
    2.614462e+00    1.419449e+01    2.215928e+00    3.139862e+07    2.936619e-08    1.346095e-09    2.805365e-08   -2.644767e+00
    2.639569e+00    1.495955e+01    2.187012e+00    3.133335e+07    2.932227e-08    1.300027e-09    2.804047e-08   -2.639767e+00
    2.664822e+00    1.577345e+01    2.158202e+00    3.126250e+07    2.927904e-08    1.255349e-09    2.802668e-08   -2.634767e+00
    2.690224e+00    1.663896e+01    2.129501e+00    3.118614e+07    2.923646e-08    1.212038e-09    2.801228e-08   -2.629767e+00
    2.715771e+00    1.755890e+01    2.100915e+00    3.110429e+07    2.919453e-08    1.170071e-09    2.799729e-08   -2.624767e+00
    2.741470e+00    1.853619e+01    2.072446e+00    3.101702e+07    2.915324e-08    1.129422e-09    2.798170e-08   -2.619767e+00
    2.767322e+00    1.957384e+01    2.044101e+00    3.092444e+07    2.911256e-08    1.090065e-09    2.796552e-08   -2.614767e+00
    2.793335e+00    2.067491e+01    2.015881e+00    3.082663e+07    2.907247e-08    1.051973e-09    2.794876e-08   -2.609767e+00
    2.819508e+00    2.184250e+01    1.987792e+00    3.072368e+07    2.903295e-08    1.015119e-09    2.793141e-08   -2.604767e+00
    2.845857e+00    2.307987e+01    1.959837e+00    3.061577e+07    2.899398e-08    9.794730e-10    2.791349e-08   -2.599767e+00
    2.872381e+00    2.439018e+01    1.932019e+00    3.050295e+07    2.895554e-08    9.450085e-10    2.789500e-08   -2.594767e+00
    2.899095e+00    2.577679e+01    1.904343e+00    3.038541e+07    2.891762e-08    9.116955e-10    2.787593e-08   -2.589767e+00
    2.926002e+00    2.724297e+01    1.876812e+00    3.026326e+07    2.888018e-08    8.795055e-10    2.785629e-08   -2.584767e+00
    2.953121e+00    2.879217e+01    1.849428e+00    3.013668e+07    2.884320e-08    8.484085e-10    2.783610e-08   -2.579767e+00
    2.980452e+00    3.042768e+01    1.822196e+00    3.000577e+07    2.880666e-08    8.183755e-10    2.781534e-08   -2.574767e+00
    3.008014e+00    3.215300e+01    1.795119e+00    2.987071e+07    2.877053e-08    7.893770e-10    2.779402e-08   -2.569767e+00
    3.035819e+00    3.397157e+01    1.768200e+00    2.973166e+07    2.873480e-08    7.613840e-10    2.777215e-08   -2.564767e+00
    3.063874e+00    3.588679e+01    1.741441e+00    2.958873e+07    2.869944e-08    7.343670e-10    2.774971e-08   -2.559767e+00
    3.092197e+00    3.790218e+01    1.714846e+00    2.944213e+07    2.866442e-08    7.082980e-10    2.772671e-08   -2.554767e+00
    3.120802e+00    4.002119e+01    1.688416e+00    2.929198e+07    2.862971e-08    6.831475e-10    2.770316e-08   -2.549767e+00
    3.149702e+00    4.224732e+01    1.662154e+00    2.913843e+07    2.859531e-08    6.588880e-10    2.767904e-08   -2.544767e+00
    3.178911e+00    4.458402e+01    1.636064e+00    2.898162e+07    2.856116e-08    6.354910e-10    2.765436e-08   -2.539767e+00
    3.208445e+00    4.703478e+01    1.610146e+00    2.882171e+07    2.852727e-08    6.129300e-10    2.762912e-08   -2.534767e+00
    3.238320e+00    4.960304e+01    1.584404e+00    2.865882e+07    2.849360e-08    5.911770e-10    2.760332e-08   -2.529767e+00
    3.268546e+00    5.229223e+01    1.558839e+00    2.849306e+07    2.846013e-08    5.702070e-10    2.757694e-08   -2.524767e+00
    3.299146e+00    5.510590e+01    1.533453e+00    2.832460e+07    2.842682e-08    5.499930e-10    2.755000e-08   -2.519767e+00
    3.330134e+00    5.804740e+01    1.508249e+00    2.815356e+07    2.839367e-08    5.305100e-10    2.752247e-08   -2.514767e+00
    3.361525e+00    6.112018e+01    1.483227e+00    2.798003e+07    2.836063e-08    5.117330e-10    2.749437e-08   -2.509767e+00
    3.393336e+00    6.432766e+01    1.458390e+00    2.780415e+07    2.832769e-08    4.936384e-10    2.746569e-08   -2.504767e+00
    3.425586e+00    6.767330e+01    1.433739e+00    2.762601e+07    2.829482e-08    4.762023e-10    2.743640e-08   -2.499767e+00
    3.458289e+00    7.116043e+01    1.409277e+00    2.744573e+07    2.826200e-08    4.594017e-10    2.740652e-08   -2.494767e+00
    3.491465e+00    7.479243e+01    1.385003e+00    2.726339e+07    2.822921e-08    4.432142e-10    2.737604e-08   -2.489767e+00
    3.525132e+00    7.857278e+01    1.360920e+00    2.707910e+07    2.819641e-08    4.276182e-10    2.734494e-08   -2.484767e+00
    3.559306e+00    8.250477e+01    1.337029e+00    2.689294e+07    2.816359e-08    4.125925e-10    2.731322e-08   -2.479767e+00
    3.594007e+00    8.659179e+01    1.313331e+00    2.670500e+07    2.813073e-08    3.981167e-10    2.728087e-08   -2.474767e+00
    3.629254e+00    9.083730e+01    1.289828e+00    2.651535e+07    2.809778e-08    3.841707e-10    2.724788e-08   -2.469767e+00
    3.665065e+00    9.524457e+01    1.266520e+00    2.632407e+07    2.806474e-08    3.707354e-10    2.721425e-08   -2.464767e+00
    3.701460e+00    9.981710e+01    1.243410e+00    2.613123e+07    2.803158e-08    3.577921e-10    2.717995e-08   -2.459767e+00
    3.738458e+00    1.045582e+02    1.220497e+00    2.593690e+07    2.799827e-08    3.453227e-10    2.714498e-08   -2.454767e+00
    3.776080e+00    1.094714e+02    1.197783e+00    2.574113e+07    2.796480e-08    3.333097e-10    2.710932e-08   -2.449767e+00
    3.814348e+00    1.145600e+02    1.175268e+00    2.554399e+07    2.793113e-08    3.217361e-10    2.707297e-08   -2.444767e+00
    3.853279e+00    1.198276e+02    1.152954e+00    2.534553e+07    2.789724e-08    3.105859e-10    2.703592e-08   -2.439767e+00
    3.892899e+00    1.252776e+02    1.130842e+00    2.514580e+07    2.786310e-08    2.998429e-10    2.699814e-08   -2.434767e+00
    3.933229e+00    1.309135e+02    1.108931e+00    2.494485e+07    2.782871e-08    2.894921e-10    2.695963e-08   -2.429767e+00
    3.974289e+00    1.367388e+02    1.087225e+00    2.474272e+07    2.779402e-08    2.795187e-10    2.692037e-08   -2.424767e+00
    4.016104e+00    1.427572e+02    1.065722e+00    2.453946e+07    2.775903e-08    2.699086e-10    2.688033e-08   -2.419767e+00
    4.058700e+00    1.489723e+02    1.044425e+00    2.433510e+07    2.772369e-08    2.606482e-10    2.683952e-08   -2.414767e+00
    4.102096e+00    1.553877e+02    1.023332e+00    2.412966e+07    2.768800e-08    2.517240e-10    2.679790e-08   -2.409767e+00
    4.146320e+00    1.620072e+02    1.002447e+00    2.392320e+07    2.765191e-08    2.431237e-10    2.675548e-08   -2.404767e+00
    4.191401e+00    1.688346e+02    9.817680e-01    2.371574e+07    2.761541e-08    2.348347e-10    2.671221e-08   -2.399767e+00
    4.237360e+00    1.758736e+02    9.612970e-01    2.350729e+07    2.757849e-08    2.268455e-10    2.666810e-08   -2.394767e+00
    4.284225e+00    1.831282e+02    9.410345e-01    2.329789e+07    2.754110e-08    2.191446e-10    2.662311e-08   -2.389767e+00
    4.332023e+00    1.906024e+02    9.209815e-01    2.308757e+07    2.750323e-08    2.117210e-10    2.657723e-08   -2.384767e+00
    4.380786e+00    1.983002e+02    9.011380e-01    2.287633e+07    2.746485e-08    2.045644e-10    2.653043e-08   -2.379767e+00
    4.430543e+00    2.062257e+02    8.815045e-01    2.266419e+07    2.742593e-08    1.976646e-10    2.648272e-08   -2.374767e+00
    4.481321e+00    2.143830e+02    8.620825e-01    2.245117e+07    2.738647e-08    1.910118e-10    2.643404e-08   -2.369767e+00
    4.533153e+00    2.227765e+02    8.428720e-01    2.223729e+07    2.734641e-08    1.845967e-10    2.638438e-08   -2.364767e+00
    4.586070e+00    2.314105e+02    8.238740e-01    2.202254e+07    2.730575e-08    1.784104e-10    2.633373e-08   -2.359767e+00
    4.640104e+00    2.402894e+02    8.050890e-01    2.180696e+07    2.726445e-08    1.724440e-10    2.628206e-08   -2.354767e+00
    4.695291e+00    2.494177e+02    7.865175e-01    2.159052e+07    2.722249e-08    1.666895e-10    2.622933e-08   -2.349767e+00
    4.751665e+00    2.588001e+02    7.681600e-01    2.137325e+07    2.717985e-08    1.611386e-10    2.617554e-08   -2.344767e+00
    4.809263e+00    2.684412e+02    7.500170e-01    2.115514e+07    2.713650e-08    1.557839e-10    2.612065e-08   -2.339767e+00
    4.868116e+00    2.783456e+02    7.320900e-01    2.093620e+07    2.709241e-08    1.506178e-10    2.606464e-08   -2.334767e+00
    4.928268e+00    2.885184e+02    7.143785e-01    2.071643e+07    2.704755e-08    1.456332e-10    2.600748e-08   -2.329767e+00
    4.989757e+00    2.989644e+02    6.968835e-01    2.049582e+07    2.700191e-08    1.408235e-10    2.594915e-08   -2.324767e+00
    5.052617e+00    3.096885e+02    6.796060e-01    2.027437e+07    2.695544e-08    1.361819e-10    2.588961e-08   -2.319767e+00
    5.116895e+00    3.206960e+02    6.625460e-01    2.005206e+07    2.690814e-08    1.317023e-10    2.582884e-08   -2.314767e+00
    5.182635e+00    3.319920e+02    6.457040e-01    1.982891e+07    2.685996e-08    1.273785e-10    2.576682e-08   -2.309767e+00
    5.249870e+00    3.435815e+02    6.290815e-01    1.960490e+07    2.681088e-08    1.232047e-10    2.570351e-08   -2.304767e+00
    5.318651e+00    3.554697e+02    6.126785e-01    1.938001e+07    2.676087e-08    1.191755e-10    2.563887e-08   -2.299767e+00
    5.389022e+00    3.676622e+02    5.964955e-01    1.915424e+07    2.670991e-08    1.152853e-10    2.557289e-08   -2.294767e+00
    5.461029e+00    3.801641e+02    5.805335e-01    1.892757e+07    2.665797e-08    1.115291e-10    2.550553e-08   -2.289767e+00
    5.534721e+00    3.929807e+02    5.647925e-01    1.869998e+07    2.660502e-08    1.079018e-10    2.543676e-08   -2.284767e+00
    5.610140e+00    4.061175e+02    5.492740e-01    1.847147e+07    2.655103e-08    1.043987e-10    2.536655e-08   -2.279767e+00
    5.687341e+00    4.195796e+02    5.339780e-01    1.824202e+07    2.649597e-08    1.010154e-10    2.529485e-08   -2.274767e+00
    5.766375e+00    4.333725e+02    5.189050e-01    1.801161e+07    2.643982e-08    9.774725e-11    2.522167e-08   -2.269767e+00
    5.847290e+00    4.475009e+02    5.040560e-01    1.778022e+07    2.638254e-08    9.459015e-11    2.514693e-08   -2.264767e+00
    5.930137e+00    4.619704e+02    4.894315e-01    1.754782e+07    2.632410e-08    9.154005e-11    2.507062e-08   -2.259767e+00
    6.014971e+00    4.767861e+02    4.750322e-01    1.731442e+07    2.626449e-08    8.859305e-11    2.499271e-08   -2.254767e+00
    6.101843e+00    4.919522e+02    4.608587e-01    1.707997e+07    2.620366e-08    8.574540e-11    2.491315e-08   -2.249767e+00
    6.190810e+00    5.074742e+02    4.469115e-01    1.684446e+07    2.614160e-08    8.299345e-11    2.483192e-08   -2.244767e+00
    6.281922e+00    5.233558e+02    4.331915e-01    1.660787e+07    2.607826e-08    8.033385e-11    2.474898e-08   -2.239767e+00
    6.375238e+00    5.396013e+02    4.196990e-01    1.637019e+07    2.601362e-08    7.776315e-11    2.466429e-08   -2.234767e+00
    6.470810e+00    5.562147e+02    4.064349e-01    1.613138e+07    2.594766e-08    7.527825e-11    2.457783e-08   -2.229767e+00
    6.568692e+00    5.731993e+02    3.933996e-01    1.589143e+07    2.588034e-08    7.287600e-11    2.448955e-08   -2.224767e+00
    6.668941e+00    5.905582e+02    3.805939e-01    1.565033e+07    2.581163e-08    7.055350e-11    2.439942e-08   -2.219767e+00
    6.771609e+00    6.082937e+02    3.680182e-01    1.540804e+07    2.574151e-08    6.830790e-11    2.430741e-08   -2.214767e+00
    6.876750e+00    6.264079e+02    3.556733e-01    1.516456e+07    2.566994e-08    6.613645e-11    2.421347e-08   -2.209767e+00
    6.984419e+00    6.449022e+02    3.435596e-01    1.491988e+07    2.559690e-08    6.403660e-11    2.411758e-08   -2.204767e+00
    7.094662e+00    6.637768e+02    3.316778e-01    1.467396e+07    2.552237e-08    6.200570e-11    2.401970e-08   -2.199767e+00
    7.207532e+00    6.830318e+02    3.200284e-01    1.442682e+07    2.544629e-08    6.004145e-11    2.391979e-08   -2.194767e+00
    7.323076e+00    7.026656e+02    3.086119e-01    1.417844e+07    2.536867e-08    5.814140e-11    2.381782e-08   -2.189767e+00
    7.441338e+00    7.226763e+02    2.974287e-01    1.392882e+07    2.528947e-08    5.630340e-11    2.371376e-08   -2.184767e+00
    7.562360e+00    7.430604e+02    2.864793e-01    1.367795e+07    2.520866e-08    5.452525e-11    2.360757e-08   -2.179767e+00
    7.686181e+00    7.638134e+02    2.757642e-01    1.342584e+07    2.512621e-08    5.280485e-11    2.349921e-08   -2.174767e+00
    7.812836e+00    7.849295e+02    2.652837e-01    1.317251e+07    2.504210e-08    5.114020e-11    2.338867e-08   -2.169767e+00
    7.942354e+00    8.064010e+02    2.550381e-01    1.291797e+07    2.495631e-08    4.952943e-11    2.327590e-08   -2.164767e+00
    8.074761e+00    8.282189e+02    2.450278e-01    1.266223e+07    2.486880e-08    4.797063e-11    2.316087e-08   -2.159767e+00
    8.210078e+00    8.503729e+02    2.352528e-01    1.240534e+07    2.477956e-08    4.646205e-11    2.304355e-08   -2.154767e+00
    8.348314e+00    8.728502e+02    2.257134e-01    1.214732e+07    2.468857e-08    4.500195e-11    2.292392e-08   -2.149767e+00
    8.489479e+00    8.956361e+02    2.164095e-01    1.188821e+07    2.459580e-08    4.358869e-11    2.280194e-08   -2.144767e+00
    8.633567e+00    9.187138e+02    2.073413e-01    1.162809e+07    2.450123e-08    4.222068e-11    2.267758e-08   -2.139767e+00
    8.780569e+00    9.420644e+02    1.985085e-01    1.136700e+07    2.440483e-08    4.089639e-11    2.255082e-08   -2.134767e+00
    8.930460e+00    9.656663e+02    1.899110e-01    1.110503e+07    2.430662e-08    3.961433e-11    2.242165e-08   -2.129767e+00
    9.083212e+00    9.894960e+02    1.815485e-01    1.084225e+07    2.420654e-08    3.837309e-11    2.229002e-08   -2.124767e+00
    9.238778e+00    1.013526e+03    1.734204e-01    1.057877e+07    2.410459e-08    3.717130e-11    2.215592e-08   -2.119767e+00
    9.397105e+00    1.037728e+03    1.655263e-01    1.031469e+07    2.400077e-08    3.600763e-11    2.201933e-08   -2.114767e+00
    9.558124e+00    1.062069e+03    1.578655e-01    1.005014e+07    2.389505e-08    3.488083e-11    2.188023e-08   -2.109767e+00
    9.721751e+00    1.086515e+03    1.504371e-01    9.785256e+06    2.378742e-08    3.378966e-11    2.173860e-08   -2.104767e+00
    9.887887e+00    1.111027e+03    1.432400e-01    9.520184e+06    2.367787e-08    3.273295e-11    2.159444e-08   -2.099767e+00
    1.005642e+01    1.135565e+03    1.362732e-01    9.255095e+06    2.356640e-08    3.170954e-11    2.144772e-08   -2.094767e+00
    1.022722e+01    1.160084e+03    1.295353e-01    8.990159e+06    2.345300e-08    3.071835e-11    2.129843e-08   -2.089767e+00
    1.040013e+01    1.184538e+03    1.230248e-01    8.725577e+06    2.333768e-08    2.975833e-11    2.114659e-08   -2.084767e+00
    1.057500e+01    1.208878e+03    1.167400e-01    8.461554e+06    2.322041e-08    2.882845e-11    2.099216e-08   -2.079767e+00
    1.075163e+01    1.233051e+03    1.106789e-01    8.198313e+06    2.310121e-08    2.792772e-11    2.083515e-08   -2.074767e+00
    1.092982e+01    1.257002e+03    1.048395e-01    7.936087e+06    2.298008e-08    2.705520e-11    2.067556e-08   -2.069767e+00
    1.110937e+01    1.280676e+03    9.921930e-02    7.675134e+06    2.285702e-08    2.620997e-11    2.051341e-08   -2.064767e+00
    1.129000e+01    1.304013e+03    9.381595e-02    7.415701e+06    2.273204e-08    2.539115e-11    2.034867e-08   -2.059767e+00
    1.147149e+01    1.326953e+03    8.862655e-02    7.158072e+06    2.260517e-08    2.459789e-11    2.018139e-08   -2.054767e+00
    1.165355e+01    1.349435e+03    8.364810e-02    6.902526e+06    2.247639e-08    2.382937e-11    2.001155e-08   -2.049767e+00
    1.183589e+01    1.371396e+03    7.887745e-02    6.649352e+06    2.234573e-08    2.308478e-11    1.983918e-08   -2.044767e+00
    1.201820e+01    1.392775e+03    7.431110e-02    6.398850e+06    2.221321e-08    2.236337e-11    1.966429e-08   -2.039767e+00
    1.220017e+01    1.413510e+03    6.994535e-02    6.151323e+06    2.207884e-08    2.166440e-11    1.948691e-08   -2.034767e+00
    1.238146e+01    1.433539e+03    6.577630e-02    5.907070e+06    2.194266e-08    2.098714e-11    1.930706e-08   -2.029767e+00
    1.256174e+01    1.452806e+03    6.179985e-02    5.666402e+06    2.180469e-08    2.033093e-11    1.912479e-08   -2.024767e+00
