# sky130 pfet_01v8 gm/ID Processed Lookup Table
# Corner: sf
# Temperature: 25C
# W = 2.0 um
# L = 0.18 um (180 nm)
# Columns: gm/id [1/V]  gm/gds [V/V]  id/W [A/m]  ft [Hz]  Cgg/W [F/m]  Cgd/W [F/m]  Cgs/W [F/m]  Vov [V]
#         gm/id          gm/gds            id/W              ft           Cgg/W           Cgd/W           Cgs/W             Vov
    1.439385e+00    1.875529e+00    8.430690e+01    1.454750e+10    1.327615e-09    3.344351e-11    1.051248e-09   -2.666681e+00
    1.453850e+00    1.909103e+00    8.369930e+01    1.459801e+10    1.326686e-09    3.195511e-11    1.051429e-09   -2.661681e+00
    1.468489e+00    1.943555e+00    8.309005e+01    1.464777e+10    1.325771e-09    3.049953e-11    1.051593e-09   -2.656681e+00
    1.483302e+00    1.978911e+00    8.247915e+01    1.469673e+10    1.324870e-09    2.907643e-11    1.051741e-09   -2.651681e+00
    1.498291e+00    2.015199e+00    8.186665e+01    1.474487e+10    1.323983e-09    2.768547e-11    1.051872e-09   -2.646681e+00
    1.513459e+00    2.052448e+00    8.125255e+01    1.479217e+10    1.323110e-09    2.632627e-11    1.051987e-09   -2.641681e+00
    1.528807e+00    2.090685e+00    8.063695e+01    1.483861e+10    1.322250e-09    2.499847e-11    1.052086e-09   -2.636681e+00
    1.544337e+00    2.129940e+00    8.001980e+01    1.488415e+10    1.321404e-09    2.370164e-11    1.052169e-09   -2.631681e+00
    1.560052e+00    2.170242e+00    7.940115e+01    1.492878e+10    1.320571e-09    2.243538e-11    1.052235e-09   -2.626681e+00
    1.575951e+00    2.211624e+00    7.878110e+01    1.497246e+10    1.319750e-09    2.119926e-11    1.052288e-09   -2.621681e+00
    1.592038e+00    2.254113e+00    7.815965e+01    1.501516e+10    1.318943e-09    1.999283e-11    1.052324e-09   -2.616681e+00
    1.608313e+00    2.297741e+00    7.753680e+01    1.505685e+10    1.318148e-09    1.881565e-11    1.052346e-09   -2.611681e+00
    1.624780e+00    2.342540e+00    7.691260e+01    1.509752e+10    1.317366e-09    1.766726e-11    1.052352e-09   -2.606681e+00
    1.641437e+00    2.388538e+00    7.628715e+01    1.513712e+10    1.316596e-09    1.654718e-11    1.052345e-09   -2.601681e+00
    1.658288e+00    2.435768e+00    7.566040e+01    1.517562e+10    1.315838e-09    1.545493e-11    1.052323e-09   -2.596681e+00
    1.675332e+00    2.484259e+00    7.503250e+01    1.521298e+10    1.315092e-09    1.439004e-11    1.052287e-09   -2.591681e+00
    1.692573e+00    2.534043e+00    7.440340e+01    1.524919e+10    1.314357e-09    1.335202e-11    1.052238e-09   -2.586681e+00
    1.710010e+00    2.585148e+00    7.377315e+01    1.528420e+10    1.313634e-09    1.234037e-11    1.052174e-09   -2.581681e+00
    1.727644e+00    2.637605e+00    7.314185e+01    1.531799e+10    1.312921e-09    1.135460e-11    1.052097e-09   -2.576681e+00
    1.745476e+00    2.691440e+00    7.250955e+01    1.535052e+10    1.312219e-09    1.039421e-11    1.052007e-09   -2.571681e+00
    1.763508e+00    2.746683e+00    7.187625e+01    1.538174e+10    1.311528e-09    9.458695e-12    1.051905e-09   -2.566681e+00
    1.781740e+00    2.803361e+00    7.124205e+01    1.541164e+10    1.310847e-09    8.547560e-12    1.051789e-09   -2.561681e+00
    1.800173e+00    2.861497e+00    7.060690e+01    1.544016e+10    1.310176e-09    7.660310e-12    1.051661e-09   -2.556681e+00
    1.818807e+00    2.921118e+00    6.997100e+01    1.546730e+10    1.309515e-09    6.796435e-12    1.051521e-09   -2.551681e+00
    1.837643e+00    2.982245e+00    6.933430e+01    1.549299e+10    1.308863e-09    5.955445e-12    1.051368e-09   -2.546681e+00
    1.856681e+00    3.044899e+00    6.869690e+01    1.551721e+10    1.308221e-09    5.136845e-12    1.051203e-09   -2.541681e+00
    1.875923e+00    3.109102e+00    6.805885e+01    1.553993e+10    1.307587e-09    4.340137e-12    1.051027e-09   -2.536681e+00
    1.895367e+00    3.174867e+00    6.742020e+01    1.556111e+10    1.306962e-09    3.564836e-12    1.050840e-09   -2.531681e+00
    1.915017e+00    3.242214e+00    6.678100e+01    1.558072e+10    1.306346e-09    2.810455e-12    1.050640e-09   -2.526681e+00
    1.934871e+00    3.311155e+00    6.614135e+01    1.559874e+10    1.305737e-09    2.076515e-12    1.050430e-09   -2.521681e+00
    1.954930e+00    3.381699e+00    6.550125e+01    1.561511e+10    1.305137e-09    1.362541e-12    1.050209e-09   -2.516681e+00
    1.975193e+00    3.453855e+00    6.486085e+01    1.562981e+10    1.304544e-09    6.680600e-13    1.049976e-09   -2.511681e+00
    1.995664e+00    3.527633e+00    6.422015e+01    1.564283e+10    1.303958e-09    7.390290e-15    1.049733e-09   -2.506681e+00
    2.016340e+00    3.603031e+00    6.357925e+01    1.565412e+10    1.303379e-09    6.642685e-13    1.049480e-09   -2.501681e+00
    2.037225e+00    3.680056e+00    6.293820e+01    1.566366e+10    1.302808e-09    1.303028e-12    1.049215e-09   -2.496681e+00
    2.058317e+00    3.758701e+00    6.229710e+01    1.567143e+10    1.302242e-09    1.924112e-12    1.048941e-09   -2.491681e+00
    2.079621e+00    3.838967e+00    6.165595e+01    1.567740e+10    1.301683e-09    2.527960e-12    1.048656e-09   -2.486681e+00
    2.101133e+00    3.920843e+00    6.101490e+01    1.568154e+10    1.301130e-09    3.115003e-12    1.048362e-09   -2.481681e+00
    2.122858e+00    4.004325e+00    6.037400e+01    1.568386e+10    1.300583e-09    3.685665e-12    1.048056e-09   -2.476681e+00
    2.144795e+00    4.089398e+00    5.973330e+01    1.568432e+10    1.300041e-09    4.240362e-12    1.047742e-09   -2.471681e+00
    2.166949e+00    4.176050e+00    5.909285e+01    1.568290e+10    1.299504e-09    4.779503e-12    1.047418e-09   -2.466681e+00
    2.189319e+00    4.264268e+00    5.845280e+01    1.567960e+10    1.298971e-09    5.303490e-12    1.047084e-09   -2.461681e+00
    2.211909e+00    4.354030e+00    5.781315e+01    1.567439e+10    1.298445e-09    5.812715e-12    1.046740e-09   -2.456681e+00
    2.234719e+00    4.445319e+00    5.717405e+01    1.566728e+10    1.297922e-09    6.307560e-12    1.046387e-09   -2.451681e+00
    2.257756e+00    4.538117e+00    5.653550e+01    1.565826e+10    1.297403e-09    6.788410e-12    1.046025e-09   -2.446681e+00
    2.281017e+00    4.632398e+00    5.589765e+01    1.564732e+10    1.296887e-09    7.255630e-12    1.045652e-09   -2.441681e+00
    2.304510e+00    4.728141e+00    5.526050e+01    1.563446e+10    1.296376e-09    7.709580e-12    1.045271e-09   -2.436681e+00
    2.328236e+00    4.825320e+00    5.462420e+01    1.561966e+10    1.295868e-09    8.150610e-12    1.044880e-09   -2.431681e+00
    2.352202e+00    4.923913e+00    5.398875e+01    1.560296e+10    1.295362e-09    8.579075e-12    1.044480e-09   -2.426681e+00
    2.376408e+00    5.023892e+00    5.335430e+01    1.558432e+10    1.294860e-09    8.995300e-12    1.044071e-09   -2.421681e+00
    2.400862e+00    5.125229e+00    5.272085e+01    1.556377e+10    1.294360e-09    9.399625e-12    1.043652e-09   -2.416681e+00
    2.425566e+00    5.227901e+00    5.208855e+01    1.554131e+10    1.293861e-09    9.792360e-12    1.043224e-09   -2.411681e+00
    2.450525e+00    5.331878e+00    5.145745e+01    1.551694e+10    1.293366e-09    1.017383e-11    1.042786e-09   -2.406681e+00
    2.475746e+00    5.437139e+00    5.082760e+01    1.549069e+10    1.292871e-09    1.054433e-11    1.042339e-09   -2.401681e+00
    2.501235e+00    5.543655e+00    5.019910e+01    1.546255e+10    1.292378e-09    1.090417e-11    1.041884e-09   -2.396681e+00
    2.526997e+00    5.651402e+00    4.957202e+01    1.543254e+10    1.291886e-09    1.125363e-11    1.041419e-09   -2.391681e+00
    2.553038e+00    5.760353e+00    4.894644e+01    1.540066e+10    1.291395e-09    1.159300e-11    1.040944e-09   -2.386681e+00
    2.579366e+00    5.870488e+00    4.832243e+01    1.536695e+10    1.290904e-09    1.192255e-11    1.040459e-09   -2.381681e+00
    2.605985e+00    5.981777e+00    4.770005e+01    1.533139e+10    1.290415e-09    1.224254e-11    1.039966e-09   -2.376681e+00
    2.632906e+00    6.094206e+00    4.707940e+01    1.529403e+10    1.289925e-09    1.255325e-11    1.039463e-09   -2.371681e+00
    2.660133e+00    6.207745e+00    4.646052e+01    1.525487e+10    1.289434e-09    1.285491e-11    1.038950e-09   -2.366681e+00
    2.687676e+00    6.322380e+00    4.584351e+01    1.521392e+10    1.288943e-09    1.314779e-11    1.038427e-09   -2.361681e+00
    2.715544e+00    6.438091e+00    4.522842e+01    1.517121e+10    1.288452e-09    1.343212e-11    1.037894e-09   -2.356681e+00
    2.743744e+00    6.554858e+00    4.461533e+01    1.512676e+10    1.287959e-09    1.370813e-11    1.037352e-09   -2.351681e+00
    2.772285e+00    6.672663e+00    4.400431e+01    1.508058e+10    1.287464e-09    1.397605e-11    1.036799e-09   -2.346681e+00
    2.801176e+00    6.791493e+00    4.339543e+01    1.503269e+10    1.286968e-09    1.423609e-11    1.036236e-09   -2.341681e+00
    2.830427e+00    6.911330e+00    4.278875e+01    1.498311e+10    1.286470e-09    1.448848e-11    1.035663e-09   -2.336681e+00
    2.860048e+00    7.032162e+00    4.218435e+01    1.493186e+10    1.285970e-09    1.473342e-11    1.035079e-09   -2.331681e+00
    2.890048e+00    7.153975e+00    4.158228e+01    1.487896e+10    1.285467e-09    1.497110e-11    1.034484e-09   -2.326681e+00
    2.920438e+00    7.276758e+00    4.098262e+01    1.482442e+10    1.284962e-09    1.520173e-11    1.033879e-09   -2.321681e+00
    2.951230e+00    7.400501e+00    4.038543e+01    1.476828e+10    1.284453e-09    1.542549e-11    1.033262e-09   -2.316681e+00
    2.982432e+00    7.525190e+00    3.979077e+01    1.471053e+10    1.283940e-09    1.564258e-11    1.032634e-09   -2.311681e+00
    3.014059e+00    7.650820e+00    3.919872e+01    1.465122e+10    1.283423e-09    1.585315e-11    1.031995e-09   -2.306681e+00
    3.046122e+00    7.777384e+00    3.860932e+01    1.459035e+10    1.282903e-09    1.605739e-11    1.031344e-09   -2.301681e+00
    3.078631e+00    7.904868e+00    3.802265e+01    1.452794e+10    1.282378e-09    1.625547e-11    1.030680e-09   -2.296681e+00
    3.111600e+00    8.033272e+00    3.743877e+01    1.446401e+10    1.281848e-09    1.644754e-11    1.030005e-09   -2.291681e+00
    3.145042e+00    8.162584e+00    3.685773e+01    1.439859e+10    1.281313e-09    1.663376e-11    1.029317e-09   -2.286681e+00
    3.178972e+00    8.292807e+00    3.627960e+01    1.433168e+10    1.280773e-09    1.681428e-11    1.028617e-09   -2.281681e+00
    3.213401e+00    8.423929e+00    3.570443e+01    1.426332e+10    1.280226e-09    1.698925e-11    1.027902e-09   -2.276681e+00
    3.248344e+00    8.555944e+00    3.513229e+01    1.419350e+10    1.279674e-09    1.715881e-11    1.027176e-09   -2.271681e+00
    3.283816e+00    8.688852e+00    3.456323e+01    1.412226e+10    1.279114e-09    1.732310e-11    1.026434e-09   -2.266681e+00
    3.319833e+00    8.822648e+00    3.399732e+01    1.404960e+10    1.278548e-09    1.748224e-11    1.025680e-09   -2.261681e+00
    3.356410e+00    8.957333e+00    3.343460e+01    1.397556e+10    1.277974e-09    1.763637e-11    1.024910e-09   -2.256681e+00
    3.393562e+00    9.092897e+00    3.287513e+01    1.390014e+10    1.277393e-09    1.778561e-11    1.024126e-09   -2.251681e+00
    3.431306e+00    9.229337e+00    3.231898e+01    1.382335e+10    1.276803e-09    1.793008e-11    1.023327e-09   -2.246681e+00
    3.469661e+00    9.366659e+00    3.176619e+01    1.374523e+10    1.276205e-09    1.806989e-11    1.022512e-09   -2.241681e+00
    3.508643e+00    9.504853e+00    3.121681e+01    1.366578e+10    1.275597e-09    1.820516e-11    1.021681e-09   -2.236681e+00
    3.548270e+00    9.643920e+00    3.067092e+01    1.358501e+10    1.274981e-09    1.833598e-11    1.020834e-09   -2.231681e+00
    3.588562e+00    9.783855e+00    3.012855e+01    1.350296e+10    1.274354e-09    1.846247e-11    1.019969e-09   -2.226681e+00
    3.629537e+00    9.924657e+00    2.958976e+01    1.341961e+10    1.273716e-09    1.858472e-11    1.019088e-09   -2.221681e+00
    3.671216e+00    1.006633e+01    2.905460e+01    1.333500e+10    1.273069e-09    1.870282e-11    1.018188e-09   -2.216681e+00
    3.713621e+00    1.020886e+01    2.852312e+01    1.324915e+10    1.272409e-09    1.881688e-11    1.017270e-09   -2.211681e+00
    3.756773e+00    1.035225e+01    2.799537e+01    1.316206e+10    1.271738e-09    1.892697e-11    1.016333e-09   -2.206681e+00
    3.800691e+00    1.049649e+01    2.747141e+01    1.307374e+10    1.271054e-09    1.903318e-11    1.015376e-09   -2.201681e+00
    3.845404e+00    1.064159e+01    2.695128e+01    1.298421e+10    1.270358e-09    1.913560e-11    1.014400e-09   -2.196681e+00
    3.890930e+00    1.078754e+01    2.643504e+01    1.289349e+10    1.269648e-09    1.923428e-11    1.013403e-09   -2.191681e+00
    3.937297e+00    1.093434e+01    2.592273e+01    1.280158e+10    1.268924e-09    1.932933e-11    1.012385e-09   -2.186681e+00
    3.984530e+00    1.108198e+01    2.541440e+01    1.270850e+10    1.268186e-09    1.942080e-11    1.011344e-09   -2.181681e+00
    4.032655e+00    1.123046e+01    2.491010e+01    1.261427e+10    1.267432e-09    1.950876e-11    1.010281e-09   -2.176681e+00
    4.081701e+00    1.137978e+01    2.440987e+01    1.251889e+10    1.266663e-09    1.959328e-11    1.009194e-09   -2.171681e+00
    4.131691e+00    1.152992e+01    2.391378e+01    1.242237e+10    1.265878e-09    1.967441e-11    1.008084e-09   -2.166681e+00
    4.182661e+00    1.168089e+01    2.342185e+01    1.232474e+10    1.265075e-09    1.975222e-11    1.006949e-09   -2.161681e+00
    4.234638e+00    1.183268e+01    2.293414e+01    1.222600e+10    1.264255e-09    1.982677e-11    1.005787e-09   -2.156681e+00
    4.287651e+00    1.198528e+01    2.245069e+01    1.212615e+10    1.263416e-09    1.989810e-11    1.004600e-09   -2.151681e+00
    4.341736e+00    1.213868e+01    2.197155e+01    1.202520e+10    1.262559e-09    1.996626e-11    1.003386e-09   -2.146681e+00
    4.396926e+00    1.229287e+01    2.149676e+01    1.192319e+10    1.261682e-09    2.003131e-11    1.002143e-09   -2.141681e+00
    4.453254e+00    1.244785e+01    2.102637e+01    1.182009e+10    1.260785e-09    2.009329e-11    1.000873e-09   -2.136681e+00
    4.510760e+00    1.260362e+01    2.056042e+01    1.171595e+10    1.259866e-09    2.015224e-11    9.995710e-10   -2.131681e+00
    4.569479e+00    1.276015e+01    2.009895e+01    1.161074e+10    1.258925e-09    2.020819e-11    9.982390e-10   -2.126681e+00
    4.629447e+00    1.291743e+01    1.964201e+01    1.150450e+10    1.257962e-09    2.026119e-11    9.968755e-10   -2.121681e+00
    4.690707e+00    1.307545e+01    1.918965e+01    1.139721e+10    1.256975e-09    2.031127e-11    9.954790e-10   -2.116681e+00
    4.753303e+00    1.323421e+01    1.874190e+01    1.128890e+10    1.255965e-09    2.035847e-11    9.940490e-10   -2.111681e+00
    4.817272e+00    1.339369e+01    1.829880e+01    1.117957e+10    1.254929e-09    2.040280e-11    9.925840e-10   -2.106681e+00
    4.882664e+00    1.355387e+01    1.786041e+01    1.106922e+10    1.253866e-09    2.044430e-11    9.910830e-10   -2.101681e+00
    4.949523e+00    1.371474e+01    1.742675e+01    1.095787e+10    1.252777e-09    2.048300e-11    9.895445e-10   -2.096681e+00
    5.017893e+00    1.387626e+01    1.699788e+01    1.084551e+10    1.251660e-09    2.051890e-11    9.879685e-10   -2.091681e+00
    5.087831e+00    1.403844e+01    1.657383e+01    1.073216e+10    1.250514e-09    2.055204e-11    9.863525e-10   -2.086681e+00
    5.159380e+00    1.420124e+01    1.615464e+01    1.061781e+10    1.249338e-09    2.058243e-11    9.846960e-10   -2.081681e+00
    5.232598e+00    1.436466e+01    1.574037e+01    1.050248e+10    1.248131e-09    2.061010e-11    9.829975e-10   -2.076681e+00
    5.307541e+00    1.452865e+01    1.533103e+01    1.038617e+10    1.246893e-09    2.063504e-11    9.812560e-10   -2.071681e+00
    5.384257e+00    1.469321e+01    1.492668e+01    1.026887e+10    1.245622e-09    2.065727e-11    9.794695e-10   -2.066681e+00
    5.462813e+00    1.485829e+01    1.452735e+01    1.015060e+10    1.244317e-09    2.067679e-11    9.776375e-10   -2.061681e+00
    5.543262e+00    1.502387e+01    1.413308e+01    1.003136e+10    1.242977e-09    2.069363e-11    9.757575e-10   -2.056681e+00
    5.625673e+00    1.518994e+01    1.374393e+01    9.911141e+09    1.241601e-09    2.070778e-11    9.738290e-10   -2.051681e+00
    5.710102e+00    1.535642e+01    1.335991e+01    9.789951e+09    1.240186e-09    2.071924e-11    9.718505e-10   -2.046681e+00
    5.796623e+00    1.552333e+01    1.298108e+01    9.667799e+09    1.238735e-09    2.072801e-11    9.698195e-10   -2.041681e+00
    5.885293e+00    1.569060e+01    1.260746e+01    9.544668e+09    1.237243e-09    2.073409e-11    9.677355e-10   -2.036681e+00
    5.976193e+00    1.585820e+01    1.223911e+01    9.420584e+09    1.235710e-09    2.073748e-11    9.655960e-10   -2.031681e+00
    6.069384e+00    1.602608e+01    1.187604e+01    9.295517e+09    1.234136e-09    2.073818e-11    9.634000e-10   -2.026681e+00
    6.164947e+00    1.619421e+01    1.151832e+01    9.169497e+09    1.232517e-09    2.073617e-11    9.611460e-10   -2.021681e+00
    6.262953e+00    1.636252e+01    1.116596e+01    9.042502e+09    1.230854e-09    2.073144e-11    9.588315e-10   -2.016681e+00
    6.363478e+00    1.653099e+01    1.081901e+01    8.914539e+09    1.229145e-09    2.072400e-11    9.564555e-10   -2.011681e+00
    6.466597e+00    1.669954e+01    1.047751e+01    8.785606e+09    1.227389e-09    2.071382e-11    9.540155e-10   -2.006681e+00
    6.572399e+00    1.686813e+01    1.014148e+01    8.655709e+09    1.225583e-09    2.070089e-11    9.515105e-10   -2.001681e+00
    6.680957e+00    1.703669e+01    9.810975e+00    8.524837e+09    1.223728e-09    2.068519e-11    9.489375e-10   -1.996681e+00
    6.792350e+00    1.720516e+01    9.486025e+00    8.392993e+09    1.221821e-09    2.066671e-11    9.462960e-10   -1.991681e+00
    6.906667e+00    1.737348e+01    9.166665e+00    8.260186e+09    1.219861e-09    2.064543e-11    9.435835e-10   -1.986681e+00
    7.023989e+00    1.754156e+01    8.852925e+00    8.126403e+09    1.217846e-09    2.062132e-11    9.407975e-10   -1.981681e+00
    7.144401e+00    1.770936e+01    8.544845e+00    7.991656e+09    1.215776e-09    2.059437e-11    9.379365e-10   -1.976681e+00
    7.267982e+00    1.787677e+01    8.242460e+00    7.855942e+09    1.213648e-09    2.056455e-11    9.349990e-10   -1.971681e+00
    7.394823e+00    1.804373e+01    7.945795e+00    7.719266e+09    1.211461e-09    2.053184e-11    9.319820e-10   -1.966681e+00
    7.524989e+00    1.821012e+01    7.654895e+00    7.581627e+09    1.209213e-09    2.049621e-11    9.288840e-10   -1.961681e+00
    7.658580e+00    1.837589e+01    7.369780e+00    7.443040e+09    1.206903e-09    2.045764e-11    9.257030e-10   -1.956681e+00
    7.795666e+00    1.854091e+01    7.090485e+00    7.303507e+09    1.204531e-09    2.041610e-11    9.224365e-10   -1.951681e+00
    7.936332e+00    1.870511e+01    6.817035e+00    7.163043e+09    1.202092e-09    2.037155e-11    9.190825e-10   -1.946681e+00
    8.080631e+00    1.886837e+01    6.549470e+00    7.021657e+09    1.199588e-09    2.032398e-11    9.156395e-10   -1.941681e+00
    8.228651e+00    1.903058e+01    6.287805e+00    6.879366e+09    1.197015e-09    2.027334e-11    9.121045e-10   -1.936681e+00
    8.380441e+00    1.919162e+01    6.032075e+00    6.736187e+09    1.194372e-09    2.021962e-11    9.084760e-10   -1.931681e+00
    8.536062e+00    1.935139e+01    5.782300e+00    6.592147e+09    1.191658e-09    2.016278e-11    9.047515e-10   -1.926681e+00
    8.695561e+00    1.950974e+01    5.538505e+00    6.447268e+09    1.188871e-09    2.010277e-11    9.009290e-10   -1.921681e+00
    8.858988e+00    1.966656e+01    5.300705e+00    6.301586e+09    1.186009e-09    2.003959e-11    8.970065e-10   -1.916681e+00
    9.026370e+00    1.982171e+01    5.068920e+00    6.155136e+09    1.183071e-09    1.997319e-11    8.929820e-10   -1.911681e+00
