# sky130 pfet_01v8 gm/ID Processed Lookup Table
# Corner: sf
# Temperature: 25C
# W = 2.0 um
# L = 0.36 um (360 nm)
# Columns: gm/id [1/V]  gm/gds [V/V]  id/W [A/m]  ft [Hz]  Cgg/W [F/m]  Cgd/W [F/m]  Cgs/W [F/m]  Vov [V]
#         gm/id          gm/gds            id/W              ft           Cgg/W           Cgd/W           Cgs/W             Vov
    1.834899e+00    3.202826e+00    4.230525e+01    5.353375e+09    2.307804e-09    1.046537e-10    2.101797e-09   -2.781136e+00
    1.853265e+00    3.280505e+00    4.191698e+01    5.362794e+09    2.305454e-09    1.014534e-10    2.101771e-09   -2.776136e+00
    1.871873e+00    3.361102e+00    4.152843e+01    5.371822e+09    2.303141e-09    9.833260e-11    2.101709e-09   -2.771136e+00
    1.890723e+00    3.444734e+00    4.113962e+01    5.380435e+09    2.300865e-09    9.529040e-11    2.101609e-09   -2.766136e+00
    1.909819e+00    3.531528e+00    4.075060e+01    5.388627e+09    2.298625e-09    9.232580e-11    2.101473e-09   -2.761136e+00
    1.929158e+00    3.621608e+00    4.036137e+01    5.396376e+09    2.296422e-09    8.943785e-11    2.101301e-09   -2.756136e+00
    1.948742e+00    3.715104e+00    3.997197e+01    5.403668e+09    2.294253e-09    8.662555e-11    2.101094e-09   -2.751136e+00
    1.968572e+00    3.812147e+00    3.958243e+01    5.410489e+09    2.292119e-09    8.388780e-11    2.100851e-09   -2.746136e+00
    1.988647e+00    3.912868e+00    3.919277e+01    5.416821e+09    2.290021e-09    8.122340e-11    2.100573e-09   -2.741136e+00
    2.008968e+00    4.017402e+00    3.880304e+01    5.422647e+09    2.287955e-09    7.863125e-11    2.100262e-09   -2.736136e+00
    2.029533e+00    4.125880e+00    3.841324e+01    5.427950e+09    2.285922e-09    7.611005e-11    2.099917e-09   -2.731136e+00
    2.050343e+00    4.238439e+00    3.802344e+01    5.432715e+09    2.283922e-09    7.365855e-11    2.099538e-09   -2.726136e+00
    2.071398e+00    4.355210e+00    3.763365e+01    5.436925e+09    2.281952e-09    7.127555e-11    2.099127e-09   -2.721136e+00
    2.092694e+00    4.476320e+00    3.724390e+01    5.440558e+09    2.280015e-09    6.895970e-11    2.098684e-09   -2.716136e+00
    2.114232e+00    4.601901e+00    3.685426e+01    5.443603e+09    2.278107e-09    6.670965e-11    2.098209e-09   -2.711136e+00
    2.136011e+00    4.732076e+00    3.646473e+01    5.446041e+09    2.276228e-09    6.452405e-11    2.097702e-09   -2.706136e+00
    2.158029e+00    4.866968e+00    3.607538e+01    5.447858e+09    2.274377e-09    6.240155e-11    2.097165e-09   -2.701136e+00
    2.180284e+00    5.006684e+00    3.568623e+01    5.449035e+09    2.272554e-09    6.034085e-11    2.096597e-09   -2.696136e+00
    2.202776e+00    5.151338e+00    3.529733e+01    5.449560e+09    2.270758e-09    5.834045e-11    2.096000e-09   -2.691136e+00
    2.225503e+00    5.301028e+00    3.490872e+01    5.449416e+09    2.268988e-09    5.639905e-11    2.095372e-09   -2.686136e+00
    2.248463e+00    5.455844e+00    3.452045e+01    5.448591e+09    2.267243e-09    5.451530e-11    2.094715e-09   -2.681136e+00
    2.271655e+00    5.615873e+00    3.413256e+01    5.447072e+09    2.265522e-09    5.268775e-11    2.094030e-09   -2.676136e+00
    2.295079e+00    5.781183e+00    3.374509e+01    5.444847e+09    2.263824e-09    5.091505e-11    2.093317e-09   -2.671136e+00
    2.318734e+00    5.951843e+00    3.335810e+01    5.441907e+09    2.262149e-09    4.919583e-11    2.092575e-09   -2.666136e+00
    2.342618e+00    6.127897e+00    3.297162e+01    5.438238e+09    2.260496e-09    4.752875e-11    2.091805e-09   -2.661136e+00
    2.366732e+00    6.309389e+00    3.258572e+01    5.433838e+09    2.258863e-09    4.591246e-11    2.091008e-09   -2.656136e+00
    2.391074e+00    6.496339e+00    3.220042e+01    5.428693e+09    2.257249e-09    4.434561e-11    2.090183e-09   -2.651136e+00
    2.415648e+00    6.688771e+00    3.181580e+01    5.422804e+09    2.255654e-09    4.282690e-11    2.089332e-09   -2.646136e+00
    2.440452e+00    6.886682e+00    3.143188e+01    5.416165e+09    2.254078e-09    4.135504e-11    2.088453e-09   -2.641136e+00
    2.465489e+00    7.090062e+00    3.104873e+01    5.408772e+09    2.252519e-09    3.992871e-11    2.087549e-09   -2.636136e+00
    2.490759e+00    7.298891e+00    3.066640e+01    5.400625e+09    2.250974e-09    3.854667e-11    2.086618e-09   -2.631136e+00
    2.516266e+00    7.513131e+00    3.028492e+01    5.391720e+09    2.249447e-09    3.720768e-11    2.085661e-09   -2.626136e+00
    2.542012e+00    7.732749e+00    2.990436e+01    5.382067e+09    2.247932e-09    3.591050e-11    2.084678e-09   -2.621136e+00
    2.568002e+00    7.957687e+00    2.952477e+01    5.371663e+09    2.246432e-09    3.465394e-11    2.083669e-09   -2.616136e+00
    2.594239e+00    8.187887e+00    2.914618e+01    5.360514e+09    2.244943e-09    3.343681e-11    2.082635e-09   -2.611136e+00
    2.620729e+00    8.423281e+00    2.876866e+01    5.348627e+09    2.243466e-09    3.225797e-11    2.081575e-09   -2.606136e+00
    2.647474e+00    8.663787e+00    2.839225e+01    5.336004e+09    2.241999e-09    3.111627e-11    2.080489e-09   -2.601136e+00
    2.674485e+00    8.909338e+00    2.801700e+01    5.322660e+09    2.240542e-09    3.001063e-11    2.079377e-09   -2.596136e+00
    2.701766e+00    9.159845e+00    2.764296e+01    5.308599e+09    2.239094e-09    2.893994e-11    2.078241e-09   -2.591136e+00
    2.729323e+00    9.415226e+00    2.727017e+01    5.293829e+09    2.237655e-09    2.790316e-11    2.077079e-09   -2.586136e+00
    2.757167e+00    9.675392e+00    2.689868e+01    5.278365e+09    2.236221e-09    2.689924e-11    2.075890e-09   -2.581136e+00
    2.785304e+00    9.940256e+00    2.652854e+01    5.262216e+09    2.234794e-09    2.592719e-11    2.074676e-09   -2.576136e+00
    2.813745e+00    1.020975e+01    2.615979e+01    5.245397e+09    2.233371e-09    2.498602e-11    2.073437e-09   -2.571136e+00
    2.842497e+00    1.048377e+01    2.579248e+01    5.227911e+09    2.231953e-09    2.407478e-11    2.072171e-09   -2.566136e+00
    2.871573e+00    1.076226e+01    2.542666e+01    5.209783e+09    2.230538e-09    2.319252e-11    2.070880e-09   -2.561136e+00
    2.900980e+00    1.104513e+01    2.506236e+01    5.191015e+09    2.229125e-09    2.233834e-11    2.069562e-09   -2.556136e+00
    2.930731e+00    1.133233e+01    2.469962e+01    5.171624e+09    2.227714e-09    2.151137e-11    2.068217e-09   -2.551136e+00
    2.960841e+00    1.162380e+01    2.433849e+01    5.151629e+09    2.226303e-09    2.071073e-11    2.066845e-09   -2.546136e+00
    2.991317e+00    1.191947e+01    2.397901e+01    5.131034e+09    2.224891e-09    1.993561e-11    2.065447e-09   -2.541136e+00
    3.022173e+00    1.221931e+01    2.362122e+01    5.109857e+09    2.223478e-09    1.918517e-11    2.064021e-09   -2.536136e+00
    3.053424e+00    1.252328e+01    2.326515e+01    5.088110e+09    2.222063e-09    1.845864e-11    2.062567e-09   -2.531136e+00
    3.085078e+00    1.283134e+01    2.291085e+01    5.065803e+09    2.220645e-09    1.775525e-11    2.061086e-09   -2.526136e+00
    3.117158e+00    1.314348e+01    2.255834e+01    5.042957e+09    2.219222e-09    1.707426e-11    2.059575e-09   -2.521136e+00
    3.149670e+00    1.345970e+01    2.220768e+01    5.019577e+09    2.217794e-09    1.641495e-11    2.058036e-09   -2.516136e+00
    3.182633e+00    1.377997e+01    2.185889e+01    4.995678e+09    2.216360e-09    1.577663e-11    2.056467e-09   -2.511136e+00
    3.216061e+00    1.410431e+01    2.151200e+01    4.971272e+09    2.214918e-09    1.515861e-11    2.054869e-09   -2.506136e+00
    3.249968e+00    1.443273e+01    2.116706e+01    4.946367e+09    2.213469e-09    1.456023e-11    2.053239e-09   -2.501136e+00
    3.284374e+00    1.476525e+01    2.082409e+01    4.920981e+09    2.212010e-09    1.398087e-11    2.051579e-09   -2.496136e+00
    3.319293e+00    1.510191e+01    2.048313e+01    4.895121e+09    2.210541e-09    1.341991e-11    2.049887e-09   -2.491136e+00
    3.354741e+00    1.544272e+01    2.014420e+01    4.868797e+09    2.209060e-09    1.287674e-11    2.048163e-09   -2.486136e+00
    3.390739e+00    1.578775e+01    1.980735e+01    4.842021e+09    2.207568e-09    1.235081e-11    2.046405e-09   -2.481136e+00
    3.427300e+00    1.613705e+01    1.947260e+01    4.814801e+09    2.206063e-09    1.184154e-11    2.044614e-09   -2.476136e+00
    3.464448e+00    1.649067e+01    1.913998e+01    4.787149e+09    2.204543e-09    1.134839e-11    2.042789e-09   -2.471136e+00
    3.502198e+00    1.684868e+01    1.880952e+01    4.759073e+09    2.203008e-09    1.087085e-11    2.040928e-09   -2.466136e+00
    3.540571e+00    1.721115e+01    1.848124e+01    4.730582e+09    2.201456e-09    1.040840e-11    2.039031e-09   -2.461136e+00
    3.579590e+00    1.757817e+01    1.815518e+01    4.701686e+09    2.199887e-09    9.960560e-12    2.037097e-09   -2.456136e+00
    3.619271e+00    1.794981e+01    1.783137e+01    4.672390e+09    2.198299e-09    9.526860e-12    2.035125e-09   -2.451136e+00
    3.659637e+00    1.832617e+01    1.750983e+01    4.642702e+09    2.196691e-09    9.106830e-12    2.033115e-09   -2.446136e+00
    3.700710e+00    1.870734e+01    1.719058e+01    4.612632e+09    2.195063e-09    8.700040e-12    2.031064e-09   -2.441136e+00
    3.742516e+00    1.909344e+01    1.687366e+01    4.582189e+09    2.193412e-09    8.306060e-12    2.028972e-09   -2.436136e+00
    3.785072e+00    1.948454e+01    1.655909e+01    4.551371e+09    2.191738e-09    7.924475e-12    2.026839e-09   -2.431136e+00
    3.828408e+00    1.988079e+01    1.624690e+01    4.520193e+09    2.190038e-09    7.554885e-12    2.024662e-09   -2.426136e+00
    3.872546e+00    2.028228e+01    1.593710e+01    4.488657e+09    2.188314e-09    7.196905e-12    2.022441e-09   -2.421136e+00
    3.917515e+00    2.068915e+01    1.562973e+01    4.456774e+09    2.186562e-09    6.850170e-12    2.020175e-09   -2.416136e+00
    3.963338e+00    2.110152e+01    1.532481e+01    4.424543e+09    2.184781e-09    6.514310e-12    2.017862e-09   -2.411136e+00
    4.010041e+00    2.151950e+01    1.502237e+01    4.391970e+09    2.182971e-09    6.188985e-12    2.015500e-09   -2.406136e+00
    4.057656e+00    2.194325e+01    1.472241e+01    4.359062e+09    2.181129e-09    5.873855e-12    2.013089e-09   -2.401136e+00
    4.106212e+00    2.237290e+01    1.442499e+01    4.325824e+09    2.179255e-09    5.568605e-12    2.010628e-09   -2.396136e+00
    4.155741e+00    2.280860e+01    1.413011e+01    4.292263e+09    2.177347e-09    5.272910e-12    2.008113e-09   -2.391136e+00
    4.206269e+00    2.325046e+01    1.383779e+01    4.258376e+09    2.175404e-09    4.986480e-12    2.005544e-09   -2.386136e+00
    4.257833e+00    2.369866e+01    1.354806e+01    4.224171e+09    2.173423e-09    4.709017e-12    2.002921e-09   -2.381136e+00
    4.310467e+00    2.415337e+01    1.326094e+01    4.189655e+09    2.171404e-09    4.440242e-12    2.000239e-09   -2.376136e+00
    4.364204e+00    2.461471e+01    1.297646e+01    4.154826e+09    2.169344e-09    4.179882e-12    1.997499e-09   -2.371136e+00
    4.419079e+00    2.508284e+01    1.269463e+01    4.119686e+09    2.167243e-09    3.927679e-12    1.994699e-09   -2.366136e+00
    4.475133e+00    2.555795e+01    1.241548e+01    4.084244e+09    2.165099e-09    3.683377e-12    1.991835e-09   -2.361136e+00
    4.532399e+00    2.604017e+01    1.213903e+01    4.048496e+09    2.162910e-09    3.446733e-12    1.988907e-09   -2.356136e+00
    4.590923e+00    2.652971e+01    1.186529e+01    4.012449e+09    2.160674e-09    3.217513e-12    1.985913e-09   -2.351136e+00
    4.650744e+00    2.702670e+01    1.159431e+01    3.976104e+09    2.158388e-09    2.995490e-12    1.982851e-09   -2.346136e+00
    4.711908e+00    2.753136e+01    1.132608e+01    3.939463e+09    2.156054e-09    2.780444e-12    1.979717e-09   -2.341136e+00
    4.774452e+00    2.804381e+01    1.106064e+01    3.902524e+09    2.153666e-09    2.572164e-12    1.976511e-09   -2.336136e+00
    4.838433e+00    2.856428e+01    1.079800e+01    3.865293e+09    2.151225e-09    2.370449e-12    1.973231e-09   -2.331136e+00
    4.903888e+00    2.909290e+01    1.053819e+01    3.827766e+09    2.148727e-09    2.175100e-12    1.969873e-09   -2.326136e+00
    4.970869e+00    2.962989e+01    1.028123e+01    3.789947e+09    2.146172e-09    1.985929e-12    1.966436e-09   -2.321136e+00
    5.039438e+00    3.017542e+01    1.002713e+01    3.751838e+09    2.143556e-09    1.802752e-12    1.962917e-09   -2.316136e+00
    5.109632e+00    3.072967e+01    9.775925e+00    3.713434e+09    2.140878e-09    1.625395e-12    1.959314e-09   -2.311136e+00
    5.181517e+00    3.129282e+01    9.527625e+00    3.674739e+09    2.138136e-09    1.453688e-12    1.955623e-09   -2.306136e+00
    5.255148e+00    3.186508e+01    9.282255e+00    3.635752e+09    2.135327e-09    1.287466e-12    1.951843e-09   -2.301136e+00
    5.330581e+00    3.244660e+01    9.039835e+00    3.596471e+09    2.132449e-09    1.126573e-12    1.947970e-09   -2.296136e+00
    5.407880e+00    3.303758e+01    8.800385e+00    3.556896e+09    2.129500e-09    9.708560e-13    1.944003e-09   -2.291136e+00
    5.487103e+00    3.363820e+01    8.563930e+00    3.517026e+09    2.126477e-09    8.201690e-13    1.939937e-09   -2.286136e+00
    5.568323e+00    3.424864e+01    8.330480e+00    3.476858e+09    2.123380e-09    6.743715e-13    1.935771e-09   -2.281136e+00
    5.651601e+00    3.486906e+01    8.100065e+00    3.436392e+09    2.120203e-09    5.333265e-13    1.931500e-09   -2.276136e+00
    5.737005e+00    3.549966e+01    7.872705e+00    3.395624e+09    2.116946e-09    3.969036e-13    1.927123e-09   -2.271136e+00
    5.824613e+00    3.614057e+01    7.648415e+00    3.354553e+09    2.113606e-09    2.649767e-13    1.922636e-09   -2.266136e+00
    5.914493e+00    3.679198e+01    7.427220e+00    3.313178e+09    2.110179e-09    1.374242e-13    1.918035e-09   -2.261136e+00
    6.006721e+00    3.745401e+01    7.209140e+00    3.271492e+09    2.106664e-09    1.412918e-14    1.913317e-09   -2.256136e+00
    6.101378e+00    3.812684e+01    6.994195e+00    3.229496e+09    2.103057e-09    1.050211e-13    1.908479e-09   -2.251136e+00
    6.198541e+00    3.881058e+01    6.782405e+00    3.187184e+09    2.099357e-09    2.201351e-13    1.903518e-09   -2.246136e+00
    6.298294e+00    3.950535e+01    6.573790e+00    3.144555e+09    2.095559e-09    3.313173e-13    1.898430e-09   -2.241136e+00
    6.400718e+00    4.021128e+01    6.368375e+00    3.101602e+09    2.091661e-09    4.386683e-13    1.893210e-09   -2.236136e+00
    6.505904e+00    4.092842e+01    6.166175e+00    3.058324e+09    2.087661e-09    5.422845e-13    1.887857e-09   -2.231136e+00
    6.613933e+00    4.165687e+01    5.967215e+00    3.014717e+09    2.083556e-09    6.422595e-13    1.882365e-09   -2.226136e+00
    6.724896e+00    4.239670e+01    5.771515e+00    2.970775e+09    2.079342e-09    7.386830e-13    1.876732e-09   -2.221136e+00
    6.838885e+00    4.314788e+01    5.579095e+00    2.926495e+09    2.075015e-09    8.316410e-13    1.870952e-09   -2.216136e+00
    6.955991e+00    4.391048e+01    5.389975e+00    2.881873e+09    2.070575e-09    9.212165e-13    1.865023e-09   -2.211136e+00
    7.076308e+00    4.468444e+01    5.204175e+00    2.836906e+09    2.066016e-09    1.007489e-12    1.858940e-09   -2.206136e+00
    7.199922e+00    4.546971e+01    5.021720e+00    2.791588e+09    2.061337e-09    1.090536e-12    1.852700e-09   -2.201136e+00
    7.326936e+00    4.626619e+01    4.842623e+00    2.745917e+09    2.056534e-09    1.170431e-12    1.846298e-09   -2.196136e+00
    7.457437e+00    4.707376e+01    4.666910e+00    2.699889e+09    2.051603e-09    1.247245e-12    1.839729e-09   -2.191136e+00
    7.591519e+00    4.789224e+01    4.494598e+00    2.653500e+09    2.046542e-09    1.321048e-12    1.832991e-09   -2.186136e+00
    7.729271e+00    4.872139e+01    4.325708e+00    2.606749e+09    2.041346e-09    1.391902e-12    1.826079e-09   -2.181136e+00
    7.870785e+00    4.956099e+01    4.160258e+00    2.559633e+09    2.036014e-09    1.459875e-12    1.818988e-09   -2.176136e+00
    8.016145e+00    5.041068e+01    3.998269e+00    2.512152e+09    2.030542e-09    1.525024e-12    1.811714e-09   -2.171136e+00
    8.165434e+00    5.127002e+01    3.839757e+00    2.464303e+09    2.024926e-09    1.587410e-12    1.804253e-09   -2.166136e+00
    8.318730e+00    5.213862e+01    3.684742e+00    2.416089e+09    2.019163e-09    1.647088e-12    1.796601e-09   -2.161136e+00
    8.476108e+00    5.301589e+01    3.533240e+00    2.367510e+09    2.013251e-09    1.704114e-12    1.788754e-09   -2.156136e+00
    8.637634e+00    5.390128e+01    3.385266e+00    2.318571e+09    2.007184e-09    1.758539e-12    1.780707e-09   -2.151136e+00
    8.803366e+00    5.479411e+01    3.240838e+00    2.269275e+09    2.000963e-09    1.810413e-12    1.772456e-09   -2.146136e+00
    8.973354e+00    5.569356e+01    3.099968e+00    2.219630e+09    1.994581e-09    1.859787e-12    1.763997e-09   -2.141136e+00
    9.147637e+00    5.659878e+01    2.962671e+00    2.169642e+09    1.988037e-09    1.906706e-12    1.755326e-09   -2.136136e+00
    9.326241e+00    5.750879e+01    2.828958e+00    2.119323e+09    1.981326e-09    1.951215e-12    1.746438e-09   -2.131136e+00
    9.509181e+00    5.842254e+01    2.698838e+00    2.068686e+09    1.974447e-09    1.993359e-12    1.737330e-09   -2.126136e+00
    9.696453e+00    5.933885e+01    2.572322e+00    2.017745e+09    1.967398e-09    2.033180e-12    1.727998e-09   -2.121136e+00
    9.888039e+00    6.025643e+01    2.449416e+00    1.966520e+09    1.960173e-09    2.070718e-12    1.718438e-09   -2.116136e+00
    1.008389e+01    6.117387e+01    2.330125e+00    1.915033e+09    1.952771e-09    2.106014e-12    1.708646e-09   -2.111136e+00
    1.028396e+01    6.208967e+01    2.214450e+00    1.863306e+09    1.945190e-09    2.139105e-12    1.698618e-09   -2.106136e+00
    1.048815e+01    6.300220e+01    2.102391e+00    1.811371e+09    1.937426e-09    2.170031e-12    1.688352e-09   -2.101136e+00
    1.069635e+01    6.390968e+01    1.993946e+00    1.759257e+09    1.929478e-09    2.198826e-12    1.677843e-09   -2.096136e+00
    1.090843e+01    6.481028e+01    1.889109e+00    1.707004e+09    1.921343e-09    2.225527e-12    1.667089e-09   -2.091136e+00
    1.112420e+01    6.570198e+01    1.787871e+00    1.654649e+09    1.913019e-09    2.250167e-12    1.656087e-09   -2.086136e+00
    1.134348e+01    6.658270e+01    1.690218e+00    1.602239e+09    1.904504e-09    2.272782e-12    1.644834e-09   -2.081136e+00
    1.156601e+01    6.745023e+01    1.596135e+00    1.549821e+09    1.895797e-09    2.293404e-12    1.633327e-09   -2.076136e+00
    1.179154e+01    6.830230e+01    1.505601e+00    1.497451e+09    1.886895e-09    2.312067e-12    1.621565e-09   -2.071136e+00
    1.201974e+01    6.913655e+01    1.418592e+00    1.445186e+09    1.877800e-09    2.328801e-12    1.609545e-09   -2.066136e+00
    1.225027e+01    6.995049e+01    1.335079e+00    1.393088e+09    1.868506e-09    2.343641e-12    1.597265e-09   -2.061136e+00
    1.248274e+01    7.074166e+01    1.255030e+00    1.341222e+09    1.859017e-09    2.356617e-12    1.584724e-09   -2.056136e+00
    1.271673e+01    7.150753e+01    1.178404e+00    1.289660e+09    1.849330e-09    2.367760e-12    1.571922e-09   -2.051136e+00
    1.295176e+01    7.224557e+01    1.105160e+00    1.238476e+09    1.839444e-09    2.377101e-12    1.558856e-09   -2.046136e+00
    1.318734e+01    7.295322e+01    1.035250e+00    1.187744e+09    1.829361e-09    2.384673e-12    1.545527e-09   -2.041136e+00
    1.342293e+01    7.362807e+01    9.686195e-01    1.137546e+09    1.819080e-09    2.390505e-12    1.531936e-09   -2.036136e+00
    1.365797e+01    7.426759e+01    9.052120e-01    1.087961e+09    1.808603e-09    2.394629e-12    1.518082e-09   -2.031136e+00
    1.389186e+01    7.486963e+01    8.449640e-01    1.039073e+09    1.797929e-09    2.397077e-12    1.503965e-09   -2.026136e+00
