# sky130 pfet_01v8 gm/ID Processed Lookup Table
# Corner: sf
# Temperature: 25C
# W = 2.0 um
# L = 3.42 um (3420 nm)
# Columns: gm/id [1/V]  gm/gds [V/V]  id/W [A/m]  ft [Hz]  Cgg/W [F/m]  Cgd/W [F/m]  Cgs/W [F/m]  Vov [V]
#         gm/id          gm/gds            id/W              ft           Cgg/W           Cgd/W           Cgs/W             Vov
    2.321513e+00    7.453991e+00    4.788569e+00    9.165040e+07    1.930468e-08    1.264909e-09    1.796944e-08   -2.852536e+00
    2.344869e+00    7.775497e+00    4.733031e+00    9.164828e+07    1.927320e-08    1.224885e-09    1.796796e-08   -2.847536e+00
    2.368430e+00    8.116536e+00    4.677588e+00    9.163207e+07    1.924222e-08    1.185816e-09    1.796608e-08   -2.842536e+00
    2.392188e+00    8.478326e+00    4.622248e+00    9.160139e+07    1.921174e-08    1.147704e-09    1.796381e-08   -2.837536e+00
    2.416137e+00    8.862152e+00    4.567018e+00    9.155588e+07    1.918175e-08    1.110546e-09    1.796114e-08   -2.832536e+00
    2.440272e+00    9.269352e+00    4.511905e+00    9.149522e+07    1.915226e-08    1.074339e-09    1.795809e-08   -2.827536e+00
    2.464586e+00    9.701311e+00    4.456918e+00    9.141905e+07    1.912326e-08    1.039080e-09    1.795466e-08   -2.822536e+00
    2.489074e+00    1.015948e+01    4.402063e+00    9.132716e+07    1.909476e-08    1.004762e-09    1.795084e-08   -2.817536e+00
    2.513730e+00    1.064534e+01    4.347350e+00    9.121927e+07    1.906676e-08    9.713770e-10    1.794665e-08   -2.812536e+00
    2.538552e+00    1.116044e+01    4.292785e+00    9.109531e+07    1.903923e-08    9.389180e-10    1.794208e-08   -2.807536e+00
    2.563536e+00    1.170639e+01    4.238378e+00    9.095509e+07    1.901219e-08    9.073745e-10    1.793715e-08   -2.802536e+00
    2.588677e+00    1.228477e+01    4.184136e+00    9.079851e+07    1.898563e-08    8.767365e-10    1.793186e-08   -2.797536e+00
    2.613975e+00    1.289728e+01    4.130066e+00    9.062560e+07    1.895954e-08    8.469915e-10    1.792620e-08   -2.792536e+00
    2.639425e+00    1.354561e+01    4.076179e+00    9.043625e+07    1.893390e-08    8.181270e-10    1.792019e-08   -2.787536e+00
    2.665032e+00    1.423148e+01    4.022482e+00    9.023069e+07    1.890873e-08    7.901290e-10    1.791383e-08   -2.782536e+00
    2.690791e+00    1.495663e+01    3.968981e+00    9.000887e+07    1.888400e-08    7.629840e-10    1.790712e-08   -2.777536e+00
    2.716708e+00    1.572284e+01    3.915687e+00    8.977108e+07    1.885970e-08    7.366760e-10    1.790008e-08   -2.772536e+00
    2.742783e+00    1.653187e+01    3.862607e+00    8.951740e+07    1.883582e-08    7.111895e-10    1.789270e-08   -2.767536e+00
    2.769020e+00    1.738549e+01    3.809747e+00    8.924809e+07    1.881237e-08    6.865085e-10    1.788498e-08   -2.762536e+00
    2.795425e+00    1.828550e+01    3.757116e+00    8.896347e+07    1.878931e-08    6.626155e-10    1.787694e-08   -2.757536e+00
    2.822001e+00    1.923367e+01    3.704722e+00    8.866379e+07    1.876665e-08    6.394945e-10    1.786856e-08   -2.752536e+00
    2.848758e+00    2.023175e+01    3.652571e+00    8.834940e+07    1.874437e-08    6.171270e-10    1.785987e-08   -2.747536e+00
    2.875700e+00    2.128152e+01    3.600672e+00    8.802066e+07    1.872245e-08    5.954960e-10    1.785087e-08   -2.742536e+00
    2.902838e+00    2.238469e+01    3.549029e+00    8.767793e+07    1.870088e-08    5.745830e-10    1.784155e-08   -2.737536e+00
    2.930179e+00    2.354297e+01    3.497651e+00    8.732161e+07    1.867967e-08    5.543700e-10    1.783191e-08   -2.732536e+00
    2.957736e+00    2.475806e+01    3.446544e+00    8.695211e+07    1.865877e-08    5.348390e-10    1.782198e-08   -2.727536e+00
    2.985517e+00    2.603159e+01    3.395713e+00    8.656986e+07    1.863820e-08    5.159715e-10    1.781173e-08   -2.722536e+00
    3.013535e+00    2.736520e+01    3.345166e+00    8.617529e+07    1.861793e-08    4.977499e-10    1.780118e-08   -2.717536e+00
    3.041802e+00    2.876048e+01    3.294908e+00    8.576881e+07    1.859794e-08    4.801555e-10    1.779034e-08   -2.712536e+00
    3.070329e+00    3.021897e+01    3.244944e+00    8.535088e+07    1.857822e-08    4.631705e-10    1.777919e-08   -2.707536e+00
    3.099132e+00    3.174220e+01    3.195279e+00    8.492188e+07    1.855878e-08    4.467770e-10    1.776774e-08   -2.702536e+00
    3.128223e+00    3.333165e+01    3.145919e+00    8.448231e+07    1.853956e-08    4.309574e-10    1.775601e-08   -2.697536e+00
    3.157617e+00    3.498878e+01    3.096869e+00    8.403255e+07    1.852059e-08    4.156941e-10    1.774397e-08   -2.692536e+00
    3.187328e+00    3.671500e+01    3.048134e+00    8.357303e+07    1.850183e-08    4.009699e-10    1.773165e-08   -2.687536e+00
    3.217371e+00    3.851169e+01    2.999716e+00    8.310411e+07    1.848328e-08    3.867679e-10    1.771903e-08   -2.682536e+00
    3.247763e+00    4.038021e+01    2.951623e+00    8.262625e+07    1.846491e-08    3.730714e-10    1.770611e-08   -2.677536e+00
    3.278518e+00    4.232190e+01    2.903856e+00    8.213983e+07    1.844672e-08    3.598640e-10    1.769290e-08   -2.672536e+00
    3.309653e+00    4.433802e+01    2.856421e+00    8.164517e+07    1.842868e-08    3.471296e-10    1.767939e-08   -2.667536e+00
    3.341186e+00    4.642993e+01    2.809319e+00    8.114272e+07    1.841079e-08    3.348526e-10    1.766560e-08   -2.662536e+00
    3.373130e+00    4.859879e+01    2.762557e+00    8.063268e+07    1.839304e-08    3.230175e-10    1.765150e-08   -2.657536e+00
    3.405507e+00    5.084593e+01    2.716136e+00    8.011553e+07    1.837540e-08    3.116094e-10    1.763710e-08   -2.652536e+00
    3.438331e+00    5.317255e+01    2.670060e+00    7.959152e+07    1.835786e-08    3.006136e-10    1.762240e-08   -2.647536e+00
    3.471619e+00    5.557985e+01    2.624332e+00    7.906092e+07    1.834041e-08    2.900159e-10    1.760739e-08   -2.642536e+00
    3.505392e+00    5.806911e+01    2.578954e+00    7.852409e+07    1.832304e-08    2.798023e-10    1.759208e-08   -2.637536e+00
    3.539668e+00    6.064155e+01    2.533930e+00    7.798129e+07    1.830572e-08    2.699594e-10    1.757646e-08   -2.632536e+00
    3.574465e+00    6.329840e+01    2.489262e+00    7.743279e+07    1.828845e-08    2.604741e-10    1.756051e-08   -2.627536e+00
    3.609804e+00    6.604091e+01    2.444953e+00    7.687885e+07    1.827121e-08    2.513335e-10    1.754426e-08   -2.622536e+00
    3.645700e+00    6.887029e+01    2.401005e+00    7.631965e+07    1.825399e-08    2.425254e-10    1.752768e-08   -2.617536e+00
    3.682179e+00    7.178792e+01    2.357420e+00    7.575551e+07    1.823677e-08    2.340378e-10    1.751077e-08   -2.612536e+00
    3.719257e+00    7.479504e+01    2.314202e+00    7.518654e+07    1.821954e-08    2.258589e-10    1.749352e-08   -2.607536e+00
    3.756957e+00    7.789296e+01    2.271350e+00    7.461301e+07    1.820229e-08    2.179777e-10    1.747594e-08   -2.602536e+00
    3.795302e+00    8.108318e+01    2.228868e+00    7.403512e+07    1.818500e-08    2.103831e-10    1.745801e-08   -2.597536e+00
    3.834312e+00    8.436698e+01    2.186759e+00    7.345304e+07    1.816765e-08    2.030646e-10    1.743972e-08   -2.592536e+00
    3.874009e+00    8.774585e+01    2.145022e+00    7.286692e+07    1.815023e-08    1.960120e-10    1.742109e-08   -2.587536e+00
    3.914417e+00    9.122129e+01    2.103661e+00    7.227693e+07    1.813273e-08    1.892156e-10    1.740208e-08   -2.582536e+00
    3.955562e+00    9.479496e+01    2.062677e+00    7.168330e+07    1.811513e-08    1.826658e-10    1.738268e-08   -2.577536e+00
    3.997464e+00    9.846825e+01    2.022070e+00    7.108603e+07    1.809742e-08    1.763535e-10    1.736292e-08   -2.572536e+00
    4.040155e+00    1.022431e+02    1.981845e+00    7.048541e+07    1.807959e-08    1.702697e-10    1.734276e-08   -2.567536e+00
    4.083653e+00    1.061210e+02    1.942002e+00    6.988145e+07    1.806161e-08    1.644060e-10    1.732219e-08   -2.562536e+00
    4.127990e+00    1.101039e+02    1.902541e+00    6.927433e+07    1.804349e-08    1.587541e-10    1.730121e-08   -2.557536e+00
    4.173190e+00    1.141936e+02    1.863466e+00    6.866414e+07    1.802518e-08    1.533060e-10    1.727982e-08   -2.552536e+00
    4.219286e+00    1.183922e+02    1.824776e+00    6.805101e+07    1.800669e-08    1.480543e-10    1.725798e-08   -2.547536e+00
    4.266302e+00    1.227016e+02    1.786474e+00    6.743499e+07    1.798801e-08    1.429914e-10    1.723571e-08   -2.542536e+00
    4.314274e+00    1.271241e+02    1.748560e+00    6.681623e+07    1.796910e-08    1.381102e-10    1.721298e-08   -2.537536e+00
    4.363228e+00    1.316617e+02    1.711036e+00    6.619475e+07    1.794997e-08    1.334040e-10    1.718978e-08   -2.532536e+00
    4.413199e+00    1.363169e+02    1.673903e+00    6.557069e+07    1.793058e-08    1.288662e-10    1.716610e-08   -2.527536e+00
    4.464220e+00    1.410919e+02    1.637164e+00    6.494409e+07    1.791093e-08    1.244903e-10    1.714193e-08   -2.522536e+00
    4.516327e+00    1.459896e+02    1.600818e+00    6.431503e+07    1.789101e-08    1.202705e-10    1.711724e-08   -2.517536e+00
    4.569554e+00    1.510123e+02    1.564866e+00    6.368358e+07    1.787079e-08    1.162007e-10    1.709203e-08   -2.512536e+00
    4.623937e+00    1.561629e+02    1.529311e+00    6.304975e+07    1.785025e-08    1.122752e-10    1.706630e-08   -2.507536e+00
    4.679514e+00    1.614441e+02    1.494152e+00    6.241361e+07    1.782939e-08    1.084889e-10    1.704000e-08   -2.502536e+00
    4.736329e+00    1.668592e+02    1.459392e+00    6.177525e+07    1.780817e-08    1.048363e-10    1.701313e-08   -2.497536e+00
    4.794415e+00    1.724108e+02    1.425031e+00    6.113461e+07    1.778660e-08    1.013125e-10    1.698568e-08   -2.492536e+00
    4.853825e+00    1.781026e+02    1.391070e+00    6.049182e+07    1.776465e-08    9.791270e-11    1.695763e-08   -2.487536e+00
    4.914594e+00    1.839378e+02    1.357511e+00    5.984687e+07    1.774229e-08    9.463215e-11    1.692896e-08   -2.482536e+00
    4.976768e+00    1.899197e+02    1.324355e+00    5.919976e+07    1.771952e-08    9.146650e-11    1.689965e-08   -2.477536e+00
    5.040398e+00    1.960521e+02    1.291602e+00    5.855053e+07    1.769630e-08    8.841145e-11    1.686968e-08   -2.472536e+00
    5.105531e+00    2.023388e+02    1.259253e+00    5.789920e+07    1.767264e-08    8.546285e-11    1.683903e-08   -2.467536e+00
    5.172222e+00    2.087837e+02    1.227310e+00    5.724582e+07    1.764850e-08    8.261680e-11    1.680768e-08   -2.462536e+00
    5.240514e+00    2.153907e+02    1.195774e+00    5.659029e+07    1.762386e-08    7.986940e-11    1.677562e-08   -2.457536e+00
    5.310463e+00    2.221640e+02    1.164646e+00    5.593265e+07    1.759872e-08    7.721705e-11    1.674282e-08   -2.452536e+00
    5.382130e+00    2.291081e+02    1.133927e+00    5.527291e+07    1.757304e-08    7.465625e-11    1.670925e-08   -2.447536e+00
    5.455573e+00    2.362275e+02    1.103617e+00    5.461108e+07    1.754680e-08    7.218360e-11    1.667490e-08   -2.442536e+00
    5.530847e+00    2.435268e+02    1.073718e+00    5.394712e+07    1.751999e-08    6.979585e-11    1.663975e-08   -2.437536e+00
    5.608014e+00    2.510107e+02    1.044231e+00    5.328099e+07    1.749258e-08    6.748995e-11    1.660375e-08   -2.432536e+00
    5.687147e+00    2.586843e+02    1.015158e+00    5.261272e+07    1.746455e-08    6.526280e-11    1.656691e-08   -2.427536e+00
    5.768299e+00    2.665524e+02    9.864980e-01    5.194221e+07    1.743587e-08    6.311155e-11    1.652918e-08   -2.422536e+00
    5.851538e+00    2.746204e+02    9.582540e-01    5.126943e+07    1.740654e-08    6.103350e-11    1.649054e-08   -2.417536e+00
    5.936947e+00    2.828939e+02    9.304260e-01    5.059443e+07    1.737650e-08    5.902590e-11    1.645096e-08   -2.412536e+00
    6.024592e+00    2.913781e+02    9.030155e-01    4.991711e+07    1.734577e-08    5.708625e-11    1.641044e-08   -2.407536e+00
    6.114545e+00    3.000787e+02    8.760235e-01    4.923741e+07    1.731430e-08    5.521210e-11    1.636891e-08   -2.402536e+00
    6.206885e+00    3.090014e+02    8.494510e-01    4.855529e+07    1.728206e-08    5.340100e-11    1.632637e-08   -2.397536e+00
    6.301686e+00    3.181519e+02    8.232995e-01    4.787069e+07    1.724905e-08    5.165080e-11    1.628277e-08   -2.392536e+00
    6.399035e+00    3.275364e+02    7.975695e-01    4.718354e+07    1.721522e-08    4.995923e-11    1.623810e-08   -2.387536e+00
    6.499017e+00    3.371611e+02    7.722630e-01    4.649387e+07    1.718056e-08    4.832423e-11    1.619233e-08   -2.382536e+00
    6.601706e+00    3.470315e+02    7.473805e-01    4.580150e+07    1.714504e-08    4.674377e-11    1.614541e-08   -2.377536e+00
    6.707197e+00    3.571541e+02    7.229235e-01    4.510642e+07    1.710863e-08    4.521591e-11    1.609731e-08   -2.372536e+00
    6.815575e+00    3.675349e+02    6.988930e-01    4.440856e+07    1.707130e-08    4.373879e-11    1.604802e-08   -2.367536e+00
    6.926928e+00    3.781800e+02    6.752905e-01    4.370785e+07    1.703304e-08    4.231061e-11    1.599749e-08   -2.362536e+00
    7.041355e+00    3.890955e+02    6.521165e-01    4.300422e+07    1.699380e-08    4.092966e-11    1.594569e-08   -2.357536e+00
    7.158938e+00    4.002871e+02    6.293730e-01    4.229759e+07    1.695357e-08    3.959426e-11    1.589258e-08   -2.352536e+00
    7.279777e+00    4.117609e+02    6.070605e-01    4.158791e+07    1.691232e-08    3.830283e-11    1.583813e-08   -2.347536e+00
    7.403962e+00    4.235225e+02    5.851805e-01    4.087510e+07    1.687001e-08    3.705383e-11    1.578232e-08   -2.342536e+00
    7.531581e+00    4.355769e+02    5.637345e-01    4.015909e+07    1.682663e-08    3.584578e-11    1.572510e-08   -2.337536e+00
    7.662737e+00    4.479298e+02    5.427230e-01    3.943984e+07    1.678213e-08    3.467727e-11    1.566643e-08   -2.332536e+00
    7.797522e+00    4.605851e+02    5.221470e-01    3.871728e+07    1.673650e-08    3.354691e-11    1.560628e-08   -2.327536e+00
    7.936014e+00    4.735476e+02    5.020085e-01    3.799137e+07    1.668971e-08    3.245342e-11    1.554461e-08   -2.322536e+00
    8.078307e+00    4.868207e+02    4.823081e-01    3.726208e+07    1.664171e-08    3.139551e-11    1.548139e-08   -2.317536e+00
    8.224489e+00    5.004076e+02    4.630467e-01    3.652936e+07    1.659250e-08    3.037196e-11    1.541658e-08   -2.312536e+00
    8.374640e+00    5.143104e+02    4.442252e-01    3.579322e+07    1.654203e-08    2.938162e-11    1.535015e-08   -2.307536e+00
    8.528836e+00    5.285310e+02    4.258446e-01    3.505364e+07    1.649027e-08    2.842333e-11    1.528205e-08   -2.302536e+00
    8.687144e+00    5.430687e+02    4.079059e-01    3.431064e+07    1.643722e-08    2.749603e-11    1.521226e-08   -2.297536e+00
    8.849631e+00    5.579235e+02    3.904096e-01    3.356427e+07    1.638281e-08    2.659865e-11    1.514073e-08   -2.292536e+00
    9.016352e+00    5.730936e+02    3.733563e-01    3.281456e+07    1.632705e-08    2.573021e-11    1.506743e-08   -2.287536e+00
    9.187350e+00    5.885754e+02    3.567465e-01    3.206162e+07    1.626989e-08    2.488972e-11    1.499233e-08   -2.282536e+00
    9.362658e+00    6.043633e+02    3.405808e-01    3.130554e+07    1.621132e-08    2.407624e-11    1.491538e-08   -2.277536e+00
    9.542299e+00    6.204510e+02    3.248592e-01    3.054647e+07    1.615129e-08    2.328889e-11    1.483656e-08   -2.272536e+00
    9.726274e+00    6.368293e+02    3.095817e-01    2.978459e+07    1.608979e-08    2.252678e-11    1.475582e-08   -2.267536e+00
    9.914578e+00    6.534874e+02    2.947483e-01    2.902011e+07    1.602679e-08    2.178909e-11    1.467314e-08   -2.262536e+00
    1.010717e+01    6.704117e+02    2.803585e-01    2.825328e+07    1.596227e-08    2.107501e-11    1.458849e-08   -2.257536e+00
    1.030401e+01    6.875865e+02    2.664118e-01    2.748442e+07    1.589620e-08    2.038375e-11    1.450182e-08   -2.252536e+00
    1.050502e+01    7.049927e+02    2.529071e-01    2.671385e+07    1.582856e-08    1.971459e-11    1.441312e-08   -2.247536e+00
    1.071009e+01    7.226092e+02    2.398433e-01    2.594200e+07    1.575933e-08    1.906678e-11    1.432234e-08   -2.242536e+00
    1.091910e+01    7.404106e+02    2.272191e-01    2.516929e+07    1.568849e-08    1.843964e-11    1.422948e-08   -2.237536e+00
    1.113190e+01    7.583693e+02    2.150324e-01    2.439625e+07    1.561601e-08    1.783249e-11    1.413450e-08   -2.232536e+00
    1.134828e+01    7.764537e+02    2.032811e-01    2.362345e+07    1.554189e-08    1.724469e-11    1.403737e-08   -2.227536e+00
    1.156802e+01    7.946284e+02    1.919626e-01    2.285150e+07    1.546611e-08    1.667561e-11    1.393806e-08   -2.222536e+00
    1.179086e+01    8.128552e+02    1.810738e-01    2.208110e+07    1.538864e-08    1.612465e-11    1.383658e-08   -2.217536e+00
    1.201649e+01    8.310913e+02    1.706112e-01    2.131300e+07    1.530949e-08    1.559123e-11    1.373289e-08   -2.212536e+00
    1.224458e+01    8.492911e+02    1.605709e-01    2.054801e+07    1.522864e-08    1.507478e-11    1.362698e-08   -2.207536e+00
    1.247474e+01    8.674051e+02    1.509484e-01    1.978700e+07    1.514607e-08    1.457477e-11    1.351883e-08   -2.202536e+00
    1.270655e+01    8.853802e+02    1.417387e-01    1.903090e+07    1.506180e-08    1.409068e-11    1.340844e-08   -2.197536e+00
    1.293953e+01    9.031609e+02    1.329364e-01    1.828068e+07    1.497581e-08    1.362199e-11    1.329579e-08   -2.192536e+00
    1.317319e+01    9.206880e+02    1.245353e-01    1.753736e+07    1.488809e-08    1.316823e-11    1.318089e-08   -2.187536e+00
    1.340697e+01    9.379008e+02    1.165288e-01    1.680202e+07    1.479867e-08    1.272891e-11    1.306373e-08   -2.182536e+00
    1.364029e+01    9.547359e+02    1.089098e-01    1.607574e+07    1.470752e-08    1.230359e-11    1.294431e-08   -2.177536e+00
    1.387253e+01    9.711294e+02    1.016705e-01    1.535966e+07    1.461468e-08    1.189182e-11    1.282264e-08   -2.172536e+00
    1.410306e+01    9.870164e+02    9.480265e-02    1.465491e+07    1.452013e-08    1.149318e-11    1.269873e-08   -2.167536e+00
    1.433118e+01    1.002332e+03    8.829740e-02    1.396261e+07    1.442392e-08    1.110727e-11    1.257261e-08   -2.162536e+00
    1.455621e+01    1.017014e+03    8.214540e-02    1.328391e+07    1.432603e-08    1.073367e-11    1.244426e-08   -2.157536e+00
    1.477745e+01    1.031000e+03    7.633680e-02    1.261990e+07    1.422650e-08    1.037202e-11    1.231373e-08   -2.152536e+00
    1.499421e+01    1.044232e+03    7.086125e-02    1.197164e+07    1.412534e-08    1.002194e-11    1.218104e-08   -2.147536e+00
    1.520578e+01    1.056656e+03    6.570805e-02    1.134015e+07    1.402260e-08    9.683065e-12    1.204622e-08   -2.142536e+00
    1.541148e+01    1.068224e+03    6.086605e-02    1.072640e+07    1.391828e-08    9.355055e-12    1.190931e-08   -2.137536e+00
    1.561067e+01    1.078892e+03    5.632380e-02    1.013125e+07    1.381245e-08    9.037575e-12    1.177033e-08   -2.132536e+00
    1.580271e+01    1.088623e+03    5.206960e-02    9.555499e+06    1.370512e-08    8.730295e-12    1.162934e-08   -2.127536e+00
    1.598710e+01    1.097392e+03    4.809138e-02    8.999846e+06    1.359634e-08    8.432905e-12    1.148640e-08   -2.122536e+00
    1.616327e+01    1.105178e+03    4.437710e-02    8.464869e+06    1.348615e-08    8.145100e-12    1.134154e-08   -2.117536e+00
    1.633082e+01    1.111970e+03    4.091450e-02    7.951045e+06    1.337462e-08    7.866580e-12    1.119482e-08   -2.112536e+00
    1.648940e+01    1.117770e+03    3.769134e-02    7.458729e+06    1.326177e-08    7.597070e-12    1.104633e-08   -2.107536e+00
    1.663874e+01    1.122586e+03    3.469537e-02    6.988151e+06    1.314770e-08    7.336280e-12    1.089611e-08   -2.102536e+00
    1.677867e+01    1.126439e+03    3.191444e-02    6.539428e+06    1.303243e-08    7.083955e-12    1.074424e-08   -2.097536e+00
