# sky130 pfet_01v8 gm/ID Processed Lookup Table
# Corner: sf
# Temperature: 25C
# W = 2.0 um
# L = 3.24 um (3240 nm)
# Columns: gm/id [1/V]  gm/gds [V/V]  id/W [A/m]  ft [Hz]  Cgg/W [F/m]  Cgd/W [F/m]  Cgs/W [F/m]  Vov [V]
#         gm/id          gm/gds            id/W              ft           Cgg/W           Cgd/W           Cgs/W             Vov
    2.316939e+00    7.342780e+00    5.052540e+00    1.017672e+08    1.830782e-08    1.192816e-09    1.702883e-08   -2.852237e+00
    2.340288e+00    7.656640e+00    4.994053e+00    1.017677e+08    1.827817e-08    1.155081e-09    1.702741e-08   -2.847237e+00
    2.363843e+00    7.989435e+00    4.935665e+00    1.017527e+08    1.824899e-08    1.118250e-09    1.702562e-08   -2.842237e+00
    2.387599e+00    8.342340e+00    4.877384e+00    1.017217e+08    1.822028e-08    1.082322e-09    1.702345e-08   -2.837237e+00
    2.411548e+00    8.716585e+00    4.819216e+00    1.016743e+08    1.819203e-08    1.047296e-09    1.702092e-08   -2.832237e+00
    2.435686e+00    9.113457e+00    4.761169e+00    1.016102e+08    1.816426e-08    1.013167e-09    1.701802e-08   -2.827237e+00
    2.460006e+00    9.534292e+00    4.703251e+00    1.015290e+08    1.813695e-08    9.799335e-10    1.701476e-08   -2.822237e+00
    2.484503e+00    9.980470e+00    4.645471e+00    1.014304e+08    1.811011e-08    9.475880e-10    1.701115e-08   -2.817237e+00
    2.509172e+00    1.045343e+01    4.587837e+00    1.013142e+08    1.808373e-08    9.161235e-10    1.700718e-08   -2.812237e+00
    2.534008e+00    1.095466e+01    4.530358e+00    1.011801e+08    1.805781e-08    8.855325e-10    1.700285e-08   -2.807237e+00
    2.559008e+00    1.148566e+01    4.473041e+00    1.010281e+08    1.803235e-08    8.558060e-10    1.699817e-08   -2.802237e+00
    2.584168e+00    1.204799e+01    4.415895e+00    1.008579e+08    1.800734e-08    8.269325e-10    1.699315e-08   -2.797237e+00
    2.609487e+00    1.264327e+01    4.358929e+00    1.006697e+08    1.798277e-08    7.989015e-10    1.698780e-08   -2.792237e+00
    2.634962e+00    1.327309e+01    4.302152e+00    1.004632e+08    1.795863e-08    7.717010e-10    1.698210e-08   -2.787237e+00
    2.660593e+00    1.393911e+01    4.245572e+00    1.002387e+08    1.793492e-08    7.453175e-10    1.697608e-08   -2.782237e+00
    2.686381e+00    1.464299e+01    4.189198e+00    9.999619e+07    1.791163e-08    7.197375e-10    1.696974e-08   -2.777237e+00
    2.712326e+00    1.538641e+01    4.133037e+00    9.973589e+07    1.788875e-08    6.949465e-10    1.696307e-08   -2.772237e+00
    2.738433e+00    1.617107e+01    4.077099e+00    9.945798e+07    1.786627e-08    6.709300e-10    1.695608e-08   -2.767237e+00
    2.764701e+00    1.699864e+01    4.021391e+00    9.916266e+07    1.784418e-08    6.476725e-10    1.694877e-08   -2.762237e+00
    2.791139e+00    1.787084e+01    3.965922e+00    9.885030e+07    1.782247e-08    6.251575e-10    1.694115e-08   -2.757237e+00
    2.817749e+00    1.878933e+01    3.910699e+00    9.852117e+07    1.780112e-08    6.033700e-10    1.693324e-08   -2.752237e+00
    2.844539e+00    1.975579e+01    3.855731e+00    9.817561e+07    1.778014e-08    5.822920e-10    1.692501e-08   -2.747237e+00
    2.871516e+00    2.077190e+01    3.801024e+00    9.781407e+07    1.775950e-08    5.619075e-10    1.691649e-08   -2.742237e+00
    2.898688e+00    2.183927e+01    3.746586e+00    9.743693e+07    1.773919e-08    5.422000e-10    1.690767e-08   -2.737237e+00
    2.926064e+00    2.295952e+01    3.692424e+00    9.704459e+07    1.771921e-08    5.231515e-10    1.689856e-08   -2.732237e+00
    2.953656e+00    2.413425e+01    3.638546e+00    9.663758e+07    1.769953e-08    5.047450e-10    1.688915e-08   -2.727237e+00
    2.981470e+00    2.536501e+01    3.584957e+00    9.621627e+07    1.768015e-08    4.869639e-10    1.687946e-08   -2.722237e+00
    3.009521e+00    2.665333e+01    3.531664e+00    9.578118e+07    1.766105e-08    4.697906e-10    1.686948e-08   -2.717237e+00
    3.037820e+00    2.800070e+01    3.478673e+00    9.533279e+07    1.764223e-08    4.532081e-10    1.685923e-08   -2.712237e+00
    3.066380e+00    2.940860e+01    3.425990e+00    9.487155e+07    1.762366e-08    4.371994e-10    1.684868e-08   -2.707237e+00
    3.095213e+00    3.087843e+01    3.373621e+00    9.439797e+07    1.760534e-08    4.217478e-10    1.683785e-08   -2.702237e+00
    3.124335e+00    3.241161e+01    3.321570e+00    9.391253e+07    1.758724e-08    4.068365e-10    1.682676e-08   -2.697237e+00
    3.153758e+00    3.400947e+01    3.269845e+00    9.341564e+07    1.756937e-08    3.924490e-10    1.681538e-08   -2.692237e+00
    3.183496e+00    3.567335e+01    3.218449e+00    9.290779e+07    1.755169e-08    3.785692e-10    1.680371e-08   -2.687237e+00
    3.213566e+00    3.740456e+01    3.167388e+00    9.238945e+07    1.753421e-08    3.651810e-10    1.679178e-08   -2.682237e+00
    3.243982e+00    3.920433e+01    3.116665e+00    9.186106e+07    1.751690e-08    3.522687e-10    1.677957e-08   -2.677237e+00
    3.274763e+00    4.107396e+01    3.066285e+00    9.132304e+07    1.749976e-08    3.398171e-10    1.676708e-08   -2.672237e+00
    3.305920e+00    4.301461e+01    3.016253e+00    9.077577e+07    1.748277e-08    3.278108e-10    1.675431e-08   -2.667237e+00
    3.337473e+00    4.502749e+01    2.966571e+00    9.021968e+07    1.746592e-08    3.162351e-10    1.674126e-08   -2.662237e+00
    3.369438e+00    4.711381e+01    2.917245e+00    8.965519e+07    1.744918e-08    3.050756e-10    1.672793e-08   -2.657237e+00
    3.401829e+00    4.927470e+01    2.868278e+00    8.908257e+07    1.743255e-08    2.943181e-10    1.671432e-08   -2.652237e+00
    3.434669e+00    5.151134e+01    2.819672e+00    8.850228e+07    1.741603e-08    2.839490e-10    1.670042e-08   -2.647237e+00
    3.467973e+00    5.382489e+01    2.771432e+00    8.791462e+07    1.739959e-08    2.739546e-10    1.668623e-08   -2.642237e+00
    3.501760e+00    5.621651e+01    2.723561e+00    8.731996e+07    1.738321e-08    2.643221e-10    1.667175e-08   -2.637237e+00
    3.536045e+00    5.868728e+01    2.676061e+00    8.671850e+07    1.736689e-08    2.550386e-10    1.665699e-08   -2.632237e+00
    3.570851e+00    6.123846e+01    2.628935e+00    8.611064e+07    1.735062e-08    2.460918e-10    1.664192e-08   -2.627237e+00
    3.606196e+00    6.387119e+01    2.582186e+00    8.549663e+07    1.733437e-08    2.374697e-10    1.662655e-08   -2.622237e+00
    3.642100e+00    6.658666e+01    2.535817e+00    8.487677e+07    1.731813e-08    2.291608e-10    1.661088e-08   -2.617237e+00
    3.678580e+00    6.938606e+01    2.489830e+00    8.425121e+07    1.730191e-08    2.211537e-10    1.659490e-08   -2.612237e+00
    3.715663e+00    7.227069e+01    2.444228e+00    8.362034e+07    1.728566e-08    2.134374e-10    1.657860e-08   -2.607237e+00
    3.753363e+00    7.524174e+01    2.399012e+00    8.298426e+07    1.726940e-08    2.060015e-10    1.656197e-08   -2.602237e+00
    3.791706e+00    7.830057e+01    2.354185e+00    8.234327e+07    1.725310e-08    1.988356e-10    1.654503e-08   -2.597237e+00
    3.830711e+00    8.144851e+01    2.309748e+00    8.169755e+07    1.723675e-08    1.919298e-10    1.652775e-08   -2.592237e+00
    3.870404e+00    8.468696e+01    2.265705e+00    8.104729e+07    1.722032e-08    1.852745e-10    1.651013e-08   -2.587237e+00
    3.910807e+00    8.801733e+01    2.222057e+00    8.039268e+07    1.720383e-08    1.788606e-10    1.649216e-08   -2.582237e+00
    3.951941e+00    9.144110e+01    2.178805e+00    7.973387e+07    1.718724e-08    1.726790e-10    1.647384e-08   -2.577237e+00
    3.993834e+00    9.495988e+01    2.135953e+00    7.907108e+07    1.717055e-08    1.667211e-10    1.645516e-08   -2.572237e+00
    4.036509e+00    9.857517e+01    2.093500e+00    7.840439e+07    1.715373e-08    1.609787e-10    1.643611e-08   -2.567237e+00
    4.079994e+00    1.022887e+02    2.051449e+00    7.773401e+07    1.713679e-08    1.554436e-10    1.641667e-08   -2.562237e+00
    4.124315e+00    1.061022e+02    2.009802e+00    7.706004e+07    1.711969e-08    1.501082e-10    1.639686e-08   -2.557237e+00
    4.169497e+00    1.100174e+02    1.968559e+00    7.638257e+07    1.710244e-08    1.449648e-10    1.637664e-08   -2.552237e+00
    4.215573e+00    1.140365e+02    1.927723e+00    7.570179e+07    1.708501e-08    1.400065e-10    1.635600e-08   -2.547237e+00
    4.262570e+00    1.181611e+02    1.887295e+00    7.501780e+07    1.706739e-08    1.352261e-10    1.633495e-08   -2.542237e+00
    4.310515e+00    1.223933e+02    1.847276e+00    7.433064e+07    1.704956e-08    1.306171e-10    1.631348e-08   -2.537237e+00
    4.359445e+00    1.267355e+02    1.807668e+00    7.364051e+07    1.703152e-08    1.261729e-10    1.629156e-08   -2.532237e+00
    4.409388e+00    1.311895e+02    1.768472e+00    7.294737e+07    1.701324e-08    1.218875e-10    1.626918e-08   -2.527237e+00
    4.460379e+00    1.357581e+02    1.729690e+00    7.225140e+07    1.699471e-08    1.177549e-10    1.624634e-08   -2.522237e+00
    4.512452e+00    1.404435e+02    1.691322e+00    7.155265e+07    1.697592e-08    1.137693e-10    1.622302e-08   -2.517237e+00
    4.565645e+00    1.452483e+02    1.653370e+00    7.085116e+07    1.695686e-08    1.099252e-10    1.619920e-08   -2.512237e+00
    4.619992e+00    1.501751e+02    1.615835e+00    7.014704e+07    1.693749e-08    1.062173e-10    1.617488e-08   -2.507237e+00
    4.675531e+00    1.552268e+02    1.578719e+00    6.944031e+07    1.691782e-08    1.026405e-10    1.615003e-08   -2.502237e+00
    4.732303e+00    1.604060e+02    1.542022e+00    6.873102e+07    1.689781e-08    9.918985e-11    1.612465e-08   -2.497237e+00
    4.790350e+00    1.657159e+02    1.505746e+00    6.801925e+07    1.687746e-08    9.586065e-11    1.609871e-08   -2.492237e+00
    4.849710e+00    1.711596e+02    1.469892e+00    6.730498e+07    1.685676e-08    9.264840e-11    1.607221e-08   -2.487237e+00
    4.910433e+00    1.767404e+02    1.434461e+00    6.658832e+07    1.683568e-08    8.954870e-11    1.604512e-08   -2.482237e+00
    4.972557e+00    1.824615e+02    1.399454e+00    6.586919e+07    1.681420e-08    8.655735e-11    1.601743e-08   -2.477237e+00
    5.036137e+00    1.883266e+02    1.364873e+00    6.514773e+07    1.679231e-08    8.367035e-11    1.598911e-08   -2.472237e+00
    5.101214e+00    1.943392e+02    1.330717e+00    6.442384e+07    1.676999e-08    8.088375e-11    1.596016e-08   -2.467237e+00
    5.167844e+00    2.005032e+02    1.296991e+00    6.369766e+07    1.674722e-08    7.819390e-11    1.593055e-08   -2.462237e+00
    5.236080e+00    2.068225e+02    1.263691e+00    6.296910e+07    1.672399e-08    7.559715e-11    1.590025e-08   -2.457237e+00
    5.305966e+00    2.133010e+02    1.230823e+00    6.223814e+07    1.670027e-08    7.309010e-11    1.586926e-08   -2.452237e+00
    5.377571e+00    2.199433e+02    1.198385e+00    6.150484e+07    1.667606e-08    7.066945e-11    1.583755e-08   -2.447237e+00
    5.450947e+00    2.267534e+02    1.166379e+00    6.076920e+07    1.665130e-08    6.833200e-11    1.580510e-08   -2.442237e+00
    5.526149e+00    2.337358e+02    1.134807e+00    6.003111e+07    1.662602e-08    6.607470e-11    1.577189e-08   -2.437237e+00
    5.603245e+00    2.408955e+02    1.103668e+00    5.929064e+07    1.660016e-08    6.389455e-11    1.573788e-08   -2.432237e+00
    5.682303e+00    2.482371e+02    1.072966e+00    5.854776e+07    1.657372e-08    6.178880e-11    1.570307e-08   -2.427237e+00
    5.763377e+00    2.557654e+02    1.042700e+00    5.780238e+07    1.654667e-08    5.975475e-11    1.566743e-08   -2.422237e+00
    5.846541e+00    2.634858e+02    1.012872e+00    5.705450e+07    1.651899e-08    5.778975e-11    1.563092e-08   -2.417237e+00
    5.931868e+00    2.714031e+02    9.834820e-01    5.630406e+07    1.649067e-08    5.589125e-11    1.559354e-08   -2.412237e+00
    6.019425e+00    2.795231e+02    9.545330e-01    5.555103e+07    1.646168e-08    5.405695e-11    1.555525e-08   -2.407237e+00
    6.109290e+00    2.878510e+02    9.260250e-01    5.479533e+07    1.643199e-08    5.228445e-11    1.551601e-08   -2.402237e+00
    6.201540e+00    2.963927e+02    8.979600e-01    5.403699e+07    1.640158e-08    5.057150e-11    1.547582e-08   -2.397237e+00
    6.296255e+00    3.051537e+02    8.703380e-01    5.327586e+07    1.637043e-08    4.891606e-11    1.543463e-08   -2.392237e+00
    6.393508e+00    3.141397e+02    8.431615e-01    5.251189e+07    1.633851e-08    4.731600e-11    1.539243e-08   -2.387237e+00
    6.493390e+00    3.233568e+02    8.164310e-01    5.174506e+07    1.630581e-08    4.576936e-11    1.534918e-08   -2.382237e+00
    6.595986e+00    3.328111e+02    7.901480e-01    5.097528e+07    1.627229e-08    4.427424e-11    1.530485e-08   -2.377237e+00
    6.701373e+00    3.425080e+02    7.643135e-01    5.020242e+07    1.623794e-08    4.282879e-11    1.525941e-08   -2.372237e+00
    6.809653e+00    3.524544e+02    7.389290e-01    4.942652e+07    1.620272e-08    4.143128e-11    1.521283e-08   -2.367237e+00
    6.920904e+00    3.626554e+02    7.139955e-01    4.864738e+07    1.616661e-08    4.008001e-11    1.516509e-08   -2.362237e+00
    7.035228e+00    3.731177e+02    6.895140e-01    4.786502e+07    1.612958e-08    3.877335e-11    1.511615e-08   -2.357237e+00
    7.152703e+00    3.838468e+02    6.654870e-01    4.707932e+07    1.609162e-08    3.750973e-11    1.506597e-08   -2.352237e+00
    7.273435e+00    3.948487e+02    6.419145e-01    4.629020e+07    1.605269e-08    3.628765e-11    1.501452e-08   -2.347237e+00
    7.397515e+00    4.061290e+02    6.187980e-01    4.549761e+07    1.601277e-08    3.510567e-11    1.496178e-08   -2.342237e+00
    7.525033e+00    4.176929e+02    5.961390e-01    4.470147e+07    1.597181e-08    3.396237e-11    1.490770e-08   -2.337237e+00
    7.656079e+00    4.295458e+02    5.739390e-01    4.390171e+07    1.592982e-08    3.285645e-11    1.485227e-08   -2.332237e+00
    7.790754e+00    4.416922e+02    5.521985e-01    4.309826e+07    1.588675e-08    3.178659e-11    1.479543e-08   -2.327237e+00
    7.929151e+00    4.541366e+02    5.309185e-01    4.229108e+07    1.584258e-08    3.075156e-11    1.473715e-08   -2.322237e+00
    8.071340e+00    4.668829e+02    5.101015e-01    4.148014e+07    1.579728e-08    2.975016e-11    1.467741e-08   -2.317237e+00
    8.217428e+00    4.799344e+02    4.897471e-01    4.066538e+07    1.575082e-08    2.878126e-11    1.461615e-08   -2.312237e+00
    8.367485e+00    4.932934e+02    4.698570e-01    3.984679e+07    1.570318e-08    2.784373e-11    1.455337e-08   -2.307237e+00
    8.521592e+00    5.069619e+02    4.504322e-01    3.902440e+07    1.565432e-08    2.693651e-11    1.448902e-08   -2.302237e+00
    8.679819e+00    5.209406e+02    4.314733e-01    3.819817e+07    1.560423e-08    2.605857e-11    1.442305e-08   -2.297237e+00
    8.842230e+00    5.352295e+02    4.129813e-01    3.736819e+07    1.555286e-08    2.520895e-11    1.435545e-08   -2.292237e+00
    9.008881e+00    5.498267e+02    3.949568e-01    3.653448e+07    1.550021e-08    2.438666e-11    1.428616e-08   -2.287237e+00
    9.179820e+00    5.647296e+02    3.774002e-01    3.569716e+07    1.544624e-08    2.359081e-11    1.421517e-08   -2.282237e+00
    9.355080e+00    5.799338e+02    3.603122e-01    3.485635e+07    1.539092e-08    2.282050e-11    1.414243e-08   -2.277237e+00
    9.534685e+00    5.954338e+02    3.436928e-01    3.401219e+07    1.533424e-08    2.207490e-11    1.406792e-08   -2.272237e+00
    9.718638e+00    6.112210e+02    3.275422e-01    3.316489e+07    1.527616e-08    2.135318e-11    1.399160e-08   -2.267237e+00
    9.906933e+00    6.272855e+02    3.118601e-01    3.231468e+07    1.521666e-08    2.065454e-11    1.391343e-08   -2.262237e+00
    1.009954e+01    6.436154e+02    2.966462e-01    3.146183e+07    1.515572e-08    1.997823e-11    1.383340e-08   -2.257237e+00
    1.029641e+01    6.601958e+02    2.819000e-01    3.060668e+07    1.509332e-08    1.932352e-11    1.375146e-08   -2.252237e+00
    1.049747e+01    6.770096e+02    2.676203e-01    2.974961e+07    1.502943e-08    1.868970e-11    1.366759e-08   -2.247237e+00
    1.070262e+01    6.940365e+02    2.538061e-01    2.889107e+07    1.496403e-08    1.807608e-11    1.358176e-08   -2.242237e+00
    1.091173e+01    7.112535e+02    2.404559e-01    2.803156e+07    1.489710e-08    1.748202e-11    1.349396e-08   -2.237237e+00
    1.112465e+01    7.286341e+02    2.275676e-01    2.717162e+07    1.482864e-08    1.690687e-11    1.340413e-08   -2.232237e+00
    1.134119e+01    7.461491e+02    2.151389e-01    2.631191e+07    1.475861e-08    1.635002e-11    1.331228e-08   -2.227237e+00
    1.156113e+01    7.637653e+02    2.031672e-01    2.545311e+07    1.468700e-08    1.581088e-11    1.321837e-08   -2.222237e+00
    1.178420e+01    7.814460e+02    1.916493e-01    2.459599e+07    1.461381e-08    1.528890e-11    1.312239e-08   -2.217237e+00
    1.201010e+01    7.991511e+02    1.805816e-01    2.374135e+07    1.453901e-08    1.478350e-11    1.302432e-08   -2.212237e+00
    1.223851e+01    8.168374e+02    1.699599e-01    2.289014e+07    1.446260e-08    1.429418e-11    1.292414e-08   -2.207237e+00
    1.246902e+01    8.344574e+02    1.597794e-01    2.204328e+07    1.438458e-08    1.382040e-11    1.282184e-08   -2.202237e+00
    1.270123e+01    8.519609e+02    1.500351e-01    2.120182e+07    1.430493e-08    1.336169e-11    1.271741e-08   -2.197237e+00
    1.293467e+01    8.692945e+02    1.407211e-01    2.036684e+07    1.422364e-08    1.291756e-11    1.261085e-08   -2.192237e+00
    1.316883e+01    8.864021e+02    1.318311e-01    1.953949e+07    1.414074e-08    1.248755e-11    1.250215e-08   -2.187237e+00
    1.340317e+01    9.032242e+02    1.233581e-01    1.872093e+07    1.405619e-08    1.207122e-11    1.239130e-08   -2.182237e+00
    1.363711e+01    9.197010e+02    1.152945e-01    1.791239e+07    1.397003e-08    1.166813e-11    1.227831e-08   -2.177237e+00
    1.387002e+01    9.357698e+02    1.076324e-01    1.711513e+07    1.388226e-08    1.127788e-11    1.216319e-08   -2.172237e+00
    1.410126e+01    9.513692e+02    1.003630e-01    1.633041e+07    1.379287e-08    1.090006e-11    1.204594e-08   -2.167237e+00
    1.433017e+01    9.664348e+02    9.347680e-02    1.555948e+07    1.370188e-08    1.053428e-11    1.192658e-08   -2.162237e+00
    1.455606e+01    9.809066e+02    8.696415e-02    1.480361e+07    1.360932e-08    1.018017e-11    1.180512e-08   -2.157237e+00
    1.477820e+01    9.947232e+02    8.081470e-02    1.406402e+07    1.351519e-08    9.837360e-12    1.168158e-08   -2.152237e+00
    1.499591e+01    1.007829e+03    7.501750e-02    1.334192e+07    1.341953e-08    9.505510e-12    1.155599e-08   -2.147237e+00
    1.520849e+01    1.020169e+03    6.956130e-02    1.263843e+07    1.332235e-08    9.184270e-12    1.142838e-08   -2.142237e+00
    1.541527e+01    1.031696e+03    6.443430e-02    1.195462e+07    1.322369e-08    8.873325e-12    1.129877e-08   -2.137237e+00
    1.561556e+01    1.042366e+03    5.962450e-02    1.129147e+07    1.312357e-08    8.572345e-12    1.116721e-08   -2.132237e+00
    1.580878e+01    1.052143e+03    5.511945e-02    1.064988e+07    1.302204e-08    8.281030e-12    1.103373e-08   -2.127237e+00
    1.599436e+01    1.061000e+03    5.090655e-02    1.003061e+07    1.291912e-08    7.999075e-12    1.089839e-08   -2.122237e+00
    1.617179e+01    1.068915e+03    4.697298e-02    9.434347e+06    1.281488e-08    7.726205e-12    1.076123e-08   -2.117237e+00
    1.634062e+01    1.075876e+03    4.330586e-02    8.861603e+06    1.270934e-08    7.462130e-12    1.062231e-08   -2.112237e+00
    1.650051e+01    1.081882e+03    3.989222e-02    8.312789e+06    1.260257e-08    7.206580e-12    1.048168e-08   -2.107237e+00
    1.665119e+01    1.086939e+03    3.671914e-02    7.788171e+06    1.249461e-08    6.959305e-12    1.033942e-08   -2.102237e+00
    1.679249e+01    1.091065e+03    3.377379e-02    7.287872e+06    1.238552e-08    6.720040e-12    1.019559e-08   -2.097237e+00
