# sky130 pfet_01v8 gm/ID Processed Lookup Table
# Corner: sf
# Temperature: 25C
# W = 2.0 um
# L = 4.14 um (4140 nm)
# Columns: gm/id [1/V]  gm/gds [V/V]  id/W [A/m]  ft [Hz]  Cgg/W [F/m]  Cgd/W [F/m]  Cgs/W [F/m]  Vov [V]
#         gm/id          gm/gds            id/W              ft           Cgg/W           Cgd/W           Cgs/W             Vov
    2.337676e+00    7.842206e+00    3.956160e+00    6.319311e+07    2.329210e-08    1.562149e-09    2.172493e-08   -2.853371e+00
    2.361062e+00    8.191240e+00    3.909960e+00    6.318562e+07    2.325313e-08    1.512716e-09    2.172321e-08   -2.848371e+00
    2.384641e+00    8.562060e+00    3.863845e+00    6.316822e+07    2.321477e-08    1.464450e-09    2.172100e-08   -2.843371e+00
    2.408410e+00    8.956084e+00    3.817823e+00    6.314063e+07    2.317702e-08    1.417353e-09    2.171832e-08   -2.838371e+00
    2.432363e+00    9.374786e+00    3.771899e+00    6.310264e+07    2.313987e-08    1.371423e-09    2.171515e-08   -2.833371e+00
    2.456490e+00    9.819711e+00    3.726079e+00    6.305398e+07    2.310333e-08    1.326659e-09    2.171152e-08   -2.828371e+00
    2.480789e+00    1.029248e+01    3.680370e+00    6.299447e+07    2.306742e-08    1.283057e-09    2.170742e-08   -2.823371e+00
    2.505253e+00    1.079477e+01    3.634779e+00    6.292397e+07    2.303210e-08    1.240609e-09    2.170285e-08   -2.818371e+00
    2.529878e+00    1.132835e+01    3.589312e+00    6.284233e+07    2.299739e-08    1.199309e-09    2.169783e-08   -2.813371e+00
    2.554659e+00    1.189501e+01    3.543976e+00    6.274943e+07    2.296329e-08    1.159147e-09    2.169236e-08   -2.808371e+00
    2.579594e+00    1.249664e+01    3.498778e+00    6.264524e+07    2.292977e-08    1.120112e-09    2.168642e-08   -2.803371e+00
    2.604678e+00    1.313515e+01    3.453724e+00    6.252967e+07    2.289685e-08    1.082193e-09    2.168005e-08   -2.798371e+00
    2.629912e+00    1.381254e+01    3.408822e+00    6.240276e+07    2.286451e-08    1.045374e-09    2.167324e-08   -2.793371e+00
    2.655293e+00    1.453083e+01    3.364077e+00    6.226451e+07    2.283273e-08    1.009641e-09    2.166599e-08   -2.788371e+00
    2.680821e+00    1.529209e+01    3.319498e+00    6.211500e+07    2.280153e-08    9.749775e-10    2.165832e-08   -2.783371e+00
    2.706499e+00    1.609841e+01    3.275089e+00    6.195430e+07    2.277087e-08    9.413670e-10    2.165022e-08   -2.778371e+00
    2.732327e+00    1.695196e+01    3.230860e+00    6.178258e+07    2.274075e-08    9.087915e-10    2.164171e-08   -2.773371e+00
    2.758310e+00    1.785486e+01    3.186814e+00    6.159995e+07    2.271117e-08    8.772320e-10    2.163278e-08   -2.768371e+00
    2.784450e+00    1.880933e+01    3.142959e+00    6.140661e+07    2.268210e-08    8.466685e-10    2.162344e-08   -2.763371e+00
    2.810755e+00    1.981754e+01    3.099302e+00    6.120279e+07    2.265353e-08    8.170810e-10    2.161370e-08   -2.758371e+00
    2.837229e+00    2.088170e+01    3.055848e+00    6.098865e+07    2.262545e-08    7.884485e-10    2.160356e-08   -2.753371e+00
    2.863881e+00    2.200401e+01    3.012602e+00    6.076451e+07    2.259784e-08    7.607500e-10    2.159304e-08   -2.748371e+00
    2.890716e+00    2.318666e+01    2.969572e+00    6.053054e+07    2.257069e-08    7.339635e-10    2.158212e-08   -2.743371e+00
    2.917748e+00    2.443185e+01    2.926763e+00    6.028713e+07    2.254399e-08    7.080670e-10    2.157081e-08   -2.738371e+00
    2.944981e+00    2.574172e+01    2.884179e+00    6.003444e+07    2.251771e-08    6.830390e-10    2.155913e-08   -2.733371e+00
    2.972431e+00    2.711848e+01    2.841826e+00    5.977289e+07    2.249185e-08    6.588565e-10    2.154706e-08   -2.728371e+00
    3.000105e+00    2.856418e+01    2.799709e+00    5.950268e+07    2.246637e-08    6.354975e-10    2.153463e-08   -2.723371e+00
    3.028017e+00    3.008097e+01    2.757833e+00    5.922415e+07    2.244128e-08    6.129395e-10    2.152182e-08   -2.718371e+00
    3.056180e+00    3.167091e+01    2.716203e+00    5.893763e+07    2.241654e-08    5.911600e-10    2.150866e-08   -2.713371e+00
    3.084605e+00    3.333601e+01    2.674823e+00    5.864336e+07    2.239215e-08    5.701375e-10    2.149511e-08   -2.708371e+00
    3.113309e+00    3.507831e+01    2.633697e+00    5.834172e+07    2.236809e-08    5.498490e-10    2.148121e-08   -2.703371e+00
    3.142304e+00    3.689975e+01    2.592828e+00    5.803298e+07    2.234433e-08    5.302725e-10    2.146695e-08   -2.698371e+00
    3.171604e+00    3.880226e+01    2.552223e+00    5.771740e+07    2.232086e-08    5.113875e-10    2.145232e-08   -2.693371e+00
    3.201223e+00    4.078771e+01    2.511884e+00    5.739527e+07    2.229767e-08    4.931720e-10    2.143734e-08   -2.688371e+00
    3.231181e+00    4.285801e+01    2.471813e+00    5.706694e+07    2.227473e-08    4.756050e-10    2.142199e-08   -2.683371e+00
    3.261490e+00    4.501495e+01    2.432016e+00    5.673263e+07    2.225203e-08    4.586657e-10    2.140628e-08   -2.678371e+00
    3.292166e+00    4.726033e+01    2.392495e+00    5.639260e+07    2.222956e-08    4.423338e-10    2.139021e-08   -2.673371e+00
    3.323227e+00    4.959588e+01    2.353252e+00    5.604712e+07    2.220727e-08    4.265897e-10    2.137379e-08   -2.668371e+00
    3.354688e+00    5.202335e+01    2.314292e+00    5.569641e+07    2.218519e-08    4.114134e-10    2.135699e-08   -2.663371e+00
    3.386567e+00    5.454447e+01    2.275616e+00    5.534077e+07    2.216326e-08    3.967861e-10    2.133983e-08   -2.658371e+00
    3.418882e+00    5.716088e+01    2.237227e+00    5.498037e+07    2.214148e-08    3.826892e-10    2.132231e-08   -2.653371e+00
    3.451650e+00    5.987429e+01    2.199128e+00    5.461545e+07    2.211983e-08    3.691043e-10    2.130442e-08   -2.648371e+00
    3.484886e+00    6.268628e+01    2.161322e+00    5.424618e+07    2.209831e-08    3.560137e-10    2.128615e-08   -2.643371e+00
    3.518611e+00    6.559856e+01    2.123810e+00    5.387280e+07    2.207686e-08    3.434002e-10    2.126751e-08   -2.638371e+00
    3.552846e+00    6.861273e+01    2.086594e+00    5.349550e+07    2.205551e-08    3.312468e-10    2.124848e-08   -2.633371e+00
    3.587605e+00    7.173046e+01    2.049676e+00    5.311444e+07    2.203421e-08    3.195374e-10    2.122908e-08   -2.628371e+00
    3.622910e+00    7.495337e+01    2.013060e+00    5.272978e+07    2.201296e-08    3.082561e-10    2.120928e-08   -2.623371e+00
    3.658782e+00    7.828312e+01    1.976746e+00    5.234172e+07    2.199173e-08    2.973872e-10    2.118908e-08   -2.618371e+00
    3.695238e+00    8.172138e+01    1.940735e+00    5.195039e+07    2.197051e-08    2.869161e-10    2.116849e-08   -2.613371e+00
    3.732300e+00    8.526985e+01    1.905032e+00    5.155594e+07    2.194927e-08    2.768282e-10    2.114748e-08   -2.608371e+00
    3.769988e+00    8.893013e+01    1.869635e+00    5.115845e+07    2.192802e-08    2.671095e-10    2.112606e-08   -2.603371e+00
    3.808327e+00    9.270414e+01    1.834547e+00    5.075817e+07    2.190672e-08    2.577463e-10    2.110421e-08   -2.598371e+00
    3.847334e+00    9.659344e+01    1.799770e+00    5.035510e+07    2.188535e-08    2.487256e-10    2.108193e-08   -2.593371e+00
    3.887035e+00    1.006001e+02    1.765305e+00    4.994943e+07    2.186390e-08    2.400348e-10    2.105922e-08   -2.588371e+00
    3.927454e+00    1.047257e+02    1.731152e+00    4.954125e+07    2.184236e-08    2.316614e-10    2.103605e-08   -2.583371e+00
    3.968613e+00    1.089725e+02    1.697315e+00    4.913067e+07    2.182069e-08    2.235938e-10    2.101242e-08   -2.578371e+00
    4.010536e+00    1.133420e+02    1.663793e+00    4.871774e+07    2.179890e-08    2.158204e-10    2.098833e-08   -2.573371e+00
    4.053250e+00    1.178367e+02    1.630588e+00    4.830261e+07    2.177695e-08    2.083303e-10    2.096375e-08   -2.568371e+00
    4.096779e+00    1.224585e+02    1.597701e+00    4.788533e+07    2.175483e-08    2.011128e-10    2.093868e-08   -2.563371e+00
    4.141153e+00    1.272095e+02    1.565134e+00    4.746601e+07    2.173253e-08    1.941577e-10    2.091311e-08   -2.558371e+00
    4.186395e+00    1.320921e+02    1.532887e+00    4.704466e+07    2.171002e-08    1.874550e-10    2.088702e-08   -2.553371e+00
    4.232540e+00    1.371087e+02    1.500962e+00    4.662145e+07    2.168727e-08    1.809953e-10    2.086040e-08   -2.548371e+00
    4.279609e+00    1.422613e+02    1.469359e+00    4.619633e+07    2.166429e-08    1.747693e-10    2.083324e-08   -2.543371e+00
    4.327641e+00    1.475530e+02    1.438079e+00    4.576946e+07    2.164105e-08    1.687683e-10    2.080552e-08   -2.538371e+00
    4.376661e+00    1.529859e+02    1.407124e+00    4.534084e+07    2.161752e-08    1.629838e-10    2.077723e-08   -2.533371e+00
    4.426701e+00    1.585630e+02    1.376495e+00    4.491051e+07    2.159369e-08    1.574074e-10    2.074835e-08   -2.528371e+00
    4.477801e+00    1.642871e+02    1.346191e+00    4.447856e+07    2.156954e-08    1.520315e-10    2.071886e-08   -2.523371e+00
    4.529989e+00    1.701610e+02    1.316215e+00    4.404500e+07    2.154505e-08    1.468484e-10    2.068876e-08   -2.518371e+00
    4.583306e+00    1.761880e+02    1.286567e+00    4.360990e+07    2.152020e-08    1.418507e-10    2.065801e-08   -2.513371e+00
    4.637784e+00    1.823710e+02    1.257248e+00    4.317326e+07    2.149497e-08    1.370317e-10    2.062661e-08   -2.508371e+00
    4.693460e+00    1.887133e+02    1.228259e+00    4.273510e+07    2.146933e-08    1.323842e-10    2.059453e-08   -2.503371e+00
    4.750381e+00    1.952186e+02    1.199601e+00    4.229551e+07    2.144327e-08    1.279022e-10    2.056176e-08   -2.498371e+00
    4.808587e+00    2.018904e+02    1.171274e+00    4.185448e+07    2.141677e-08    1.235791e-10    2.052827e-08   -2.493371e+00
    4.868112e+00    2.087321e+02    1.143279e+00    4.141200e+07    2.138980e-08    1.194091e-10    2.049405e-08   -2.488371e+00
    4.929010e+00    2.157479e+02    1.115617e+00    4.096814e+07    2.136235e-08    1.153863e-10    2.045907e-08   -2.483371e+00
    4.991319e+00    2.229416e+02    1.088291e+00    4.052289e+07    2.133438e-08    1.115053e-10    2.042331e-08   -2.478371e+00
    5.055088e+00    2.303173e+02    1.061298e+00    4.007623e+07    2.130588e-08    1.077608e-10    2.038674e-08   -2.473371e+00
    5.120370e+00    2.378794e+02    1.034641e+00    3.962821e+07    2.127682e-08    1.041475e-10    2.034935e-08   -2.468371e+00
    5.187210e+00    2.456322e+02    1.008320e+00    3.917880e+07    2.124719e-08    1.006607e-10    2.031110e-08   -2.463371e+00
    5.255663e+00    2.535805e+02    9.823375e-01    3.872804e+07    2.121695e-08    9.729550e-11    2.027197e-08   -2.458371e+00
    5.325786e+00    2.617290e+02    9.566925e-01    3.827592e+07    2.118608e-08    9.404750e-11    2.023195e-08   -2.453371e+00
    5.397625e+00    2.700823e+02    9.313865e-01    3.782237e+07    2.115456e-08    9.091230e-11    2.019100e-08   -2.448371e+00
    5.471250e+00    2.786459e+02    9.064200e-01    3.736747e+07    2.112236e-08    8.788570e-11    2.014908e-08   -2.443371e+00
    5.546714e+00    2.874248e+02    8.817940e-01    3.691115e+07    2.108946e-08    8.496370e-11    2.010618e-08   -2.438371e+00
    5.624076e+00    2.964244e+02    8.575100e-01    3.645342e+07    2.105583e-08    8.214240e-11    2.006227e-08   -2.433371e+00
    5.703408e+00    3.056500e+02    8.335675e-01    3.599424e+07    2.102143e-08    7.941810e-11    2.001731e-08   -2.428371e+00
    5.784769e+00    3.151077e+02    8.099685e-01    3.553360e+07    2.098626e-08    7.678720e-11    1.997127e-08   -2.423371e+00
    5.868232e+00    3.248030e+02    7.867130e-01    3.507147e+07    2.095028e-08    7.424635e-11    1.992413e-08   -2.418371e+00
    5.953864e+00    3.347419e+02    7.638025e-01    3.460783e+07    2.091345e-08    7.179220e-11    1.987584e-08   -2.413371e+00
    6.041738e+00    3.449306e+02    7.412375e-01    3.414265e+07    2.087575e-08    6.942165e-11    1.982638e-08   -2.408371e+00
    6.131929e+00    3.553751e+02    7.190190e-01    3.367588e+07    2.083716e-08    6.713155e-11    1.977571e-08   -2.403371e+00
    6.224512e+00    3.660817e+02    6.971480e-01    3.320751e+07    2.079765e-08    6.491905e-11    1.972381e-08   -2.398371e+00
    6.319564e+00    3.770569e+02    6.756255e-01    3.273747e+07    2.075717e-08    6.278130e-11    1.967063e-08   -2.393371e+00
    6.417169e+00    3.883069e+02    6.544520e-01    3.226574e+07    2.071571e-08    6.071565e-11    1.961613e-08   -2.388371e+00
    6.517410e+00    3.998385e+02    6.336285e-01    3.179228e+07    2.067322e-08    5.871945e-11    1.956027e-08   -2.383371e+00
    6.620369e+00    4.116579e+02    6.131560e-01    3.131704e+07    2.062968e-08    5.679025e-11    1.950304e-08   -2.378371e+00
    6.726132e+00    4.237716e+02    5.930355e-01    3.083996e+07    2.058507e-08    5.492565e-11    1.944437e-08   -2.373371e+00
    6.834786e+00    4.361861e+02    5.732680e-01    3.036102e+07    2.053934e-08    5.312335e-11    1.938424e-08   -2.368371e+00
    6.946425e+00    4.489077e+02    5.538540e-01    2.988015e+07    2.049246e-08    5.138105e-11    1.932261e-08   -2.363371e+00
    7.061133e+00    4.619426e+02    5.347950e-01    2.939730e+07    2.044440e-08    4.969675e-11    1.925942e-08   -2.358371e+00
    7.178999e+00    4.752968e+02    5.160920e-01    2.891244e+07    2.039513e-08    4.806832e-11    1.919465e-08   -2.353371e+00
    7.300125e+00    4.889763e+02    4.977453e-01    2.842551e+07    2.034461e-08    4.649380e-11    1.912826e-08   -2.348371e+00
    7.424596e+00    5.029859e+02    4.797562e-01    2.793646e+07    2.029281e-08    4.497132e-11    1.906019e-08   -2.343371e+00
    7.552505e+00    5.173316e+02    4.621256e-01    2.744527e+07    2.023969e-08    4.349904e-11    1.899041e-08   -2.338371e+00
    7.683944e+00    5.320175e+02    4.448544e-01    2.695186e+07    2.018522e-08    4.207521e-11    1.891886e-08   -2.333371e+00
    7.819004e+00    5.470474e+02    4.279435e-01    2.645623e+07    2.012937e-08    4.069814e-11    1.884553e-08   -2.328371e+00
    7.957773e+00    5.624251e+02    4.113938e-01    2.595832e+07    2.007210e-08    3.936622e-11    1.877035e-08   -2.323371e+00
    8.100336e+00    5.781539e+02    3.952060e-01    2.545813e+07    2.001337e-08    3.807788e-11    1.869328e-08   -2.318371e+00
    8.246777e+00    5.942343e+02    3.793810e-01    2.495562e+07    1.995315e-08    3.683163e-11    1.861429e-08   -2.313371e+00
    8.397175e+00    6.106675e+02    3.639196e-01    2.445080e+07    1.989141e-08    3.562601e-11    1.853332e-08   -2.308371e+00
    8.551603e+00    6.274538e+02    3.488223e-01    2.394365e+07    1.982812e-08    3.445964e-11    1.845033e-08   -2.303371e+00
    8.710128e+00    6.445908e+02    3.340899e-01    2.343420e+07    1.976323e-08    3.333118e-11    1.836528e-08   -2.298371e+00
    8.872813e+00    6.620756e+02    3.197228e-01    2.292247e+07    1.969671e-08    3.223934e-11    1.827813e-08   -2.293371e+00
    9.039708e+00    6.799034e+02    3.057216e-01    2.240850e+07    1.962854e-08    3.118287e-11    1.818882e-08   -2.288371e+00
    9.210852e+00    6.980675e+02    2.920866e-01    2.189235e+07    1.955867e-08    3.016059e-11    1.809733e-08   -2.283371e+00
    9.386277e+00    7.165592e+02    2.788179e-01    2.137409e+07    1.948707e-08    2.917135e-11    1.800360e-08   -2.278371e+00
    9.565998e+00    7.353677e+02    2.659160e-01    2.085384e+07    1.941372e-08    2.821404e-11    1.790760e-08   -2.273371e+00
    9.750016e+00    7.544793e+02    2.533804e-01    2.033172e+07    1.933858e-08    2.728758e-11    1.780927e-08   -2.268371e+00
    9.938315e+00    7.738785e+02    2.412112e-01    1.980787e+07    1.926162e-08    2.639095e-11    1.770860e-08   -2.263371e+00
    1.013086e+01    7.935460e+02    2.294079e-01    1.928247e+07    1.918281e-08    2.552317e-11    1.760553e-08   -2.258371e+00
    1.032759e+01    8.134600e+02    2.179700e-01    1.875574e+07    1.910213e-08    2.468327e-11    1.750003e-08   -2.253371e+00
    1.052843e+01    8.335947e+02    2.068966e-01    1.822792e+07    1.901954e-08    2.387033e-11    1.739206e-08   -2.248371e+00
    1.073327e+01    8.539219e+02    1.961866e-01    1.769929e+07    1.893502e-08    2.308348e-11    1.728160e-08   -2.243371e+00
    1.094197e+01    8.744085e+02    1.858389e-01    1.717016e+07    1.884855e-08    2.232184e-11    1.716859e-08   -2.238371e+00
    1.115437e+01    8.950183e+02    1.758516e-01    1.664088e+07    1.876011e-08    2.158461e-11    1.705302e-08   -2.233371e+00
    1.137028e+01    9.157110e+02    1.662230e-01    1.611186e+07    1.866967e-08    2.087099e-11    1.693486e-08   -2.228371e+00
    1.158945e+01    9.364422e+02    1.569508e-01    1.558353e+07    1.857722e-08    2.018020e-11    1.681408e-08   -2.223371e+00
    1.181161e+01    9.571631e+02    1.480324e-01    1.505635e+07    1.848274e-08    1.951151e-11    1.669065e-08   -2.218371e+00
    1.203647e+01    9.778216e+02    1.394647e-01    1.453086e+07    1.838621e-08    1.886421e-11    1.656457e-08   -2.213371e+00
    1.226367e+01    9.983609e+02    1.312445e-01    1.400762e+07    1.828763e-08    1.823760e-11    1.643579e-08   -2.208371e+00
    1.249281e+01    1.018720e+03    1.233680e-01    1.348721e+07    1.818698e-08    1.763102e-11    1.630433e-08   -2.203371e+00
    1.272347e+01    1.038836e+03    1.158309e-01    1.297028e+07    1.808427e-08    1.704384e-11    1.617015e-08   -2.198371e+00
    1.295517e+01    1.058642e+03    1.086287e-01    1.245750e+07    1.797948e-08    1.647543e-11    1.603326e-08   -2.193371e+00
    1.318742e+01    1.078068e+03    1.017561e-01    1.194957e+07    1.787262e-08    1.592520e-11    1.589365e-08   -2.188371e+00
    1.341963e+01    1.097041e+03    9.520775e-02    1.144722e+07    1.776368e-08    1.539256e-11    1.575133e-08   -2.183371e+00
    1.365125e+01    1.115489e+03    8.897750e-02    1.095121e+07    1.765268e-08    1.487697e-11    1.560628e-08   -2.178371e+00
    1.388163e+01    1.133337e+03    8.305895e-02    1.046229e+07    1.753963e-08    1.437788e-11    1.545853e-08   -2.173371e+00
    1.411014e+01    1.150512e+03    7.744520e-02    9.981245e+06    1.742454e-08    1.389477e-11    1.530808e-08   -2.168371e+00
    1.433610e+01    1.166941e+03    7.212880e-02    9.508843e+06    1.730742e-08    1.342714e-11    1.515496e-08   -2.163371e+00
    1.455883e+01    1.182553e+03    6.710205e-02    9.045853e+06    1.718830e-08    1.297451e-11    1.499918e-08   -2.158371e+00
    1.477761e+01    1.197281e+03    6.235675e-02    8.593014e+06    1.706720e-08    1.253640e-11    1.484077e-08   -2.153371e+00
    1.499178e+01    1.211064e+03    5.788430e-02    8.151058e+06    1.694416e-08    1.211236e-11    1.467978e-08   -2.148371e+00
    1.520060e+01    1.223842e+03    5.367585e-02    7.720657e+06    1.681920e-08    1.170196e-11    1.451622e-08   -2.143371e+00
    1.540344e+01    1.235568e+03    4.972214e-02    7.302466e+06    1.669238e-08    1.130476e-11    1.435016e-08   -2.138371e+00
    1.559964e+01    1.246197e+03    4.601372e-02    6.897067e+06    1.656371e-08    1.092037e-11    1.418163e-08   -2.133371e+00
    1.578861e+01    1.255697e+03    4.254090e-02    6.504993e+06    1.643326e-08    1.054837e-11    1.401069e-08   -2.128371e+00
    1.596977e+01    1.264043e+03    3.929380e-02    6.126698e+06    1.630108e-08    1.018839e-11    1.383740e-08   -2.123371e+00
    1.614266e+01    1.271223e+03    3.626243e-02    5.762577e+06    1.616722e-08    9.840045e-12    1.366183e-08   -2.118371e+00
    1.630687e+01    1.277236e+03    3.343672e-02    5.412944e+06    1.603174e-08    9.502990e-12    1.348406e-08   -2.113371e+00
    1.646202e+01    1.282088e+03    3.080659e-02    5.078016e+06    1.589471e-08    9.176870e-12    1.330415e-08   -2.108371e+00
    1.660790e+01    1.285802e+03    2.836199e-02    4.757952e+06    1.575620e-08    8.861345e-12    1.312219e-08   -2.103371e+00
    1.674434e+01    1.288410e+03    2.609296e-02    4.452808e+06    1.561628e-08    8.556095e-12    1.293826e-08   -2.098371e+00
