# sky130 pfet_01v8 gm/ID Processed Lookup Table
# Corner: sf
# Temperature: 25C
# W = 2.0 um
# L = 3.06 um (3060 nm)
# Columns: gm/id [1/V]  gm/gds [V/V]  id/W [A/m]  ft [Hz]  Cgg/W [F/m]  Cgd/W [F/m]  Cgs/W [F/m]  Vov [V]
#         gm/id          gm/gds            id/W              ft           Cgg/W           Cgd/W           Cgs/W             Vov
    2.311851e+00    7.225787e+00    5.346430e+00    1.136381e+08    1.731090e-08    1.121298e-09    1.608762e-08   -2.851905e+00
    2.335186e+00    7.531602e+00    5.284680e+00    1.136421e+08    1.728307e-08    1.085836e-09    1.608628e-08   -2.846905e+00
    2.358730e+00    7.855719e+00    5.223030e+00    1.136290e+08    1.725567e-08    1.051225e-09    1.608458e-08   -2.841905e+00
    2.382480e+00    8.199268e+00    5.161485e+00    1.135981e+08    1.722872e-08    1.017464e-09    1.608253e-08   -2.836905e+00
    2.406426e+00    8.563427e+00    5.100060e+00    1.135491e+08    1.720220e-08    9.845525e-10    1.608014e-08   -2.831905e+00
    2.430562e+00    8.949429e+00    5.038760e+00    1.134815e+08    1.717613e-08    9.524865e-10    1.607740e-08   -2.826905e+00
    2.454885e+00    9.358545e+00    4.977592e+00    1.133950e+08    1.715050e-08    9.212620e-10    1.607431e-08   -2.821905e+00
    2.479387e+00    9.792106e+00    4.916568e+00    1.132891e+08    1.712531e-08    8.908740e-10    1.607089e-08   -2.816905e+00
    2.504064e+00    1.025148e+01    4.855694e+00    1.131636e+08    1.710055e-08    8.613145e-10    1.606714e-08   -2.811905e+00
    2.528911e+00    1.073808e+01    4.794981e+00    1.130182e+08    1.707623e-08    8.325765e-10    1.606305e-08   -2.806905e+00
    2.553925e+00    1.125335e+01    4.734437e+00    1.128529e+08    1.705233e-08    8.046510e-10    1.605863e-08   -2.801905e+00
    2.579102e+00    1.179879e+01    4.674070e+00    1.126675e+08    1.702885e-08    7.775280e-10    1.605390e-08   -2.796905e+00
    2.604440e+00    1.237590e+01    4.613891e+00    1.124618e+08    1.700579e-08    7.511965e-10    1.604884e-08   -2.791905e+00
    2.629937e+00    1.298623e+01    4.553907e+00    1.122359e+08    1.698314e-08    7.256460e-10    1.604347e-08   -2.786905e+00
    2.655593e+00    1.363134e+01    4.494129e+00    1.119898e+08    1.696089e-08    7.008630e-10    1.603778e-08   -2.781905e+00
    2.681407e+00    1.431282e+01    4.434564e+00    1.117237e+08    1.693903e-08    6.768350e-10    1.603178e-08   -2.776905e+00
    2.707380e+00    1.503226e+01    4.375223e+00    1.114376e+08    1.691756e-08    6.535485e-10    1.602549e-08   -2.771905e+00
    2.733515e+00    1.579126e+01    4.316113e+00    1.111319e+08    1.689646e-08    6.309890e-10    1.601890e-08   -2.766905e+00
    2.759816e+00    1.659141e+01    4.257244e+00    1.108068e+08    1.687572e-08    6.091425e-10    1.601201e-08   -2.761905e+00
    2.786284e+00    1.743433e+01    4.198624e+00    1.104625e+08    1.685534e-08    5.879940e-10    1.600483e-08   -2.756905e+00
    2.812929e+00    1.832160e+01    4.140261e+00    1.100995e+08    1.683531e-08    5.675275e-10    1.599735e-08   -2.751905e+00
    2.839752e+00    1.925480e+01    4.082164e+00    1.097181e+08    1.681561e-08    5.477280e-10    1.598959e-08   -2.746905e+00
    2.866764e+00    2.023550e+01    4.024341e+00    1.093187e+08    1.679624e-08    5.285795e-10    1.598156e-08   -2.741905e+00
    2.893971e+00    2.126523e+01    3.966798e+00    1.089019e+08    1.677719e-08    5.100665e-10    1.597324e-08   -2.736905e+00
    2.921383e+00    2.234553e+01    3.909545e+00    1.084680e+08    1.675843e-08    4.921722e-10    1.596465e-08   -2.731905e+00
    2.949009e+00    2.347786e+01    3.852588e+00    1.080176e+08    1.673995e-08    4.748808e-10    1.595578e-08   -2.726905e+00
    2.976859e+00    2.466370e+01    3.795934e+00    1.075511e+08    1.672177e-08    4.581762e-10    1.594664e-08   -2.721905e+00
    3.004944e+00    2.590448e+01    3.739591e+00    1.070691e+08    1.670384e-08    4.420422e-10    1.593723e-08   -2.716905e+00
    3.033277e+00    2.720161e+01    3.683563e+00    1.065722e+08    1.668617e-08    4.264627e-10    1.592757e-08   -2.711905e+00
    3.061872e+00    2.855645e+01    3.627860e+00    1.060608e+08    1.666874e-08    4.114218e-10    1.591763e-08   -2.706905e+00
    3.090737e+00    2.997032e+01    3.572485e+00    1.055355e+08    1.665153e-08    3.969037e-10    1.590743e-08   -2.701905e+00
    3.119889e+00    3.144453e+01    3.517446e+00    1.049967e+08    1.663455e-08    3.828927e-10    1.589696e-08   -2.696905e+00
    3.149343e+00    3.298035e+01    3.462747e+00    1.044451e+08    1.661776e-08    3.693735e-10    1.588623e-08   -2.691905e+00
    3.179111e+00    3.457901e+01    3.408394e+00    1.038812e+08    1.660117e-08    3.563306e-10    1.587525e-08   -2.686905e+00
    3.209209e+00    3.624173e+01    3.354392e+00    1.033054e+08    1.658476e-08    3.437492e-10    1.586400e-08   -2.681905e+00
    3.239653e+00    3.796968e+01    3.300746e+00    1.027182e+08    1.656851e-08    3.316145e-10    1.585249e-08   -2.676905e+00
    3.270455e+00    3.976400e+01    3.247461e+00    1.021200e+08    1.655241e-08    3.199119e-10    1.584072e-08   -2.671905e+00
    3.301638e+00    4.162587e+01    3.194541e+00    1.015116e+08    1.653645e-08    3.086275e-10    1.582868e-08   -2.666905e+00
    3.333213e+00    4.355637e+01    3.141990e+00    1.008931e+08    1.652062e-08    2.977472e-10    1.581639e-08   -2.661905e+00
    3.365196e+00    4.555659e+01    3.089813e+00    1.002650e+08    1.650491e-08    2.872575e-10    1.580383e-08   -2.656905e+00
    3.397609e+00    4.762768e+01    3.038013e+00    9.962789e+07    1.648930e-08    2.771452e-10    1.579100e-08   -2.651905e+00
    3.430465e+00    4.977065e+01    2.986594e+00    9.898195e+07    1.647378e-08    2.673973e-10    1.577790e-08   -2.646905e+00
    3.463784e+00    5.198663e+01    2.935560e+00    9.832772e+07    1.645834e-08    2.580013e-10    1.576454e-08   -2.641905e+00
    3.497583e+00    5.427667e+01    2.884914e+00    9.766549e+07    1.644295e-08    2.489449e-10    1.575089e-08   -2.636905e+00
    3.531882e+00    5.664189e+01    2.834659e+00    9.699563e+07    1.642763e-08    2.402161e-10    1.573698e-08   -2.631905e+00
    3.566697e+00    5.908332e+01    2.784798e+00    9.631846e+07    1.641234e-08    2.318036e-10    1.572278e-08   -2.626905e+00
    3.602050e+00    6.160212e+01    2.735334e+00    9.563431e+07    1.639708e-08    2.236958e-10    1.570830e-08   -2.621905e+00
    3.637960e+00    6.419942e+01    2.686271e+00    9.494351e+07    1.638184e-08    2.158820e-10    1.569354e-08   -2.616905e+00
    3.674447e+00    6.687633e+01    2.637610e+00    9.424631e+07    1.636659e-08    2.083515e-10    1.567849e-08   -2.611905e+00
    3.711528e+00    6.963403e+01    2.589354e+00    9.354296e+07    1.635134e-08    2.010941e-10    1.566313e-08   -2.606905e+00
    3.749230e+00    7.247376e+01    2.541506e+00    9.283377e+07    1.633606e-08    1.940999e-10    1.564748e-08   -2.601905e+00
    3.787571e+00    7.539673e+01    2.494068e+00    9.211901e+07    1.632074e-08    1.873593e-10    1.563151e-08   -2.596905e+00
    3.826573e+00    7.840416e+01    2.447042e+00    9.139883e+07    1.630538e-08    1.808630e-10    1.561523e-08   -2.591905e+00
    3.866261e+00    8.149749e+01    2.400431e+00    9.067350e+07    1.628996e-08    1.746020e-10    1.559864e-08   -2.586905e+00
    3.906654e+00    8.467798e+01    2.354236e+00    8.994323e+07    1.627446e-08    1.685675e-10    1.558171e-08   -2.581905e+00
    3.947780e+00    8.794710e+01    2.308460e+00    8.920821e+07    1.625888e-08    1.627514e-10    1.556446e-08   -2.576905e+00
    3.989661e+00    9.130634e+01    2.263104e+00    8.846861e+07    1.624319e-08    1.571453e-10    1.554687e-08   -2.571905e+00
    4.032324e+00    9.475722e+01    2.218170e+00    8.772463e+07    1.622740e-08    1.517416e-10    1.552892e-08   -2.566905e+00
    4.075793e+00    9.830130e+01    2.173660e+00    8.697640e+07    1.621148e-08    1.465327e-10    1.551062e-08   -2.561905e+00
    4.120096e+00    1.019403e+02    2.129577e+00    8.622410e+07    1.619542e-08    1.415113e-10    1.549195e-08   -2.556905e+00
    4.165260e+00    1.056759e+02    2.085920e+00    8.546785e+07    1.617921e-08    1.366704e-10    1.547291e-08   -2.551905e+00
    4.211311e+00    1.095099e+02    2.042693e+00    8.470777e+07    1.616283e-08    1.320033e-10    1.545348e-08   -2.546905e+00
    4.258283e+00    1.134443e+02    1.999897e+00    8.394406e+07    1.614627e-08    1.275035e-10    1.543366e-08   -2.541905e+00
    4.306204e+00    1.174810e+02    1.957533e+00    8.317679e+07    1.612953e-08    1.231647e-10    1.541343e-08   -2.536905e+00
    4.355105e+00    1.216221e+02    1.915601e+00    8.240605e+07    1.611257e-08    1.189808e-10    1.539279e-08   -2.531905e+00
    4.405016e+00    1.258698e+02    1.874107e+00    8.163195e+07    1.609540e-08    1.149461e-10    1.537171e-08   -2.526905e+00
    4.455976e+00    1.302261e+02    1.833048e+00    8.085461e+07    1.607800e-08    1.110549e-10    1.535021e-08   -2.521905e+00
    4.508015e+00    1.346936e+02    1.792427e+00    8.007410e+07    1.606034e-08    1.073020e-10    1.532825e-08   -2.516905e+00
    4.561169e+00    1.392747e+02    1.752245e+00    7.929051e+07    1.604242e-08    1.036821e-10    1.530582e-08   -2.511905e+00
    4.615474e+00    1.439717e+02    1.712505e+00    7.850388e+07    1.602423e-08    1.001902e-10    1.528292e-08   -2.506905e+00
    4.670971e+00    1.487876e+02    1.673206e+00    7.771429e+07    1.600574e-08    9.682150e-11    1.525952e-08   -2.501905e+00
    4.727701e+00    1.537252e+02    1.634350e+00    7.692182e+07    1.598695e-08    9.357145e-11    1.523562e-08   -2.496905e+00
    4.785698e+00    1.587871e+02    1.595938e+00    7.612649e+07    1.596783e-08    9.043565e-11    1.521120e-08   -2.491905e+00
    4.845009e+00    1.639765e+02    1.557974e+00    7.532835e+07    1.594837e-08    8.740975e-11    1.518624e-08   -2.486905e+00
    4.905680e+00    1.692965e+02    1.520455e+00    7.452747e+07    1.592856e-08    8.448970e-11    1.516074e-08   -2.481905e+00
    4.967749e+00    1.747503e+02    1.483385e+00    7.372383e+07    1.590838e-08    8.167155e-11    1.513467e-08   -2.476905e+00
    5.031272e+00    1.803414e+02    1.446765e+00    7.291749e+07    1.588781e-08    7.895150e-11    1.510801e-08   -2.471905e+00
    5.096289e+00    1.860732e+02    1.410595e+00    7.210846e+07    1.586684e-08    7.632590e-11    1.508074e-08   -2.466905e+00
    5.162855e+00    1.919494e+02    1.374877e+00    7.129672e+07    1.584544e-08    7.379130e-11    1.505286e-08   -2.461905e+00
    5.231020e+00    1.979738e+02    1.339613e+00    7.048234e+07    1.582360e-08    7.134430e-11    1.502434e-08   -2.456905e+00
    5.300843e+00    2.041504e+02    1.304802e+00    6.966529e+07    1.580132e-08    6.898170e-11    1.499516e-08   -2.451905e+00
    5.372375e+00    2.104833e+02    1.270448e+00    6.884558e+07    1.577855e-08    6.670035e-11    1.496531e-08   -2.446905e+00
    5.445674e+00    2.169766e+02    1.236549e+00    6.802315e+07    1.575529e-08    6.449725e-11    1.493476e-08   -2.441905e+00
    5.520805e+00    2.236348e+02    1.203109e+00    6.719805e+07    1.573152e-08    6.236960e-11    1.490348e-08   -2.436905e+00
    5.597821e+00    2.304623e+02    1.170129e+00    6.637022e+07    1.570723e-08    6.031460e-11    1.487147e-08   -2.431905e+00
    5.676793e+00    2.374639e+02    1.137608e+00    6.553965e+07    1.568237e-08    5.832955e-11    1.483870e-08   -2.426905e+00
    5.757782e+00    2.446441e+02    1.105549e+00    6.470624e+07    1.565695e-08    5.641195e-11    1.480514e-08   -2.421905e+00
    5.840861e+00    2.520081e+02    1.073953e+00    6.387006e+07    1.563094e-08    5.455935e-11    1.477077e-08   -2.416905e+00
    5.926096e+00    2.595610e+02    1.042822e+00    6.303098e+07    1.560431e-08    5.276940e-11    1.473557e-08   -2.411905e+00
    6.013560e+00    2.673079e+02    1.012155e+00    6.218898e+07    1.557705e-08    5.103985e-11    1.469952e-08   -2.406905e+00
    6.103332e+00    2.752543e+02    9.819555e-01    6.134404e+07    1.554914e-08    4.936844e-11    1.466258e-08   -2.401905e+00
    6.195484e+00    2.834054e+02    9.522235e-01    6.049603e+07    1.552056e-08    4.775316e-11    1.462473e-08   -2.396905e+00
    6.290092e+00    2.917669e+02    9.229610e-01    5.964488e+07    1.549128e-08    4.619197e-11    1.458596e-08   -2.391905e+00
    6.387243e+00    3.003445e+02    8.941690e-01    5.879060e+07    1.546128e-08    4.468294e-11    1.454622e-08   -2.386905e+00
    6.487024e+00    3.091442e+02    8.658485e-01    5.793309e+07    1.543053e-08    4.322420e-11    1.450550e-08   -2.381905e+00
    6.589505e+00    3.181712e+02    8.380015e-01    5.707220e+07    1.539902e-08    4.181398e-11    1.446376e-08   -2.376905e+00
    6.694789e+00    3.274323e+02    8.106290e-01    5.620798e+07    1.536672e-08    4.045054e-11    1.442097e-08   -2.371905e+00
    6.802950e+00    3.369324e+02    7.837320e-01    5.534020e+07    1.533361e-08    3.913225e-11    1.437712e-08   -2.366905e+00
    6.914088e+00    3.466781e+02    7.573125e-01    5.446889e+07    1.529966e-08    3.785750e-11    1.433216e-08   -2.361905e+00
    7.028295e+00    3.566754e+02    7.313715e-01    5.359397e+07    1.526484e-08    3.662476e-11    1.428607e-08   -2.356905e+00
    7.145656e+00    3.669294e+02    7.059100e-01    5.271524e+07    1.522914e-08    3.543258e-11    1.423882e-08   -2.351905e+00
    7.266273e+00    3.774469e+02    6.809300e-01    5.183274e+07    1.519253e-08    3.427952e-11    1.419038e-08   -2.346905e+00
    7.390238e+00    3.882327e+02    6.564320e-01    5.094631e+07    1.515499e-08    3.316423e-11    1.414071e-08   -2.341905e+00
    7.517634e+00    3.992926e+02    6.324185e-01    5.005591e+07    1.511648e-08    3.208541e-11    1.408979e-08   -2.336905e+00
    7.648573e+00    4.106314e+02    6.088895e-01    4.916145e+07    1.507698e-08    3.104178e-11    1.403757e-08   -2.331905e+00
    7.783129e+00    4.222544e+02    5.858475e-01    4.826286e+07    1.503647e-08    3.003214e-11    1.398404e-08   -2.326905e+00
    7.921405e+00    4.341658e+02    5.632930e-01    4.736008e+07    1.499493e-08    2.905531e-11    1.392916e-08   -2.321905e+00
    8.063494e+00    4.463699e+02    5.412270e-01    4.645308e+07    1.495231e-08    2.811018e-11    1.387289e-08   -2.316905e+00
    8.209468e+00    4.588698e+02    5.196515e-01    4.554180e+07    1.490861e-08    2.719567e-11    1.381521e-08   -2.311905e+00
    8.359425e+00    4.716686e+02    4.985668e-01    4.462625e+07    1.486379e-08    2.631073e-11    1.375607e-08   -2.306905e+00
    8.513434e+00    4.847683e+02    4.779744e-01    4.370639e+07    1.481783e-08    2.545436e-11    1.369545e-08   -2.301905e+00
    8.671569e+00    4.981701e+02    4.578751e-01    4.278226e+07    1.477070e-08    2.462559e-11    1.363332e-08   -2.296905e+00
    8.833897e+00    5.118742e+02    4.382697e-01    4.185390e+07    1.472238e-08    2.382350e-11    1.356963e-08   -2.291905e+00
    9.000474e+00    5.258797e+02    4.191590e-01    4.092138e+07    1.467284e-08    2.304719e-11    1.350437e-08   -2.286905e+00
    9.171347e+00    5.401849e+02    4.005436e-01    3.998478e+07    1.462206e-08    2.229579e-11    1.343749e-08   -2.281905e+00
    9.346555e+00    5.547853e+02    3.824239e-01    3.904426e+07    1.457000e-08    2.156849e-11    1.336896e-08   -2.276905e+00
    9.526119e+00    5.696762e+02    3.648002e-01    3.809996e+07    1.451666e-08    2.086446e-11    1.329876e-08   -2.271905e+00
    9.710049e+00    5.848510e+02    3.476726e-01    3.715213e+07    1.446200e-08    2.018296e-11    1.322685e-08   -2.266905e+00
    9.898336e+00    6.002998e+02    3.310410e-01    3.620100e+07    1.440600e-08    1.952323e-11    1.315321e-08   -2.261905e+00
    1.009096e+01    6.160126e+02    3.149049e-01    3.524690e+07    1.434865e-08    1.888456e-11    1.307779e-08   -2.256905e+00
    1.028786e+01    6.319753e+02    2.992637e-01    3.429019e+07    1.428991e-08    1.826625e-11    1.300058e-08   -2.251905e+00
    1.048898e+01    6.481724e+02    2.841167e-01    3.333131e+07    1.422976e-08    1.766764e-11    1.292155e-08   -2.246905e+00
    1.069421e+01    6.645854e+02    2.694624e-01    3.237072e+07    1.416820e-08    1.708809e-11    1.284067e-08   -2.241905e+00
    1.090344e+01    6.811925e+02    2.552992e-01    3.140899e+07    1.410520e-08    1.652698e-11    1.275791e-08   -2.236905e+00
    1.111651e+01    6.979696e+02    2.416253e-01    3.044676e+07    1.404073e-08    1.598371e-11    1.267326e-08   -2.231905e+00
    1.133323e+01    7.148888e+02    2.284381e-01    2.948471e+07    1.397480e-08    1.545770e-11    1.258669e-08   -2.226905e+00
    1.155339e+01    7.319193e+02    2.157348e-01    2.852362e+07    1.390737e-08    1.494841e-11    1.249817e-08   -2.221905e+00
    1.177672e+01    7.490268e+02    2.035122e-01    2.756433e+07    1.383845e-08    1.445529e-11    1.240769e-08   -2.216905e+00
    1.200293e+01    7.661734e+02    1.917664e-01    2.660779e+07    1.376801e-08    1.397783e-11    1.231524e-08   -2.211905e+00
    1.223168e+01    7.833179e+02    1.804931e-01    2.565497e+07    1.369605e-08    1.351553e-11    1.222080e-08   -2.206905e+00
    1.246259e+01    8.004159e+02    1.696874e-01    2.470697e+07    1.362256e-08    1.306790e-11    1.212436e-08   -2.201905e+00
    1.269526e+01    8.174194e+02    1.593437e-01    2.376493e+07    1.354753e-08    1.263448e-11    1.202589e-08   -2.196905e+00
    1.292921e+01    8.342775e+02    1.494561e-01    2.283006e+07    1.347097e-08    1.221482e-11    1.192542e-08   -2.191905e+00
    1.316393e+01    8.509364e+02    1.400179e-01    2.190362e+07    1.339286e-08    1.180849e-11    1.182292e-08   -2.186905e+00
    1.339890e+01    8.673400e+02    1.310217e-01    2.098697e+07    1.331322e-08    1.141508e-11    1.171838e-08   -2.181905e+00
    1.363353e+01    8.834303e+02    1.224597e-01    2.008143e+07    1.323204e-08    1.103416e-11    1.161183e-08   -2.176905e+00
    1.386719e+01    8.991473e+02    1.143232e-01    1.918843e+07    1.314933e-08    1.066536e-11    1.150326e-08   -2.171905e+00
    1.409925e+01    9.144309e+02    1.066031e-01    1.830938e+07    1.306509e-08    1.030829e-11    1.139267e-08   -2.166905e+00
    1.432904e+01    9.292203e+02    9.928960e-02    1.744570e+07    1.297935e-08    9.962585e-12    1.128008e-08   -2.161905e+00
    1.455587e+01    9.434558e+02    9.237230e-02    1.659877e+07    1.289211e-08    9.627895e-12    1.116550e-08   -2.156905e+00
    1.477903e+01    9.570790e+02    8.584025e-02    1.577001e+07    1.280340e-08    9.303880e-12    1.104896e-08   -2.151905e+00
    1.499782e+01    9.700335e+02    7.968200e-02    1.496074e+07    1.271322e-08    8.990205e-12    1.093048e-08   -2.146905e+00
    1.521154e+01    9.822671e+02    7.388560e-02    1.417224e+07    1.262161e-08    8.686555e-12    1.081007e-08   -2.141905e+00
    1.541952e+01    9.937327e+02    6.843865e-02    1.340572e+07    1.252860e-08    8.392620e-12    1.068778e-08   -2.136905e+00
    1.562107e+01    1.004387e+03    6.332840e-02    1.266227e+07    1.243421e-08    8.108095e-12    1.056363e-08   -2.131905e+00
    1.581560e+01    1.014191e+03    5.854170e-02    1.194290e+07    1.233847e-08    7.832695e-12    1.043766e-08   -2.126905e+00
    1.600253e+01    1.023119e+03    5.406520e-02    1.124850e+07    1.224143e-08    7.566145e-12    1.030994e-08   -2.121905e+00
    1.618137e+01    1.031149e+03    4.988534e-02    1.057981e+07    1.214312e-08    7.308160e-12    1.018048e-08   -2.116905e+00
    1.635165e+01    1.038265e+03    4.598849e-02    9.937450e+06    1.204359e-08    7.058490e-12    1.004935e-08   -2.111905e+00
    1.651301e+01    1.044464e+03    4.236089e-02    9.321859e+06    1.194288e-08    6.816875e-12    9.916605e-09   -2.106905e+00
    1.666522e+01    1.049754e+03    3.898886e-02    8.733367e+06    1.184104e-08    6.583070e-12    9.782305e-09   -2.101905e+00
    1.680806e+01    1.054146e+03    3.585880e-02    8.172112e+06    1.173814e-08    6.356830e-12    9.646515e-09   -2.096905e+00
