# sky130 pfet_01v8 gm/ID Processed Lookup Table
# Corner: sf
# Temperature: 25C
# W = 2.0 um
# L = 3.96 um (3960 nm)
# Columns: gm/id [1/V]  gm/gds [V/V]  id/W [A/m]  ft [Hz]  Cgg/W [F/m]  Cgd/W [F/m]  Cgs/W [F/m]  Vov [V]
#         gm/id          gm/gds            id/W              ft           Cgg/W           Cgd/W           Cgs/W             Vov
    2.332804e+00    7.755519e+00    4.137333e+00    6.889873e+07    2.229501e-08    1.484244e-09    2.078826e-08   -2.853270e+00
    2.356165e+00    8.097758e+00    4.089117e+00    6.889214e+07    2.225798e-08    1.437264e-09    2.078658e-08   -2.848270e+00
    2.379723e+00    8.461153e+00    4.040989e+00    6.887477e+07    2.222154e-08    1.391397e-09    2.078444e-08   -2.843270e+00
    2.403472e+00    8.847048e+00    3.992955e+00    6.884638e+07    2.218567e-08    1.346645e-09    2.078184e-08   -2.838270e+00
    2.427404e+00    9.256859e+00    3.945021e+00    6.880664e+07    2.215038e-08    1.303006e-09    2.077878e-08   -2.833270e+00
    2.451513e+00    9.692054e+00    3.897195e+00    6.875530e+07    2.211568e-08    1.260479e-09    2.077528e-08   -2.828270e+00
    2.475796e+00    1.015418e+01    3.849483e+00    6.869225e+07    2.208156e-08    1.219058e-09    2.077132e-08   -2.823270e+00
    2.500245e+00    1.064484e+01    3.801892e+00    6.861719e+07    2.204802e-08    1.178738e-09    2.076693e-08   -2.818270e+00
    2.524856e+00    1.116568e+01    3.754429e+00    6.853003e+07    2.201505e-08    1.139510e-09    2.076209e-08   -2.813270e+00
    2.549625e+00    1.171844e+01    3.707101e+00    6.843066e+07    2.198265e-08    1.101366e-09    2.075682e-08   -2.808270e+00
    2.574550e+00    1.230486e+01    3.659914e+00    6.831899e+07    2.195082e-08    1.064294e-09    2.075113e-08   -2.803270e+00
    2.599625e+00    1.292677e+01    3.612877e+00    6.819496e+07    2.191956e-08    1.028283e-09    2.074500e-08   -2.798270e+00
    2.624852e+00    1.358604e+01    3.565995e+00    6.805861e+07    2.188884e-08    9.933195e-10    2.073847e-08   -2.793270e+00
    2.650228e+00    1.428456e+01    3.519277e+00    6.790992e+07    2.185866e-08    9.593890e-10    2.073151e-08   -2.788270e+00
    2.675753e+00    1.502428e+01    3.472729e+00    6.774899e+07    2.182902e-08    9.264755e-10    2.072415e-08   -2.783270e+00
    2.701429e+00    1.580715e+01    3.426357e+00    6.757588e+07    2.179991e-08    8.945630e-10    2.071638e-08   -2.778270e+00
    2.727258e+00    1.663520e+01    3.380170e+00    6.739078e+07    2.177130e-08    8.636340e-10    2.070822e-08   -2.773270e+00
    2.753242e+00    1.751039e+01    3.334174e+00    6.719380e+07    2.174320e-08    8.336705e-10    2.069966e-08   -2.768270e+00
    2.779385e+00    1.843476e+01    3.288375e+00    6.698517e+07    2.171559e-08    8.046530e-10    2.069071e-08   -2.763270e+00
    2.805695e+00    1.941035e+01    3.242779e+00    6.676510e+07    2.168845e-08    7.765625e-10    2.068138e-08   -2.758270e+00
    2.832175e+00    2.043918e+01    3.197394e+00    6.653381e+07    2.166178e-08    7.493795e-10    2.067167e-08   -2.753270e+00
    2.858834e+00    2.152328e+01    3.152226e+00    6.629159e+07    2.163555e-08    7.230830e-10    2.066159e-08   -2.748270e+00
    2.885681e+00    2.266467e+01    3.107279e+00    6.603873e+07    2.160976e-08    6.976530e-10    2.065113e-08   -2.743270e+00
    2.912721e+00    2.386532e+01    3.062561e+00    6.577547e+07    2.158439e-08    6.730680e-10    2.064030e-08   -2.738270e+00
    2.939966e+00    2.512724e+01    3.018077e+00    6.550216e+07    2.155943e-08    6.493070e-10    2.062912e-08   -2.733270e+00
    2.967427e+00    2.645237e+01    2.973832e+00    6.521911e+07    2.153485e-08    6.263485e-10    2.061757e-08   -2.728270e+00
    2.995115e+00    2.784265e+01    2.929833e+00    6.492666e+07    2.151064e-08    6.041720e-10    2.060568e-08   -2.723270e+00
    3.023041e+00    2.929996e+01    2.886083e+00    6.462510e+07    2.148680e-08    5.827550e-10    2.059342e-08   -2.718270e+00
    3.051217e+00    3.082617e+01    2.842587e+00    6.431478e+07    2.146328e-08    5.620775e-10    2.058082e-08   -2.713270e+00
    3.079659e+00    3.242314e+01    2.799351e+00    6.399605e+07    2.144011e-08    5.421175e-10    2.056786e-08   -2.708270e+00
    3.108376e+00    3.409262e+01    2.756378e+00    6.366917e+07    2.141723e-08    5.228545e-10    2.055455e-08   -2.703270e+00
    3.137388e+00    3.583641e+01    2.713673e+00    6.333455e+07    2.139465e-08    5.042675e-10    2.054091e-08   -2.698270e+00
    3.166705e+00    3.765621e+01    2.671241e+00    6.299247e+07    2.137234e-08    4.863359e-10    2.052691e-08   -2.693270e+00
    3.196341e+00    3.955372e+01    2.629084e+00    6.264321e+07    2.135029e-08    4.690394e-10    2.051258e-08   -2.688270e+00
    3.226314e+00    4.153057e+01    2.587208e+00    6.228711e+07    2.132848e-08    4.523581e-10    2.049790e-08   -2.683270e+00
    3.256641e+00    4.358842e+01    2.545614e+00    6.192448e+07    2.130689e-08    4.362724e-10    2.048288e-08   -2.678270e+00
    3.287333e+00    4.572880e+01    2.504307e+00    6.155553e+07    2.128552e-08    4.207630e-10    2.046751e-08   -2.673270e+00
    3.318412e+00    4.795335e+01    2.463290e+00    6.118067e+07    2.126433e-08    4.058109e-10    2.045181e-08   -2.668270e+00
    3.349888e+00    5.026352e+01    2.422566e+00    6.080001e+07    2.124332e-08    3.913976e-10    2.043574e-08   -2.663270e+00
    3.381784e+00    5.266088e+01    2.382138e+00    6.041392e+07    2.122247e-08    3.775050e-10    2.041934e-08   -2.658270e+00
    3.414115e+00    5.514692e+01    2.342008e+00    6.002264e+07    2.120174e-08    3.641155e-10    2.040259e-08   -2.653270e+00
    3.446897e+00    5.772307e+01    2.302179e+00    5.962633e+07    2.118115e-08    3.512117e-10    2.038547e-08   -2.648270e+00
    3.480151e+00    6.039087e+01    2.262655e+00    5.922529e+07    2.116066e-08    3.387767e-10    2.036802e-08   -2.643270e+00
    3.513892e+00    6.315171e+01    2.223437e+00    5.881970e+07    2.114027e-08    3.267943e-10    2.035019e-08   -2.638270e+00
    3.548140e+00    6.600709e+01    2.184527e+00    5.840977e+07    2.111994e-08    3.152484e-10    2.033201e-08   -2.633270e+00
    3.582912e+00    6.895848e+01    2.145927e+00    5.799569e+07    2.109967e-08    3.041237e-10    2.031345e-08   -2.628270e+00
    3.618233e+00    7.200735e+01    2.107641e+00    5.757768e+07    2.107944e-08    2.934050e-10    2.029453e-08   -2.623270e+00
    3.654117e+00    7.515515e+01    2.069669e+00    5.715587e+07    2.105923e-08    2.830777e-10    2.027522e-08   -2.618270e+00
    3.690584e+00    7.840334e+01    2.032013e+00    5.673042e+07    2.103903e-08    2.731276e-10    2.025553e-08   -2.613270e+00
    3.727658e+00    8.175356e+01    1.994676e+00    5.630155e+07    2.101882e-08    2.635412e-10    2.023545e-08   -2.608270e+00
    3.765357e+00    8.520727e+01    1.957659e+00    5.586934e+07    2.099858e-08    2.543049e-10    2.021498e-08   -2.603270e+00
    3.803705e+00    8.876614e+01    1.920964e+00    5.543398e+07    2.097829e-08    2.454061e-10    2.019410e-08   -2.598270e+00
    3.842723e+00    9.243172e+01    1.884592e+00    5.499560e+07    2.095794e-08    2.368322e-10    2.017280e-08   -2.593270e+00
    3.882436e+00    9.620572e+01    1.848545e+00    5.455432e+07    2.093751e-08    2.285712e-10    2.015109e-08   -2.588270e+00
    3.922861e+00    1.000897e+02    1.812823e+00    5.411022e+07    2.091699e-08    2.206116e-10    2.012895e-08   -2.583270e+00
    3.964028e+00    1.040856e+02    1.777431e+00    5.366349e+07    2.089636e-08    2.129420e-10    2.010637e-08   -2.578270e+00
    4.005957e+00    1.081952e+02    1.742367e+00    5.321413e+07    2.087560e-08    2.055517e-10    2.008334e-08   -2.573270e+00
    4.048679e+00    1.124204e+02    1.707632e+00    5.276235e+07    2.085469e-08    1.984303e-10    2.005985e-08   -2.568270e+00
    4.092214e+00    1.167631e+02    1.673230e+00    5.230815e+07    2.083362e-08    1.915676e-10    2.003590e-08   -2.563270e+00
    4.136593e+00    1.212254e+02    1.639161e+00    5.185170e+07    2.081236e-08    1.849539e-10    2.001146e-08   -2.558270e+00
    4.181840e+00    1.258092e+02    1.605425e+00    5.139300e+07    2.079092e-08    1.785799e-10    1.998652e-08   -2.553270e+00
    4.227986e+00    1.305170e+02    1.572025e+00    5.093220e+07    2.076925e-08    1.724365e-10    1.996109e-08   -2.548270e+00
    4.275061e+00    1.353508e+02    1.538961e+00    5.046931e+07    2.074735e-08    1.665150e-10    1.993513e-08   -2.543270e+00
    4.323091e+00    1.403130e+02    1.506234e+00    5.000441e+07    2.072519e-08    1.608071e-10    1.990865e-08   -2.538270e+00
    4.372112e+00    1.454062e+02    1.473845e+00    4.953759e+07    2.070277e-08    1.553046e-10    1.988161e-08   -2.533270e+00
    4.422155e+00    1.506329e+02    1.441796e+00    4.906890e+07    2.068005e-08    1.499999e-10    1.985401e-08   -2.528270e+00
    4.473252e+00    1.559956e+02    1.410087e+00    4.859835e+07    2.065703e-08    1.448855e-10    1.982585e-08   -2.523270e+00
    4.525438e+00    1.614973e+02    1.378720e+00    4.812601e+07    2.063369e-08    1.399541e-10    1.979708e-08   -2.518270e+00
    4.578755e+00    1.671409e+02    1.347694e+00    4.765197e+07    2.061000e-08    1.351990e-10    1.976770e-08   -2.513270e+00
    4.633227e+00    1.729291e+02    1.317012e+00    4.717617e+07    2.058594e-08    1.306134e-10    1.973770e-08   -2.508270e+00
    4.688902e+00    1.788654e+02    1.286674e+00    4.669874e+07    2.056150e-08    1.261908e-10    1.970705e-08   -2.503270e+00
    4.745821e+00    1.849529e+02    1.256682e+00    4.621968e+07    2.053665e-08    1.219253e-10    1.967573e-08   -2.498270e+00
    4.804017e+00    1.911948e+02    1.227035e+00    4.573898e+07    2.051139e-08    1.178109e-10    1.964374e-08   -2.493270e+00
    4.863538e+00    1.975949e+02    1.197735e+00    4.525672e+07    2.048567e-08    1.138418e-10    1.961104e-08   -2.488270e+00
    4.924426e+00    2.041567e+02    1.168783e+00    4.477287e+07    2.045949e-08    1.100127e-10    1.957762e-08   -2.483270e+00
    4.986728e+00    2.108840e+02    1.140180e+00    4.428746e+07    2.043282e-08    1.063182e-10    1.954345e-08   -2.478270e+00
    5.050487e+00    2.177807e+02    1.111926e+00    4.380048e+07    2.040564e-08    1.027534e-10    1.950852e-08   -2.473270e+00
    5.115759e+00    2.248510e+02    1.084022e+00    4.331200e+07    2.037793e-08    9.931335e-11    1.947279e-08   -2.468270e+00
    5.182592e+00    2.320992e+02    1.056470e+00    4.282199e+07    2.034967e-08    9.599345e-11    1.943625e-08   -2.463270e+00
    5.251035e+00    2.395295e+02    1.029270e+00    4.233044e+07    2.032083e-08    9.278920e-11    1.939888e-08   -2.458270e+00
    5.321137e+00    2.471464e+02    1.002423e+00    4.183732e+07    2.029139e-08    8.969630e-11    1.936064e-08   -2.453270e+00
    5.392972e+00    2.549548e+02    9.759295e-01    4.134271e+07    2.026132e-08    8.671065e-11    1.932151e-08   -2.448270e+00
    5.466579e+00    2.629594e+02    9.497915e-01    4.084652e+07    2.023061e-08    8.382820e-11    1.928146e-08   -2.443270e+00
    5.542024e+00    2.711651e+02    9.240090e-01    4.034875e+07    2.019922e-08    8.104515e-11    1.924048e-08   -2.438270e+00
    5.619375e+00    2.795774e+02    8.985830e-01    3.984942e+07    2.016714e-08    7.835790e-11    1.919852e-08   -2.433270e+00
    5.698688e+00    2.882012e+02    8.735145e-01    3.934847e+07    2.013434e-08    7.576285e-11    1.915556e-08   -2.428270e+00
    5.780032e+00    2.970421e+02    8.488045e-01    3.884591e+07    2.010078e-08    7.325665e-11    1.911158e-08   -2.423270e+00
    5.863478e+00    3.061058e+02    8.244535e-01    3.834168e+07    2.006644e-08    7.083605e-11    1.906655e-08   -2.418270e+00
    5.949090e+00    3.153977e+02    8.004630e-01    3.783576e+07    2.003132e-08    6.849790e-11    1.902042e-08   -2.413270e+00
    6.036945e+00    3.249241e+02    7.768335e-01    3.732814e+07    1.999535e-08    6.623920e-11    1.897317e-08   -2.408270e+00
    6.127113e+00    3.346907e+02    7.535665e-01    3.681875e+07    1.995853e-08    6.405710e-11    1.892476e-08   -2.403270e+00
    6.219677e+00    3.447035e+02    7.306620e-01    3.630758e+07    1.992082e-08    6.194880e-11    1.887517e-08   -2.398270e+00
    6.314707e+00    3.549687e+02    7.081220e-01    3.579456e+07    1.988220e-08    5.991160e-11    1.882436e-08   -2.393270e+00
    6.412293e+00    3.654926e+02    6.859465e-01    3.527967e+07    1.984263e-08    5.794300e-11    1.877229e-08   -2.388270e+00
    6.512508e+00    3.762816e+02    6.641375e-01    3.476285e+07    1.980209e-08    5.604045e-11    1.871893e-08   -2.383270e+00
    6.615444e+00    3.873418e+02    6.426950e-01    3.424404e+07    1.976055e-08    5.420165e-11    1.866424e-08   -2.378270e+00
    6.721185e+00    3.986794e+02    6.216205e-01    3.372323e+07    1.971797e-08    5.242435e-11    1.860819e-08   -2.373270e+00
    6.829816e+00    4.103011e+02    6.009150e-01    3.320032e+07    1.967433e-08    5.070625e-11    1.855074e-08   -2.368270e+00
    6.941428e+00    4.222128e+02    5.805795e-01    3.267529e+07    1.962959e-08    4.904537e-11    1.849186e-08   -2.363270e+00
    7.056111e+00    4.344208e+02    5.606150e-01    3.214808e+07    1.958372e-08    4.743960e-11    1.843149e-08   -2.358270e+00
    7.173962e+00    4.469312e+02    5.410220e-01    3.161863e+07    1.953670e-08    4.588704e-11    1.836961e-08   -2.353270e+00
    7.295060e+00    4.597492e+02    5.218025e-01    3.108689e+07    1.948848e-08    4.438579e-11    1.830617e-08   -2.348270e+00
    7.419511e+00    4.728808e+02    5.029565e-01    3.055282e+07    1.943903e-08    4.293407e-11    1.824113e-08   -2.343270e+00
    7.547397e+00    4.863311e+02    4.844858e-01    3.001636e+07    1.938833e-08    4.153014e-11    1.817446e-08   -2.338270e+00
    7.678814e+00    5.001050e+02    4.663910e-01    2.947747e+07    1.933633e-08    4.017233e-11    1.810610e-08   -2.333270e+00
    7.813855e+00    5.142064e+02    4.486729e-01    2.893611e+07    1.928302e-08    3.885906e-11    1.803603e-08   -2.328270e+00
    7.952603e+00    5.286390e+02    4.313326e-01    2.839224e+07    1.922835e-08    3.758876e-11    1.796420e-08   -2.323270e+00
    8.095149e+00    5.434062e+02    4.143710e-01    2.784585e+07    1.917229e-08    3.635997e-11    1.789056e-08   -2.318270e+00
    8.241576e+00    5.585102e+02    3.977889e-01    2.729690e+07    1.911480e-08    3.517125e-11    1.781507e-08   -2.313270e+00
    8.391961e+00    5.739520e+02    3.815872e-01    2.674539e+07    1.905586e-08    3.402123e-11    1.773770e-08   -2.308270e+00
    8.546379e+00    5.897323e+02    3.657665e-01    2.619131e+07    1.899543e-08    3.290859e-11    1.765840e-08   -2.303270e+00
    8.704897e+00    6.058497e+02    3.503276e-01    2.563468e+07    1.893347e-08    3.183206e-11    1.757712e-08   -2.298270e+00
    8.867576e+00    6.223019e+02    3.352711e-01    2.507553e+07    1.886996e-08    3.079041e-11    1.749384e-08   -2.293270e+00
    9.034470e+00    6.390855e+02    3.205974e-01    2.451391e+07    1.880486e-08    2.978246e-11    1.740850e-08   -2.288270e+00
    9.205617e+00    6.561947e+02    3.063069e-01    2.394987e+07    1.873815e-08    2.880708e-11    1.732106e-08   -2.283270e+00
    9.381052e+00    6.736224e+02    2.923999e-01    2.338351e+07    1.866978e-08    2.786317e-11    1.723148e-08   -2.278270e+00
    9.560786e+00    6.913589e+02    2.788767e-01    2.281494e+07    1.859973e-08    2.694967e-11    1.713974e-08   -2.273270e+00
    9.744821e+00    7.093926e+02    2.657371e-01    2.224428e+07    1.852798e-08    2.606559e-11    1.704577e-08   -2.268270e+00
    9.933147e+00    7.277093e+02    2.529810e-01    2.167171e+07    1.845448e-08    2.520992e-11    1.694956e-08   -2.263270e+00
    1.012572e+01    7.462924e+02    2.406080e-01    2.109742e+07    1.837921e-08    2.438174e-11    1.685105e-08   -2.258270e+00
    1.032249e+01    7.651217e+02    2.286175e-01    2.052165e+07    1.830215e-08    2.358013e-11    1.675021e-08   -2.253270e+00
    1.052338e+01    7.841745e+02    2.170087e-01    1.994464e+07    1.822327e-08    2.280423e-11    1.664702e-08   -2.248270e+00
    1.072828e+01    8.034245e+02    2.057805e-01    1.936672e+07    1.814255e-08    2.205318e-11    1.654143e-08   -2.243270e+00
    1.093705e+01    8.228421e+02    1.949315e-01    1.878822e+07    1.805995e-08    2.132617e-11    1.643341e-08   -2.238270e+00
    1.114953e+01    8.423941e+02    1.844601e-01    1.820953e+07    1.797547e-08    2.062242e-11    1.632294e-08   -2.233270e+00
    1.136552e+01    8.620435e+02    1.743643e-01    1.763108e+07    1.788907e-08    1.994118e-11    1.620999e-08   -2.228270e+00
    1.158479e+01    8.817491e+02    1.646419e-01    1.705335e+07    1.780076e-08    1.928170e-11    1.609453e-08   -2.223270e+00
    1.180706e+01    9.014659e+02    1.552899e-01    1.647686e+07    1.771050e-08    1.864330e-11    1.597654e-08   -2.218270e+00
    1.203204e+01    9.211459e+02    1.463056e-01    1.590218e+07    1.761829e-08    1.802528e-11    1.585601e-08   -2.213270e+00
    1.225937e+01    9.407360e+02    1.376852e-01    1.532991e+07    1.752410e-08    1.742700e-11    1.573290e-08   -2.208270e+00
    1.248866e+01    9.601800e+02    1.294249e-01    1.476072e+07    1.742794e-08    1.684782e-11    1.560722e-08   -2.203270e+00
    1.271948e+01    9.794184e+02    1.215202e-01    1.419530e+07    1.732980e-08    1.628713e-11    1.547894e-08   -2.198270e+00
    1.295137e+01    9.983881e+02    1.139664e-01    1.363438e+07    1.722968e-08    1.574435e-11    1.534806e-08   -2.193270e+00
    1.318379e+01    1.017024e+03    1.067581e-01    1.307874e+07    1.712756e-08    1.521891e-11    1.521458e-08   -2.188270e+00
    1.341622e+01    1.035258e+03    9.988960e-02    1.252917e+07    1.702347e-08    1.471024e-11    1.507849e-08   -2.183270e+00
    1.364804e+01    1.053021e+03    9.335455e-02    1.198650e+07    1.691740e-08    1.421784e-11    1.493980e-08   -2.178270e+00
    1.387866e+01    1.070242e+03    8.714620e-02    1.145156e+07    1.680937e-08    1.374118e-11    1.479851e-08   -2.173270e+00
    1.410740e+01    1.086851e+03    8.125735e-02    1.092521e+07    1.669937e-08    1.327976e-11    1.465466e-08   -2.168270e+00
    1.433360e+01    1.102779e+03    7.568030e-02    1.040828e+07    1.658744e-08    1.283311e-11    1.450823e-08   -2.163270e+00
    1.455659e+01    1.117959e+03    7.040685e-02    9.901628e+06    1.647359e-08    1.240076e-11    1.435926e-08   -2.158270e+00
    1.477565e+01    1.132325e+03    6.542850e-02    9.406053e+06    1.635785e-08    1.198228e-11    1.420777e-08   -2.153270e+00
    1.499007e+01    1.145816e+03    6.073630e-02    8.922357e+06    1.624025e-08    1.157722e-11    1.405380e-08   -2.148270e+00
    1.519918e+01    1.158379e+03    5.632095e-02    8.451298e+06    1.612080e-08    1.118516e-11    1.389738e-08   -2.143270e+00
    1.540228e+01    1.169960e+03    5.217275e-02    7.993570e+06    1.599957e-08    1.080572e-11    1.373856e-08   -2.138270e+00
    1.559877e+01    1.180521e+03    4.828179e-02    7.549827e+06    1.587658e-08    1.043848e-11    1.357737e-08   -2.133270e+00
    1.578800e+01    1.190025e+03    4.463795e-02    7.120646e+06    1.575187e-08    1.008308e-11    1.341387e-08   -2.128270e+00
    1.596944e+01    1.198449e+03    4.123088e-02    6.706539e+06    1.562550e-08    9.739150e-12    1.324812e-08   -2.123270e+00
    1.614258e+01    1.205776e+03    3.805011e-02    6.307927e+06    1.549753e-08    9.406330e-12    1.308018e-08   -2.118270e+00
    1.630703e+01    1.212003e+03    3.508508e-02    5.925161e+06    1.536800e-08    9.084280e-12    1.291013e-08   -2.113270e+00
    1.646242e+01    1.217134e+03    3.232525e-02    5.558490e+06    1.523699e-08    8.772670e-12    1.273802e-08   -2.108270e+00
    1.660852e+01    1.221187e+03    2.976007e-02    5.208073e+06    1.510455e-08    8.471175e-12    1.256396e-08   -2.103270e+00
    1.674516e+01    1.224188e+03    2.737908e-02    4.873987e+06    1.497076e-08    8.179485e-12    1.238800e-08   -2.098270e+00
