# sky130 pfet_01v8 gm/ID Processed Lookup Table
# Corner: sf
# Temperature: 25C
# W = 2.0 um
# L = 5.58 um (5580 nm)
# Columns: gm/id [1/V]  gm/gds [V/V]  id/W [A/m]  ft [Hz]  Cgg/W [F/m]  Cgd/W [F/m]  Cgs/W [F/m]  Vov [V]
#         gm/id          gm/gds            id/W              ft           Cgg/W           Cgd/W           Cgs/W             Vov
    2.366234e+00    8.501340e+00    2.913419e+00    3.508701e+07    3.127047e-08    2.208679e-09    2.920174e-08   -2.853771e+00
    2.389597e+00    8.898209e+00    2.878985e+00    3.507633e+07    3.121549e-08    2.139000e-09    2.919977e-08   -2.848771e+00
    2.413148e+00    9.321086e+00    2.844625e+00    3.506008e+07    3.116135e-08    2.070916e-09    2.919715e-08   -2.843771e+00
    2.436875e+00    9.771746e+00    2.810342e+00    3.503805e+07    3.110803e-08    2.004432e-09    2.919386e-08   -2.838771e+00
    2.460773e+00    1.025210e+01    2.776142e+00    3.501016e+07    3.105556e-08    1.939553e-09    2.918994e-08   -2.833771e+00
    2.484837e+00    1.076416e+01    2.742028e+00    3.497626e+07    3.100393e-08    1.876280e-09    2.918538e-08   -2.828771e+00
    2.509062e+00    1.131002e+01    2.708008e+00    3.493629e+07    3.095314e-08    1.814611e-09    2.918016e-08   -2.823771e+00
    2.533441e+00    1.189191e+01    2.674085e+00    3.489012e+07    3.090320e-08    1.754540e-09    2.917433e-08   -2.818771e+00
    2.557970e+00    1.251216e+01    2.640264e+00    3.483773e+07    3.085411e-08    1.696062e-09    2.916786e-08   -2.813771e+00
    2.582647e+00    1.317321e+01    2.606549e+00    3.477905e+07    3.080586e-08    1.639166e-09    2.916076e-08   -2.808771e+00
    2.607465e+00    1.387758e+01    2.572947e+00    3.471404e+07    3.075844e-08    1.583840e-09    2.915306e-08   -2.803771e+00
    2.632428e+00    1.462796e+01    2.539462e+00    3.464275e+07    3.071185e-08    1.530071e-09    2.914474e-08   -2.798771e+00
    2.657528e+00    1.542705e+01    2.506099e+00    3.456512e+07    3.066608e-08    1.477841e-09    2.913582e-08   -2.793771e+00
    2.682768e+00    1.627773e+01    2.472863e+00    3.448121e+07    3.062112e-08    1.427133e-09    2.912631e-08   -2.788771e+00
    2.708150e+00    1.718295e+01    2.439760e+00    3.439107e+07    3.057695e-08    1.377926e-09    2.911620e-08   -2.783771e+00
    2.733673e+00    1.814575e+01    2.406793e+00    3.429476e+07    3.053358e-08    1.330200e-09    2.910552e-08   -2.778771e+00
    2.759343e+00    1.916925e+01    2.373968e+00    3.419238e+07    3.049097e-08    1.283931e-09    2.909426e-08   -2.773771e+00
    2.785159e+00    2.025665e+01    2.341289e+00    3.408399e+07    3.044911e-08    1.239093e-09    2.908243e-08   -2.768771e+00
    2.811132e+00    2.141129e+01    2.308760e+00    3.396976e+07    3.040799e-08    1.195662e-09    2.907004e-08   -2.763771e+00
    2.837263e+00    2.263648e+01    2.276387e+00    3.384976e+07    3.036759e-08    1.153611e-09    2.905710e-08   -2.758771e+00
    2.863561e+00    2.393568e+01    2.244175e+00    3.372414e+07    3.032790e-08    1.112911e-09    2.904362e-08   -2.753771e+00
    2.890032e+00    2.531237e+01    2.212126e+00    3.359305e+07    3.028888e-08    1.073534e-09    2.902959e-08   -2.748771e+00
    2.916688e+00    2.677010e+01    2.180245e+00    3.345666e+07    3.025053e-08    1.035451e-09    2.901502e-08   -2.743771e+00
    2.943539e+00    2.831249e+01    2.148536e+00    3.331512e+07    3.021282e-08    9.986310e-10    2.899993e-08   -2.738771e+00
    2.970591e+00    2.994313e+01    2.117003e+00    3.316858e+07    3.017572e-08    9.630450e-10    2.898432e-08   -2.733771e+00
    2.997857e+00    3.166571e+01    2.085650e+00    3.301721e+07    3.013922e-08    9.286610e-10    2.896818e-08   -2.728771e+00
    3.025350e+00    3.348395e+01    2.054480e+00    3.286121e+07    3.010329e-08    8.954490e-10    2.895153e-08   -2.723771e+00
    3.053083e+00    3.540157e+01    2.023496e+00    3.270074e+07    3.006792e-08    8.633780e-10    2.893437e-08   -2.718771e+00
    3.081069e+00    3.742233e+01    1.992702e+00    3.253598e+07    3.003308e-08    8.324160e-10    2.891671e-08   -2.713771e+00
    3.109319e+00    3.954996e+01    1.962100e+00    3.236709e+07    2.999873e-08    8.025325e-10    2.889855e-08   -2.708771e+00
    3.137846e+00    4.178822e+01    1.931695e+00    3.219422e+07    2.996487e-08    7.736970e-10    2.887988e-08   -2.703771e+00
    3.166671e+00    4.414097e+01    1.901488e+00    3.201760e+07    2.993145e-08    7.458780e-10    2.886071e-08   -2.698771e+00
    3.195802e+00    4.661190e+01    1.871482e+00    3.183733e+07    2.989847e-08    7.190450e-10    2.884106e-08   -2.693771e+00
    3.225257e+00    4.920482e+01    1.841680e+00    3.165359e+07    2.986590e-08    6.931685e-10    2.882090e-08   -2.688771e+00
    3.255054e+00    5.192355e+01    1.812084e+00    3.146658e+07    2.983369e-08    6.682190e-10    2.880025e-08   -2.683771e+00
    3.285204e+00    5.477176e+01    1.782696e+00    3.127638e+07    2.980185e-08    6.441660e-10    2.877911e-08   -2.678771e+00
    3.315727e+00    5.775334e+01    1.753519e+00    3.108318e+07    2.977035e-08    6.209815e-10    2.875748e-08   -2.673771e+00
    3.346638e+00    6.087194e+01    1.724555e+00    3.088713e+07    2.973913e-08    5.986370e-10    2.873534e-08   -2.668771e+00
    3.377953e+00    6.413135e+01    1.695805e+00    3.068833e+07    2.970821e-08    5.771045e-10    2.871272e-08   -2.663771e+00
    3.409694e+00    6.753534e+01    1.667272e+00    3.048695e+07    2.967754e-08    5.563570e-10    2.868959e-08   -2.658771e+00
    3.441870e+00    7.108756e+01    1.638957e+00    3.028307e+07    2.964709e-08    5.363680e-10    2.866596e-08   -2.653771e+00
    3.474504e+00    7.479177e+01    1.610862e+00    3.007684e+07    2.961686e-08    5.171115e-10    2.864182e-08   -2.648771e+00
    3.507613e+00    7.865168e+01    1.582988e+00    2.986837e+07    2.958680e-08    4.985614e-10    2.861718e-08   -2.643771e+00
    3.541213e+00    8.267091e+01    1.555337e+00    2.965773e+07    2.955690e-08    4.806937e-10    2.859202e-08   -2.638771e+00
    3.575327e+00    8.685334e+01    1.527910e+00    2.944507e+07    2.952713e-08    4.634841e-10    2.856634e-08   -2.633771e+00
    3.609972e+00    9.120258e+01    1.500710e+00    2.923049e+07    2.949746e-08    4.469092e-10    2.854013e-08   -2.628771e+00
    3.645169e+00    9.572235e+01    1.473736e+00    2.901406e+07    2.946787e-08    4.309462e-10    2.851339e-08   -2.623771e+00
    3.680931e+00    1.004163e+02    1.446990e+00    2.879585e+07    2.943835e-08    4.155729e-10    2.848611e-08   -2.618771e+00
    3.717285e+00    1.052881e+02    1.420474e+00    2.857598e+07    2.940884e-08    4.007680e-10    2.845829e-08   -2.613771e+00
    3.754252e+00    1.103418e+02    1.394187e+00    2.835453e+07    2.937935e-08    3.865106e-10    2.842990e-08   -2.608771e+00
    3.791848e+00    1.155808e+02    1.368133e+00    2.813154e+07    2.934984e-08    3.727806e-10    2.840094e-08   -2.603771e+00
    3.830095e+00    1.210089e+02    1.342310e+00    2.790708e+07    2.932028e-08    3.595585e-10    2.837141e-08   -2.598771e+00
    3.869020e+00    1.266301e+02    1.316721e+00    2.768126e+07    2.929066e-08    3.468255e-10    2.834129e-08   -2.593771e+00
    3.908644e+00    1.324481e+02    1.291366e+00    2.745411e+07    2.926094e-08    3.345632e-10    2.831057e-08   -2.588771e+00
    3.948988e+00    1.384668e+02    1.266246e+00    2.722569e+07    2.923110e-08    3.227540e-10    2.827924e-08   -2.583771e+00
    3.990072e+00    1.446899e+02    1.241363e+00    2.699604e+07    2.920112e-08    3.113811e-10    2.824728e-08   -2.578771e+00
    4.031930e+00    1.511217e+02    1.216715e+00    2.676523e+07    2.917097e-08    3.004278e-10    2.821468e-08   -2.573771e+00
    4.074580e+00    1.577660e+02    1.192306e+00    2.653332e+07    2.914064e-08    2.898782e-10    2.818142e-08   -2.568771e+00
    4.118052e+00    1.646269e+02    1.168134e+00    2.630034e+07    2.911008e-08    2.797173e-10    2.814751e-08   -2.563771e+00
    4.162370e+00    1.717085e+02    1.144201e+00    2.606633e+07    2.907927e-08    2.699302e-10    2.811290e-08   -2.558771e+00
    4.207564e+00    1.790150e+02    1.120509e+00    2.583133e+07    2.904820e-08    2.605025e-10    2.807759e-08   -2.553771e+00
    4.253661e+00    1.865508e+02    1.097055e+00    2.559539e+07    2.901683e-08    2.514209e-10    2.804156e-08   -2.548771e+00
    4.300690e+00    1.943200e+02    1.073844e+00    2.535852e+07    2.898514e-08    2.426719e-10    2.800479e-08   -2.543771e+00
    4.348683e+00    2.023273e+02    1.050873e+00    2.512077e+07    2.895311e-08    2.342428e-10    2.796726e-08   -2.538771e+00
    4.397669e+00    2.105771e+02    1.028145e+00    2.488217e+07    2.892069e-08    2.261215e-10    2.792895e-08   -2.533771e+00
    4.447681e+00    2.190740e+02    1.005659e+00    2.464273e+07    2.888788e-08    2.182962e-10    2.788984e-08   -2.528771e+00
    4.498754e+00    2.278228e+02    9.834165e-01    2.440249e+07    2.885464e-08    2.107556e-10    2.784991e-08   -2.523771e+00
    4.550922e+00    2.368284e+02    9.614175e-01    2.416147e+07    2.882094e-08    2.034888e-10    2.780913e-08   -2.518771e+00
    4.604220e+00    2.460957e+02    9.396630e-01    2.391968e+07    2.878676e-08    1.964854e-10    2.776749e-08   -2.513771e+00
    4.658685e+00    2.556298e+02    9.181535e-01    2.367716e+07    2.875208e-08    1.897351e-10    2.772496e-08   -2.508771e+00
    4.714354e+00    2.654358e+02    8.968895e-01    2.343389e+07    2.871685e-08    1.832285e-10    2.768150e-08   -2.503771e+00
    4.771270e+00    2.755192e+02    8.758710e-01    2.318992e+07    2.868105e-08    1.769562e-10    2.763710e-08   -2.498771e+00
    4.829470e+00    2.858855e+02    8.550995e-01    2.294524e+07    2.864466e-08    1.709092e-10    2.759173e-08   -2.493771e+00
    4.889000e+00    2.965401e+02    8.345745e-01    2.269987e+07    2.860764e-08    1.650790e-10    2.754536e-08   -2.488771e+00
    4.949903e+00    3.074889e+02    8.142970e-01    2.245381e+07    2.856996e-08    1.594572e-10    2.749796e-08   -2.483771e+00
    5.012220e+00    3.187378e+02    7.942680e-01    2.220707e+07    2.853159e-08    1.540360e-10    2.744950e-08   -2.478771e+00
    5.076005e+00    3.302928e+02    7.744870e-01    2.195966e+07    2.849251e-08    1.488078e-10    2.739995e-08   -2.473771e+00
    5.141304e+00    3.421602e+02    7.549550e-01    2.171158e+07    2.845267e-08    1.437653e-10    2.734928e-08   -2.468771e+00
    5.208167e+00    3.543462e+02    7.356725e-01    2.146283e+07    2.841205e-08    1.389013e-10    2.729745e-08   -2.463771e+00
    5.276646e+00    3.668573e+02    7.166400e-01    2.121340e+07    2.837061e-08    1.342093e-10    2.724443e-08   -2.458771e+00
    5.346795e+00    3.797003e+02    6.978580e-01    2.096330e+07    2.832833e-08    1.296825e-10    2.719018e-08   -2.453771e+00
    5.418666e+00    3.928818e+02    6.793275e-01    2.071252e+07    2.828517e-08    1.253150e-10    2.713467e-08   -2.448771e+00
    5.492327e+00    4.064086e+02    6.610480e-01    2.046106e+07    2.824108e-08    1.211006e-10    2.707786e-08   -2.443771e+00
    5.567830e+00    4.202879e+02    6.430205e-01    2.020890e+07    2.819605e-08    1.170336e-10    2.701972e-08   -2.438771e+00
    5.645240e+00    4.345268e+02    6.252455e-01    1.995604e+07    2.815002e-08    1.131085e-10    2.696020e-08   -2.433771e+00
    5.724616e+00    4.491324e+02    6.077240e-01    1.970247e+07    2.810297e-08    1.093201e-10    2.689926e-08   -2.428771e+00
    5.806027e+00    4.641124e+02    5.904560e-01    1.944816e+07    2.805487e-08    1.056631e-10    2.683686e-08   -2.423771e+00
    5.889544e+00    4.794737e+02    5.734420e-01    1.919312e+07    2.800565e-08    1.021328e-10    2.677296e-08   -2.418771e+00
    5.975230e+00    4.952245e+02    5.566830e-01    1.893731e+07    2.795531e-08    9.872445e-11    2.670752e-08   -2.413771e+00
    6.063160e+00    5.113716e+02    5.401795e-01    1.868073e+07    2.790380e-08    9.543350e-11    2.664048e-08   -2.408771e+00
    6.153411e+00    5.279227e+02    5.239315e-01    1.842336e+07    2.785106e-08    9.225565e-11    2.657181e-08   -2.403771e+00
    6.246057e+00    5.448858e+02    5.079400e-01    1.816517e+07    2.779707e-08    8.918680e-11    2.650146e-08   -2.398771e+00
    6.341179e+00    5.622677e+02    4.922053e-01    1.790615e+07    2.774178e-08    8.622285e-11    2.642939e-08   -2.393771e+00
    6.438851e+00    5.800757e+02    4.767285e-01    1.764626e+07    2.768516e-08    8.336005e-11    2.635552e-08   -2.388771e+00
    6.539160e+00    5.983174e+02    4.615097e-01    1.738548e+07    2.762715e-08    8.059465e-11    2.627984e-08   -2.383771e+00
    6.642189e+00    6.169998e+02    4.465498e-01    1.712380e+07    2.756773e-08    7.792315e-11    2.620228e-08   -2.378771e+00
    6.748024e+00    6.361294e+02    4.318493e-01    1.686119e+07    2.750684e-08    7.534210e-11    2.612277e-08   -2.373771e+00
    6.856750e+00    6.557126e+02    4.174087e-01    1.659761e+07    2.744445e-08    7.284830e-11    2.604130e-08   -2.368771e+00
    6.968458e+00    6.757556e+02    4.032288e-01    1.633304e+07    2.738049e-08    7.043860e-11    2.595779e-08   -2.363771e+00
    7.083236e+00    6.962636e+02    3.893101e-01    1.606745e+07    2.731495e-08    6.810990e-11    2.587218e-08   -2.358771e+00
    7.201177e+00    7.172418e+02    3.756532e-01    1.580083e+07    2.724777e-08    6.585940e-11    2.578443e-08   -2.353771e+00
    7.322369e+00    7.386943e+02    3.622588e-01    1.553313e+07    2.717889e-08    6.368420e-11    2.569448e-08   -2.348771e+00
    7.446904e+00    7.606245e+02    3.491275e-01    1.526434e+07    2.710829e-08    6.158175e-11    2.560226e-08   -2.343771e+00
    7.574876e+00    7.830349e+02    3.362599e-01    1.499442e+07    2.703590e-08    5.954935e-11    2.550775e-08   -2.338771e+00
    7.706372e+00    8.059270e+02    3.236565e-01    1.472337e+07    2.696169e-08    5.758460e-11    2.541085e-08   -2.333771e+00
    7.841486e+00    8.293011e+02    3.113179e-01    1.445116e+07    2.688561e-08    5.568510e-11    2.531153e-08   -2.328771e+00
    7.980300e+00    8.531555e+02    2.992447e-01    1.417776e+07    2.680761e-08    5.384855e-11    2.520972e-08   -2.323771e+00
    8.122903e+00    8.774882e+02    2.874374e-01    1.390317e+07    2.672765e-08    5.207275e-11    2.510536e-08   -2.318771e+00
    8.269375e+00    9.022942e+02    2.758966e-01    1.362738e+07    2.664567e-08    5.035560e-11    2.499840e-08   -2.313771e+00
    8.419793e+00    9.275672e+02    2.646226e-01    1.335038e+07    2.656164e-08    4.869502e-11    2.488878e-08   -2.308771e+00
    8.574232e+00    9.532983e+02    2.536160e-01    1.307217e+07    2.647550e-08    4.708908e-11    2.477643e-08   -2.303771e+00
    8.732756e+00    9.794766e+02    2.428771e-01    1.279276e+07    2.638722e-08    4.553589e-11    2.466131e-08   -2.298771e+00
    8.895421e+00    1.006088e+03    2.324063e-01    1.251217e+07    2.629674e-08    4.403363e-11    2.454335e-08   -2.293771e+00
    9.062282e+00    1.033116e+03    2.222037e-01    1.223041e+07    2.620402e-08    4.258056e-11    2.442249e-08   -2.288771e+00
    9.233376e+00    1.060541e+03    2.122696e-01    1.194752e+07    2.610902e-08    4.117499e-11    2.429868e-08   -2.283771e+00
    9.408731e+00    1.088339e+03    2.026041e-01    1.166355e+07    2.601170e-08    3.981530e-11    2.417187e-08   -2.278771e+00
    9.588359e+00    1.116482e+03    1.932071e-01    1.137854e+07    2.591200e-08    3.849994e-11    2.404198e-08   -2.273771e+00
    9.772263e+00    1.144940e+03    1.840786e-01    1.109258e+07    2.580989e-08    3.722741e-11    2.390899e-08   -2.268771e+00
    9.960421e+00    1.173678e+03    1.752183e-01    1.080573e+07    2.570533e-08    3.599626e-11    2.377282e-08   -2.263771e+00
    1.015280e+01    1.202654e+03    1.666260e-01    1.051811e+07    2.559829e-08    3.480510e-11    2.363343e-08   -2.258771e+00
    1.034933e+01    1.231824e+03    1.583010e-01    1.022982e+07    2.548871e-08    3.365259e-11    2.349077e-08   -2.253771e+00
    1.054994e+01    1.261138e+03    1.502427e-01    9.941004e+06    2.537657e-08    3.253745e-11    2.334480e-08   -2.248771e+00
    1.075451e+01    1.290540e+03    1.424501e-01    9.651809e+06    2.526185e-08    3.145841e-11    2.319547e-08   -2.243771e+00
    1.096292e+01    1.319971e+03    1.349224e-01    9.362412e+06    2.514449e-08    3.041430e-11    2.304272e-08   -2.238771e+00
    1.117498e+01    1.349362e+03    1.276583e-01    9.073002e+06    2.502447e-08    2.940394e-11    2.288654e-08   -2.233771e+00
    1.139052e+01    1.378644e+03    1.206561e-01    8.783800e+06    2.490179e-08    2.842624e-11    2.272687e-08   -2.228771e+00
    1.160928e+01    1.407738e+03    1.139143e-01    8.495039e+06    2.477638e-08    2.748012e-11    2.256368e-08   -2.223771e+00
    1.183099e+01    1.436563e+03    1.074308e-01    8.206983e+06    2.464826e-08    2.656454e-11    2.239695e-08   -2.218771e+00
    1.205535e+01    1.465030e+03    1.012033e-01    7.919915e+06    2.451739e-08    2.567850e-11    2.222665e-08   -2.213771e+00
    1.228201e+01    1.493050e+03    9.522945e-02    7.634141e+06    2.438376e-08    2.482105e-11    2.205275e-08   -2.208771e+00
    1.251057e+01    1.520524e+03    8.950625e-02    7.349981e+06    2.424736e-08    2.399124e-11    2.187523e-08   -2.203771e+00
    1.274062e+01    1.547353e+03    8.403060e-02    7.067790e+06    2.410818e-08    2.318820e-11    2.169408e-08   -2.198771e+00
    1.297167e+01    1.573437e+03    7.879905e-02    6.787930e+06    2.396623e-08    2.241105e-11    2.150931e-08   -2.193771e+00
    1.320323e+01    1.598667e+03    7.380775e-02    6.510784e+06    2.382149e-08    2.165895e-11    2.132088e-08   -2.188771e+00
    1.343474e+01    1.622942e+03    6.905260e-02    6.236746e+06    2.367398e-08    2.093112e-11    2.112883e-08   -2.183771e+00
    1.366561e+01    1.646157e+03    6.452915e-02    5.966224e+06    2.352371e-08    2.022676e-11    2.093313e-08   -2.178771e+00
    1.389524e+01    1.668209e+03    6.023265e-02    5.699631e+06    2.337068e-08    1.954513e-11    2.073382e-08   -2.173771e+00
    1.412298e+01    1.688997e+03    5.615795e-02    5.437389e+06    2.321493e-08    1.888550e-11    2.053089e-08   -2.168771e+00
    1.434817e+01    1.708428e+03    5.229960e-02    5.179911e+06    2.305647e-08    1.824717e-11    2.032440e-08   -2.163771e+00
    1.457013e+01    1.726415e+03    4.865194e-02    4.927615e+06    2.289533e-08    1.762947e-11    2.011437e-08   -2.158771e+00
    1.478816e+01    1.742875e+03    4.520891e-02    4.680898e+06    2.273155e-08    1.703175e-11    1.990082e-08   -2.153771e+00
    1.500158e+01    1.757738e+03    4.196424e-02    4.440152e+06    2.256518e-08    1.645336e-11    1.968382e-08   -2.148771e+00
    1.520974e+01    1.770947e+03    3.891139e-02    4.205749e+06    2.239624e-08    1.589371e-11    1.946340e-08   -2.143771e+00
    1.541193e+01    1.782450e+03    3.604364e-02    3.978026e+06    2.222481e-08    1.535220e-11    1.923964e-08   -2.138771e+00
    1.560757e+01    1.792219e+03    3.335403e-02    3.757307e+06    2.205094e-08    1.482826e-11    1.901259e-08   -2.133771e+00
    1.579604e+01    1.800230e+03    3.083550e-02    3.543866e+06    2.187470e-08    1.432134e-11    1.878235e-08   -2.128771e+00
    1.597682e+01    1.806484e+03    2.848083e-02    3.337956e+06    2.169614e-08    1.383092e-11    1.854897e-08   -2.123771e+00
    1.614943e+01    1.810992e+03    2.628272e-02    3.139781e+06    2.151535e-08    1.335646e-11    1.831257e-08   -2.118771e+00
    1.631347e+01    1.813784e+03    2.423387e-02    2.949505e+06    2.133242e-08    1.289747e-11    1.807323e-08   -2.113771e+00
    1.646862e+01    1.814906e+03    2.232690e-02    2.767249e+06    2.114743e-08    1.245346e-11    1.783106e-08   -2.108771e+00
    1.661464e+01    1.814419e+03    2.055451e-02    2.593087e+06    2.096047e-08    1.202399e-11    1.758617e-08   -2.103771e+00
    1.675140e+01    1.812402e+03    1.890944e-02    2.427051e+06    2.077164e-08    1.160858e-11    1.733868e-08   -2.098771e+00
