# sky130 pfet_01v8 gm/ID Processed Lookup Table
# Corner: ss
# Temperature: -40C
# W = 2.0 um
# L = 4 um (4000 nm)
# Columns: gm/id [1/V]  gm/gds [V/V]  id/W [A/m]  ft [Hz]  Cgg/W [F/m]  Cgd/W [F/m]  Cgs/W [F/m]  Cdb/W [F/m]  vgs [V]  vth [V]  vdsat [V]
# vdsat = BSIM4 saturation voltage (|VDS|_sat, positive); use for headroom / saturation / cascode-bias calculations
#           gm/id          gm/gds            id/W              ft           Cgg/W           Cgd/W           Cgs/W           Cdb/W             vgs             vth           vdsat
    2.762084e+00    2.051288e+01    4.034910e+00    7.816526e+07    2.269223e-08    8.782960e-10    2.151436e-08    2.089398e-09   -1.800000e+00    1.144428e+00    5.481627e-01
    2.815660e+00    2.276501e+01    3.923462e+00    7.766611e+07    2.263801e-08    8.176010e-10    2.150090e-08    2.079713e-09   -1.790000e+00    1.144428e+00    5.401331e-01
    2.869305e+00    2.525640e+01    3.813988e+00    7.711473e+07    2.258597e-08    7.607680e-10    2.148605e-08    2.070440e-09   -1.780000e+00    1.144428e+00    5.321087e-01
    2.924147e+00    2.800272e+01    3.705094e+00    7.651411e+07    2.253601e-08    7.076250e-10    2.146986e-08    2.061567e-09   -1.770000e+00    1.144428e+00    5.240894e-01
    2.979928e+00    3.101916e+01    3.597321e+00    7.586718e+07    2.248801e-08    6.579955e-10    2.145238e-08    2.053078e-09   -1.760000e+00    1.144428e+00    5.160751e-01
    3.036754e+00    3.432040e+01    3.490716e+00    7.517708e+07    2.244186e-08    6.117000e-10    2.143366e-08    2.044957e-09   -1.750000e+00    1.144428e+00    5.080659e-01
    3.094736e+00    3.792053e+01    3.385326e+00    7.444685e+07    2.239742e-08    5.685585e-10    2.141374e-08    2.037187e-09   -1.740000e+00    1.144428e+00    5.000617e-01
    3.153988e+00    4.183305e+01    3.281195e+00    7.367937e+07    2.235457e-08    5.283920e-10    2.139265e-08    2.029751e-09   -1.730000e+00    1.144428e+00    4.920625e-01
    3.214636e+00    4.607093e+01    3.178362e+00    7.287750e+07    2.231320e-08    4.910248e-10    2.137043e-08    2.022629e-09   -1.720000e+00    1.144428e+00    4.840682e-01
    3.276809e+00    5.064668e+01    3.076861e+00    7.204391e+07    2.227316e-08    4.562850e-10    2.134710e-08    2.015805e-09   -1.710000e+00    1.144428e+00    4.760788e-01
    3.340639e+00    5.557239e+01    2.976726e+00    7.118106e+07    2.223434e-08    4.240064e-10    2.132269e-08    2.009259e-09   -1.700000e+00    1.144428e+00    4.680943e-01
    3.406266e+00    6.085982e+01    2.877988e+00    7.029121e+07    2.219660e-08    3.940289e-10    2.129721e-08    2.002973e-09   -1.690000e+00    1.144428e+00    4.601147e-01
    3.473834e+00    6.652072e+01    2.780671e+00    6.937650e+07    2.215983e-08    3.661991e-10    2.127066e-08    1.996928e-09   -1.680000e+00    1.144428e+00    4.521398e-01
    3.543492e+00    7.256672e+01    2.684804e+00    6.843884e+07    2.212389e-08    3.403710e-10    2.124304e-08    1.991106e-09   -1.670000e+00    1.144428e+00    4.441698e-01
    3.615399e+00    7.900976e+01    2.590407e+00    6.747999e+07    2.208866e-08    3.164059e-10    2.121436e-08    1.985490e-09   -1.660000e+00    1.144428e+00    4.362045e-01
    3.689717e+00    8.586201e+01    2.497504e+00    6.650151e+07    2.205402e-08    2.941729e-10    2.118460e-08    1.980060e-09   -1.650000e+00    1.144428e+00    4.282440e-01
    3.766618e+00    9.313614e+01    2.406112e+00    6.550483e+07    2.201985e-08    2.735484e-10    2.115374e-08    1.974800e-09   -1.640000e+00    1.144428e+00    4.202882e-01
    3.846289e+00    1.008456e+02    2.316251e+00    6.449131e+07    2.198601e-08    2.544167e-10    2.112175e-08    1.969691e-09   -1.630000e+00    1.144428e+00    4.123371e-01
    3.928918e+00    1.090047e+02    2.227938e+00    6.346206e+07    2.195240e-08    2.366692e-10    2.108859e-08    1.964716e-09   -1.620000e+00    1.144428e+00    4.043907e-01
    4.014714e+00    1.176287e+02    2.141189e+00    6.241820e+07    2.191889e-08    2.202046e-10    2.105423e-08    1.959859e-09   -1.610000e+00    1.144428e+00    3.964490e-01
    4.103895e+00    1.267342e+02    2.056017e+00    6.136063e+07    2.188535e-08    2.049282e-10    2.101861e-08    1.955102e-09   -1.600000e+00    1.144428e+00    3.885120e-01
    4.196694e+00    1.363392e+02    1.972440e+00    6.029021e+07    2.185166e-08    1.907519e-10    2.098168e-08    1.950428e-09   -1.590000e+00    1.144428e+00    3.805796e-01
    4.293367e+00    1.464632e+02    1.890468e+00    5.920775e+07    2.181769e-08    1.775939e-10    2.094335e-08    1.945820e-09   -1.580000e+00    1.144428e+00    3.726520e-01
    4.394182e+00    1.571276e+02    1.810114e+00    5.811391e+07    2.178332e-08    1.653784e-10    2.090356e-08    1.941262e-09   -1.570000e+00    1.144428e+00    3.647291e-01
    4.499435e+00    1.683561e+02    1.731392e+00    5.700935e+07    2.174841e-08    1.540350e-10    2.086222e-08    1.936736e-09   -1.560000e+00    1.144428e+00    3.568110e-01
    4.609437e+00    1.801739e+02    1.654313e+00    5.589455e+07    2.171282e-08    1.434985e-10    2.081921e-08    1.932224e-09   -1.550000e+00    1.144428e+00    3.488976e-01
    4.724542e+00    1.926095e+02    1.578887e+00    5.477009e+07    2.167641e-08    1.337086e-10    2.077444e-08    1.927709e-09   -1.540000e+00    1.144428e+00    3.409892e-01
    4.845118e+00    2.056937e+02    1.505126e+00    5.363639e+07    2.163902e-08    1.246095e-10    2.072776e-08    1.923172e-09   -1.530000e+00    1.144428e+00    3.330858e-01
    4.971567e+00    2.194600e+02    1.433040e+00    5.249376e+07    2.160052e-08    1.161497e-10    2.067907e-08    1.918594e-09   -1.520000e+00    1.144428e+00    3.251874e-01
    5.104342e+00    2.339457e+02    1.362640e+00    5.134260e+07    2.156071e-08    1.082817e-10    2.062818e-08    1.913956e-09   -1.510000e+00    1.144428e+00    3.172943e-01
    5.243921e+00    2.491911e+02    1.293936e+00    5.018311e+07    2.151946e-08    1.009615e-10    2.057493e-08    1.909237e-09   -1.500000e+00    1.144428e+00    3.094066e-01
    5.390829e+00    2.652405e+02    1.226938e+00    4.901554e+07    2.147654e-08    9.414845e-11    2.051916e-08    1.904417e-09   -1.490000e+00    1.144428e+00    3.015246e-01
    5.545648e+00    2.821421e+02    1.161655e+00    4.784001e+07    2.143179e-08    8.780540e-11    2.046064e-08    1.899471e-09   -1.480000e+00    1.144428e+00    2.936486e-01
    5.709012e+00    2.999486e+02    1.098098e+00    4.665664e+07    2.138498e-08    8.189770e-11    2.039916e-08    1.894377e-09   -1.470000e+00    1.144428e+00    2.857789e-01
    5.881613e+00    3.187177e+02    1.036277e+00    4.546547e+07    2.133589e-08    7.639350e-11    2.033447e-08    1.889110e-09   -1.460000e+00    1.144428e+00    2.779160e-01
    6.064211e+00    3.385117e+02    9.762020e-01    4.426648e+07    2.128429e-08    7.126350e-11    2.026632e-08    1.883642e-09   -1.450000e+00    1.144428e+00    2.700604e-01
    6.257642e+00    3.593983e+02    9.178825e-01    4.305954e+07    2.122993e-08    6.648055e-11    2.019442e-08    1.877945e-09   -1.440000e+00    1.144428e+00    2.622128e-01
    6.462802e+00    3.814500e+02    8.613300e-01    4.184444e+07    2.117253e-08    6.201970e-11    2.011846e-08    1.871989e-09   -1.430000e+00    1.144428e+00    2.543740e-01
    6.680706e+00    4.047459e+02    8.065540e-01    4.062099e+07    2.111181e-08    5.785785e-11    2.003809e-08    1.865741e-09   -1.420000e+00    1.144428e+00    2.465450e-01
    6.912436e+00    4.293704e+02    7.535665e-01    3.938885e+07    2.104745e-08    5.397375e-11    1.995296e-08    1.859165e-09   -1.410000e+00    1.144428e+00    2.387271e-01
    7.159181e+00    4.554125e+02    7.023785e-01    3.814762e+07    2.097912e-08    5.034770e-11    1.986269e-08    1.852226e-09   -1.400000e+00    1.144428e+00    2.309216e-01
    7.422241e+00    4.829671e+02    6.530015e-01    3.689679e+07    2.090648e-08    4.696156e-11    1.976683e-08    1.844883e-09   -1.390000e+00    1.144428e+00    2.231305e-01
    7.703007e+00    5.121324e+02    6.054480e-01    3.563577e+07    2.082913e-08    4.379863e-11    1.966495e-08    1.837092e-09   -1.380000e+00    1.144428e+00    2.153558e-01
    8.002999e+00    5.430098e+02    5.597300e-01    3.436392e+07    2.074669e-08    4.084339e-11    1.955655e-08    1.828809e-09   -1.370000e+00    1.144428e+00    2.076002e-01
    8.323813e+00    5.757012e+02    5.158620e-01    3.308053e+07    2.065873e-08    3.808154e-11    1.944112e-08    1.819984e-09   -1.360000e+00    1.144428e+00    1.998669e-01
    8.667184e+00    6.103057e+02    4.738560e-01    3.178486e+07    2.056479e-08    3.549985e-11    1.931811e-08    1.810567e-09   -1.350000e+00    1.144428e+00    1.921596e-01
    9.034892e+00    6.469178e+02    4.337265e-01    3.047612e+07    2.046442e-08    3.308610e-11    1.918693e-08    1.800500e-09   -1.340000e+00    1.144428e+00    1.844829e-01
    9.428784e+00    6.856187e+02    3.954872e-01    2.915361e+07    2.035710e-08    3.082897e-11    1.904697e-08    1.789727e-09   -1.330000e+00    1.144428e+00    1.768424e-01
    9.850720e+00    7.264713e+02    3.591517e-01    2.781670e+07    2.024233e-08    2.871799e-11    1.889759e-08    1.778185e-09   -1.320000e+00    1.144428e+00    1.692445e-01
    1.030251e+01    7.695089e+02    3.247334e-01    2.646497e+07    2.011956e-08    2.674346e-11    1.873811e-08    1.765810e-09   -1.310000e+00    1.144428e+00    1.616970e-01
    1.078581e+01    8.147248e+02    2.922442e-01    2.509829e+07    1.998824e-08    2.489640e-11    1.856784e-08    1.752534e-09   -1.300000e+00    1.144428e+00    1.542093e-01
    1.130205e+01    8.620555e+02    2.616947e-01    2.371698e+07    1.984781e-08    2.316849e-11    1.838607e-08    1.738286e-09   -1.290000e+00    1.144428e+00    1.467920e-01
    1.185222e+01    9.113641e+02    2.330926e-01    2.232200e+07    1.969769e-08    2.155202e-11    1.819206e-08    1.722995e-09   -1.280000e+00    1.144428e+00    1.394580e-01
    1.243673e+01    9.624176e+02    2.064420e-01    2.091512e+07    1.953729e-08    2.003980e-11    1.798508e-08    1.706586e-09   -1.270000e+00    1.144428e+00    1.322219e-01
    1.305514e+01    1.014866e+03    1.817420e-01    1.949916e+07    1.936605e-08    1.862521e-11    1.776441e-08    1.688984e-09   -1.260000e+00    1.144428e+00    1.251008e-01
    1.370589e+01    1.068219e+03    1.589848e-01    1.807827e+07    1.918342e-08    1.730206e-11    1.752933e-08    1.670115e-09   -1.250000e+00    1.144428e+00    1.181138e-01
    1.438594e+01    1.121822e+03    1.381545e-01    1.665807e+07    1.898886e-08    1.606462e-11    1.727914e-08    1.649904e-09   -1.240000e+00    1.144428e+00    1.112826e-01
    1.509055e+01    1.174849e+03    1.192245e-01    1.524585e+07    1.878188e-08    1.490755e-11    1.701321e-08    1.628280e-09   -1.230000e+00    1.144428e+00    1.046310e-01
    1.581290e+01    1.226298e+03    1.021561e-01    1.385065e+07    1.856204e-08    1.382587e-11    1.673094e-08    1.605175e-09   -1.220000e+00    1.144428e+00    9.818478e-02
    1.654391e+01    1.275008e+03    8.689675e-02    1.248314e+07    1.832897e-08    1.281496e-11    1.643185e-08    1.580527e-09   -1.210000e+00    1.144428e+00    9.197105e-02
    1.727225e+01    1.319707e+03    7.337860e-02    1.115535e+07    1.808236e-08    1.187050e-11    1.611552e-08    1.554281e-09   -1.200000e+00    1.144428e+00    8.601772e-02
    1.798449e+01    1.359079e+03    6.151795e-02    9.880126e+06    1.782205e-08    1.098846e-11    1.578165e-08    1.526391e-09   -1.190000e+00    1.144428e+00    8.035238e-02
    1.866563e+01    1.391866e+03    5.121570e-02    8.670409e+06    1.754795e-08    1.016507e-11    1.543012e-08    1.496822e-09   -1.180000e+00    1.144428e+00    7.500108e-02
    1.929999e+01    1.416994e+03    4.235865e-02    7.538338e+06    1.726012e-08    9.396805e-12    1.506094e-08    1.465555e-09   -1.170000e+00    1.144428e+00    6.998706e-02
    1.987236e+01    1.433691e+03    3.482213e-02    6.494276e+06    1.695877e-08    8.680365e-12    1.467433e-08    1.432584e-09   -1.160000e+00    1.144428e+00    6.532931e-02
    2.036939e+01    1.441599e+03    2.847359e-02    5.545939e+06    1.664429e-08    8.012650e-12    1.427069e-08    1.397923e-09   -1.150000e+00    1.144428e+00    6.104135e-02
    2.078094e+01    1.440843e+03    2.317678e-02    4.697774e+06    1.631723e-08    7.390750e-12    1.385067e-08    1.361603e-09   -1.140000e+00    1.144428e+00    5.713032e-02
    2.110135e+01    1.432039e+03    1.879634e-02    3.950683e+06    1.597834e-08    6.811930e-12    1.341514e-08    1.323679e-09   -1.130000e+00    1.144428e+00    5.359640e-02
    2.133000e+01    1.416242e+03    1.520205e-02    3.302132e+06    1.562856e-08    6.273605e-12    1.296522e-08    1.284227e-09   -1.120000e+00    1.144428e+00    5.043283e-02
    2.147147e+01    1.394832e+03    1.227241e-02    2.746632e+06    1.526902e-08    5.773350e-12    1.250226e-08    1.243346e-09   -1.110000e+00    1.144428e+00    4.762633e-02
    2.153491e+01    1.369371e+03    9.897295e-03    2.276474e+06    1.490106e-08    5.308860e-12    1.202785e-08    1.201161e-09   -1.100000e+00    1.144428e+00    4.515812e-02
    2.153298e+01    1.341452e+03    7.979480e-03    1.882558e+06    1.452615e-08    4.877959e-12    1.154382e-08    1.157816e-09   -1.090000e+00    1.144428e+00    4.300502e-02
    2.148039e+01    1.312568e+03    6.435125e-03    1.555202e+06    1.414596e-08    4.478590e-12    1.105218e-08    1.113479e-09   -1.080000e+00    1.144428e+00    4.114092e-02
    2.139256e+01    1.284012e+03    5.193370e-03    1.284821e+06    1.376226e-08    4.108797e-12    1.055512e-08    1.068332e-09   -1.070000e+00    1.144428e+00    3.953808e-02
    2.128426e+01    1.256829e+03    4.195397e-03    1.062417e+06    1.337694e-08    3.766726e-12    1.005496e-08    1.022579e-09   -1.060000e+00    1.144428e+00    3.816837e-02
    2.116886e+01    1.231805e+03    3.393023e-03    8.798940e+05    1.299195e-08    3.450615e-12    9.554110e-09    9.764335e-10   -1.050000e+00    1.144428e+00    3.700429e-02
    2.105777e+01    1.209481e+03    2.747238e-03    7.301961e+05    1.260925e-08    3.158789e-12    9.055025e-09    9.301185e-10   -1.040000e+00    1.144428e+00    3.601973e-02
    2.096034e+01    1.190198e+03    2.226699e-03    6.073298e+05    1.223082e-08    2.889660e-12    8.560140e-09    8.838600e-10   -1.030000e+00    1.144428e+00    3.519050e-02
    2.088403e+01    1.174143e+03    1.806368e-03    5.063016e+05    1.185855e-08    2.641715e-12    8.071850e-09    8.378845e-10   -1.020000e+00    1.144428e+00    3.449464e-02
    2.083474e+01    1.161395e+03    1.466311e-03    4.230120e+05    1.149427e-08    2.413519e-12    7.592425e-09    7.924130e-10   -1.010000e+00    1.144428e+00    3.391254e-02
    2.081722e+01    1.151972e+03    1.190672e-03    3.541302e+05    1.113967e-08    2.203710e-12    7.124000e-09    7.476570e-10   -1.000000e+00    1.144428e+00    3.342691e-02
    2.083551e+01    1.145865e+03    9.668475e-04    2.969673e+05    1.079627e-08    2.010997e-12    6.668510e-09    7.038150e-10   -9.900000e-01    1.144428e+00    3.302271e-02
    2.089330e+01    1.143065e+03    7.848015e-04    2.493617e+05    1.046543e-08    1.834158e-12    6.227680e-09    6.610680e-10   -9.800000e-01    1.144428e+00    3.268699e-02
    2.099420e+01    1.143589e+03    6.365295e-04    2.095776e+05    1.014830e-08    1.672035e-12    5.802975e-09    6.195780e-10   -9.700000e-01    1.144428e+00    3.240865e-02
    2.114201e+01    1.147481e+03    5.156305e-04    1.762190e+05    9.845830e-09    1.523538e-12    5.395615e-09    5.794845e-10   -9.600000e-01    1.144428e+00    3.217828e-02
    2.134076e+01    1.154829e+03    4.169729e-04    1.481621e+05    9.558745e-09    1.387639e-12    5.006555e-09    5.409055e-10   -9.500000e-01    1.144428e+00    3.198791e-02
    2.159476e+01    1.165754e+03    3.364305e-04    1.244977e+05    9.287575e-09    1.263371e-12    4.636487e-09    5.039345e-10   -9.400000e-01    1.144428e+00    3.183086e-02
    2.190838e+01    1.180404e+03    2.706773e-04    1.044883e+05    9.032635e-09    1.149827e-12    4.285854e-09    4.686423e-10   -9.300000e-01    1.144428e+00    3.170152e-02
    2.228581e+01    1.198942e+03    2.170247e-04    8.753219e+04    8.794070e-09    1.046158e-12    3.954862e-09    4.350768e-10   -9.200000e-01    1.144428e+00    3.159522e-02
    2.273066e+01    1.221519e+03    1.732934e-04    7.313759e+04    8.571830e-09    9.515685e-13    3.643500e-09    4.032657e-10   -9.100000e-01    1.144428e+00    3.150806e-02
    2.324536e+01    1.248247e+03    1.377121e-04    6.090095e+04    8.365740e-09    8.653195e-13    3.351569e-09    3.732166e-10   -9.000000e-01    1.144428e+00    3.143679e-02
    2.383051e+01    1.279165e+03    1.088362e-04    5.049102e+04    8.175470e-09    7.867220e-13    3.078699e-09    3.449201e-10   -8.900000e-01    1.144428e+00    3.137872e-02
    2.448410e+01    1.314207e+03    8.548375e-05    4.163564e+04    8.000600e-09    7.151355e-13    2.824381e-09    3.183516e-10   -8.800000e-01    1.144428e+00    3.133160e-02
    2.520073e+01    1.353164e+03    6.668305e-05    3.411137e+04    7.840605e-09    6.499675e-13    2.587991e-09    2.934731e-10   -8.700000e-01    1.144428e+00    3.129356e-02
    2.597086e+01    1.395662e+03    5.163155e-05    2.773437e+04    7.694905e-09    5.906695e-13    2.368814e-09    2.702363e-10   -8.600000e-01    1.144428e+00    3.126304e-02
    2.678035e+01    1.441151e+03    3.966234e-05    2.235265e+04    7.562855e-09    5.367340e-13    2.166069e-09    2.485838e-10   -8.500000e-01    1.144428e+00    3.123873e-02
    2.760997e+01    1.488915e+03    3.021862e-05    1.783883e+04    7.443790e-09    4.876941e-13    1.978924e-09    2.284515e-10   -8.400000e-01    1.144428e+00    3.121953e-02
    2.843527e+01    1.538099e+03    2.283323e-05    1.408400e+04    7.337005e-09    4.431199e-13    1.806522e-09    2.097706e-10   -8.300000e-01    1.144428e+00    3.120449e-02
    2.922646e+01    1.587765e+03    1.711346e-05    1.099226e+04    7.241810e-09    4.026160e-13    1.647990e-09    1.924685e-10   -8.200000e-01    1.144428e+00    3.119283e-02
    2.994813e+01    1.636952e+03    1.272945e-05    8.476915e+03    7.157505e-09    3.658194e-13    1.502459e-09    1.764711e-10   -8.100000e-01    1.144428e+00    3.118389e-02
    3.055860e+01    1.684743e+03    9.405295e-06    6.457795e+03    7.083400e-09    3.323975e-13    1.369067e-09    1.617032e-10   -8.000000e-01    1.144428e+00    3.117711e-02
    3.100883e+01    1.730334e+03    6.912140e-06    4.860191e+03    7.018830e-09    3.020458e-13    1.246975e-09    1.480903e-10   -7.900000e-01    1.144428e+00    3.117202e-02
    3.124078e+01    1.773073e+03    5.062310e-06    3.614806e+03    6.963150e-09    2.744855e-13    1.135372e-09    1.355585e-10   -7.800000e-01    1.144428e+00    3.116825e-02
