# sky130 pfet_01v8 gm/ID Processed Lookup Table
# Corner: ss
# Temperature: -40C
# W = 2.0 um
# L = 0.5 um (500 nm)
# Columns: gm/id [1/V]  gm/gds [V/V]  id/W [A/m]  ft [Hz]  Cgg/W [F/m]  Cgd/W [F/m]  Cgs/W [F/m]  Cdb/W [F/m]  vgs [V]  vth [V]  vdsat [V]
# vdsat = BSIM4 saturation voltage (|VDS|_sat, positive); use for headroom / saturation / cascode-bias calculations
#           gm/id          gm/gds            id/W              ft           Cgg/W           Cgd/W           Cgs/W           Cdb/W             vgs             vth           vdsat
    2.404723e+00    6.986788e+00    3.174994e+01    3.958082e+09    3.070035e-09    7.045510e-11    2.958789e-09    2.661779e-10   -1.800000e+00    1.099148e+00    5.896140e-01
    2.454391e+00    7.450610e+00    3.098645e+01    3.948565e+09    3.065465e-09    6.557345e-11    2.957242e-09    2.653016e-10   -1.790000e+00    1.099148e+00    5.819685e-01
    2.504694e+00    7.945178e+00    3.022903e+01    3.936683e+09    3.061036e-09    6.098945e-11    2.955559e-09    2.644598e-10   -1.780000e+00    1.099148e+00    5.743173e-01
    2.555985e+00    8.470808e+00    2.947375e+01    3.922430e+09    3.056741e-09    5.668740e-11    2.953745e-09    2.636510e-10   -1.770000e+00    1.099148e+00    5.666602e-01
    2.608172e+00    9.027590e+00    2.872247e+01    3.905827e+09    3.052567e-09    5.265225e-11    2.951803e-09    2.628736e-10   -1.760000e+00    1.099148e+00    5.589971e-01
    2.661287e+00    9.615403e+00    2.797562e+01    3.886909e+09    3.048507e-09    4.886905e-11    2.949738e-09    2.621258e-10   -1.750000e+00    1.099148e+00    5.513279e-01
    2.715370e+00    1.023394e+01    2.723358e+01    3.865722e+09    3.044551e-09    4.532357e-11    2.947553e-09    2.614062e-10   -1.740000e+00    1.099148e+00    5.436524e-01
    2.770476e+00    1.088279e+01    2.649676e+01    3.842337e+09    3.040689e-09    4.200195e-11    2.945250e-09    2.607131e-10   -1.730000e+00    1.099148e+00    5.359704e-01
    2.826669e+00    1.156141e+01    2.576554e+01    3.816825e+09    3.036911e-09    3.889093e-11    2.942833e-09    2.600451e-10   -1.720000e+00    1.099148e+00    5.282819e-01
    2.884020e+00    1.226925e+01    2.504027e+01    3.789267e+09    3.033209e-09    3.597781e-11    2.940303e-09    2.594004e-10   -1.710000e+00    1.099148e+00    5.205868e-01
    2.942614e+00    1.300575e+01    2.432132e+01    3.759752e+09    3.029573e-09    3.325050e-11    2.937662e-09    2.587777e-10   -1.700000e+00    1.099148e+00    5.128848e-01
    3.002542e+00    1.377043e+01    2.360902e+01    3.728370e+09    3.025994e-09    3.069747e-11    2.934909e-09    2.581753e-10   -1.690000e+00    1.099148e+00    5.051758e-01
    3.063901e+00    1.456283e+01    2.290368e+01    3.695211e+09    3.022462e-09    2.830780e-11    2.932047e-09    2.575919e-10   -1.680000e+00    1.099148e+00    4.974598e-01
    3.126801e+00    1.538267e+01    2.220562e+01    3.660366e+09    3.018970e-09    2.607117e-11    2.929073e-09    2.570259e-10   -1.670000e+00    1.099148e+00    4.897365e-01
    3.191353e+00    1.622975e+01    2.151512e+01    3.623919e+09    3.015506e-09    2.397781e-11    2.925989e-09    2.564760e-10   -1.660000e+00    1.099148e+00    4.820060e-01
    3.257678e+00    1.710402e+01    2.083246e+01    3.585953e+09    3.012064e-09    2.201851e-11    2.922792e-09    2.559406e-10   -1.650000e+00    1.099148e+00    4.742679e-01
    3.325905e+00    1.800560e+01    2.015789e+01    3.546548e+09    3.008634e-09    2.018461e-11    2.919480e-09    2.554185e-10   -1.640000e+00    1.099148e+00    4.665223e-01
    3.396170e+00    1.893476e+01    1.949168e+01    3.505779e+09    3.005206e-09    1.846799e-11    2.916049e-09    2.549083e-10   -1.630000e+00    1.099148e+00    4.587689e-01
    3.468618e+00    1.989194e+01    1.883403e+01    3.463715e+09    3.001772e-09    1.686100e-11    2.912499e-09    2.544086e-10   -1.620000e+00    1.099148e+00    4.510077e-01
    3.543401e+00    2.087771e+01    1.818519e+01    3.420425e+09    2.998321e-09    1.535651e-11    2.908823e-09    2.539181e-10   -1.610000e+00    1.099148e+00    4.432386e-01
    3.620676e+00    2.189279e+01    1.754536e+01    3.375964e+09    2.994844e-09    1.394780e-11    2.905018e-09    2.534353e-10   -1.600000e+00    1.099148e+00    4.354615e-01
    3.700621e+00    2.293808e+01    1.691473e+01    3.330392e+09    2.991331e-09    1.262861e-11    2.901077e-09    2.529592e-10   -1.590000e+00    1.099148e+00    4.276762e-01
    3.783413e+00    2.401458e+01    1.629351e+01    3.283759e+09    2.987772e-09    1.139310e-11    2.896994e-09    2.524881e-10   -1.580000e+00    1.099148e+00    4.198827e-01
    3.869253e+00    2.512349e+01    1.568189e+01    3.236116e+09    2.984157e-09    1.023579e-11    2.892761e-09    2.520208e-10   -1.570000e+00    1.099148e+00    4.120808e-01
    3.958344e+00    2.626606e+01    1.508003e+01    3.187503e+09    2.980474e-09    9.151595e-12    2.888372e-09    2.515559e-10   -1.560000e+00    1.099148e+00    4.042705e-01
    4.050916e+00    2.744377e+01    1.448811e+01    3.137967e+09    2.976711e-09    8.135760e-12    2.883817e-09    2.510919e-10   -1.550000e+00    1.099148e+00    3.964517e-01
    4.147205e+00    2.865815e+01    1.390628e+01    3.087541e+09    2.972857e-09    7.183845e-12    2.879084e-09    2.506275e-10   -1.540000e+00    1.099148e+00    3.886243e-01
    4.247474e+00    2.991096e+01    1.333472e+01    3.036263e+09    2.968897e-09    6.291740e-12    2.874163e-09    2.501611e-10   -1.530000e+00    1.099148e+00    3.807883e-01
    4.352003e+00    3.120401e+01    1.277355e+01    2.984164e+09    2.964820e-09    5.455595e-12    2.869041e-09    2.496911e-10   -1.520000e+00    1.099148e+00    3.729437e-01
    4.461092e+00    3.253926e+01    1.222295e+01    2.931271e+09    2.960611e-09    4.671840e-12    2.863703e-09    2.492161e-10   -1.510000e+00    1.099148e+00    3.650903e-01
    4.575072e+00    3.391888e+01    1.168305e+01    2.877616e+09    2.956252e-09    3.937155e-12    2.858135e-09    2.487341e-10   -1.500000e+00    1.099148e+00    3.572282e-01
    4.694306e+00    3.534514e+01    1.115398e+01    2.823221e+09    2.951730e-09    3.248449e-12    2.852319e-09    2.482434e-10   -1.490000e+00    1.099148e+00    3.493574e-01
    4.819178e+00    3.682047e+01    1.063589e+01    2.768110e+09    2.947024e-09    2.602855e-12    2.846236e-09    2.477423e-10   -1.480000e+00    1.099148e+00    3.414779e-01
    4.950113e+00    3.834741e+01    1.012890e+01    2.712299e+09    2.942117e-09    1.997708e-12    2.839866e-09    2.472285e-10   -1.470000e+00    1.099148e+00    3.335898e-01
    5.087570e+00    3.992870e+01    9.633145e+00    2.655807e+09    2.936988e-09    1.430536e-12    2.833185e-09    2.467001e-10   -1.460000e+00    1.099148e+00    3.256932e-01
    5.232056e+00    4.156726e+01    9.148755e+00    2.598650e+09    2.931614e-09    8.990465e-13    2.826170e-09    2.461547e-10   -1.450000e+00    1.099148e+00    3.177882e-01
    5.384125e+00    4.326617e+01    8.675850e+00    2.540839e+09    2.925973e-09    4.011147e-13    2.818793e-09    2.455898e-10   -1.440000e+00    1.099148e+00    3.098751e-01
    5.544378e+00    4.502862e+01    8.214560e+00    2.482383e+09    2.920038e-09    6.522765e-14    2.811024e-09    2.450029e-10   -1.430000e+00    1.099148e+00    3.019541e-01
    5.713481e+00    4.685800e+01    7.765000e+00    2.423290e+09    2.913781e-09    5.018010e-13    2.802832e-09    2.443910e-10   -1.420000e+00    1.099148e+00    2.940256e-01
    5.892158e+00    4.875789e+01    7.327295e+00    2.363563e+09    2.907174e-09    9.102885e-13    2.794182e-09    2.437512e-10   -1.410000e+00    1.099148e+00    2.860900e-01
    6.081202e+00    5.073199e+01    6.901570e+00    2.303202e+09    2.900183e-09    1.292242e-12    2.785034e-09    2.430802e-10   -1.400000e+00    1.099148e+00    2.781478e-01
    6.281489e+00    5.278411e+01    6.487940e+00    2.242203e+09    2.892774e-09    1.649095e-12    2.775348e-09    2.423744e-10   -1.390000e+00    1.099148e+00    2.701999e-01
    6.493973e+00    5.491817e+01    6.086530e+00    2.180559e+09    2.884911e-09    1.982164e-12    2.765079e-09    2.416300e-10   -1.380000e+00    1.099148e+00    2.622470e-01
    6.719696e+00    5.713817e+01    5.697465e+00    2.118259e+09    2.876553e-09    2.292658e-12    2.754179e-09    2.408428e-10   -1.370000e+00    1.099148e+00    2.542902e-01
    6.959797e+00    5.944809e+01    5.320870e+00    2.055287e+09    2.867656e-09    2.581687e-12    2.742594e-09    2.400084e-10   -1.360000e+00    1.099148e+00    2.463310e-01
    7.215529e+00    6.185193e+01    4.956865e+00    1.991621e+09    2.858174e-09    2.850264e-12    2.730269e-09    2.391221e-10   -1.350000e+00    1.099148e+00    2.383708e-01
    7.488237e+00    6.435341e+01    4.605584e+00    1.927238e+09    2.848059e-09    3.099312e-12    2.717143e-09    2.381785e-10   -1.340000e+00    1.099148e+00    2.304117e-01
    7.779382e+00    6.695608e+01    4.267155e+00    1.862109e+09    2.837257e-09    3.329670e-12    2.703150e-09    2.371723e-10   -1.330000e+00    1.099148e+00    2.224561e-01
    8.090538e+00    6.966303e+01    3.941712e+00    1.796199e+09    2.825712e-09    3.542095e-12    2.688221e-09    2.360973e-10   -1.320000e+00    1.099148e+00    2.145071e-01
    8.423379e+00    7.247672e+01    3.629389e+00    1.729474e+09    2.813365e-09    3.737270e-12    2.672283e-09    2.349473e-10   -1.310000e+00    1.099148e+00    2.065680e-01
    8.779677e+00    7.539875e+01    3.330323e+00    1.661895e+09    2.800150e-09    3.915808e-12    2.655255e-09    2.337154e-10   -1.300000e+00    1.099148e+00    1.986434e-01
    9.161270e+00    7.842955e+01    3.044652e+00    1.593425e+09    2.786004e-09    4.078253e-12    2.637055e-09    2.323944e-10   -1.290000e+00    1.099148e+00    1.907384e-01
    9.570041e+00    8.156808e+01    2.772511e+00    1.524029e+09    2.770855e-09    4.225086e-12    2.617596e-09    2.309765e-10   -1.280000e+00    1.099148e+00    1.828592e-01
    1.000786e+01    8.481135e+01    2.514035e+00    1.453681e+09    2.754632e-09    4.356733e-12    2.596785e-09    2.294539e-10   -1.270000e+00    1.099148e+00    1.750135e-01
    1.047650e+01    8.815391e+01    2.269350e+00    1.382365e+09    2.737256e-09    4.473563e-12    2.574527e-09    2.278177e-10   -1.260000e+00    1.099148e+00    1.672100e-01
    1.097759e+01    9.158747e+01    2.038574e+00    1.310086e+09    2.718652e-09    4.575898e-12    2.550723e-09    2.260593e-10   -1.250000e+00    1.099148e+00    1.594594e-01
    1.151238e+01    9.510015e+01    1.821808e+00    1.236878e+09    2.698739e-09    4.664013e-12    2.525274e-09    2.241694e-10   -1.240000e+00    1.099148e+00    1.517742e-01
    1.208168e+01    9.867597e+01    1.619128e+00    1.162811e+09    2.677438e-09    4.738149e-12    2.498076e-09    2.221384e-10   -1.230000e+00    1.099148e+00    1.441690e-01
    1.268556e+01    1.022943e+02    1.430581e+00    1.088008e+09    2.654669e-09    4.798510e-12    2.469025e-09    2.199569e-10   -1.220000e+00    1.099148e+00    1.366607e-01
    1.332314e+01    1.059293e+02    1.256166e+00    1.012652e+09    2.630351e-09    4.845274e-12    2.438022e-09    2.176149e-10   -1.210000e+00    1.099148e+00    1.292687e-01
    1.399227e+01    1.095497e+02    1.095830e+00    9.370052e+08    2.604410e-09    4.878601e-12    2.404967e-09    2.151029e-10   -1.200000e+00    1.099148e+00    1.220151e-01
    1.468916e+01    1.131188e+02    9.494485e-01    8.614151e+08    2.576773e-09    4.898638e-12    2.369765e-09    2.124114e-10   -1.190000e+00    1.099148e+00    1.149244e-01
    1.540818e+01    1.165946e+02    8.168130e-01    7.863235e+08    2.547375e-09    4.905528e-12    2.332331e-09    2.095313e-10   -1.180000e+00    1.099148e+00    1.080236e-01
    1.614148e+01    1.199307e+02    6.976165e-01    7.122664e+08    2.516157e-09    4.899417e-12    2.292585e-09    2.064539e-10   -1.170000e+00    1.099148e+00    1.013417e-01
    1.687892e+01    1.230778e+02    5.914435e-01    6.398660e+08    2.483071e-09    4.880468e-12    2.250462e-09    2.031717e-10   -1.160000e+00    1.099148e+00    9.490904e-02
    1.760815e+01    1.259856e+02    4.977603e-01    5.698074e+08    2.448083e-09    4.848866e-12    2.205912e-09    1.996779e-10   -1.150000e+00    1.099148e+00    8.875630e-02
    1.831493e+01    1.286053e+02    4.159139e-01    5.028062e+08    2.411173e-09    4.804832e-12    2.158902e-09    1.959674e-10   -1.140000e+00    1.099148e+00    8.291350e-02
    1.898382e+01    1.308930e+02    3.451387e-01    4.395628e+08    2.372337e-09    4.748629e-12    2.109421e-09    1.920363e-10   -1.130000e+00    1.099148e+00    7.740845e-02
    1.959922e+01    1.328124e+02    2.845703e-01    3.807113e+08    2.331593e-09    4.680574e-12    2.057483e-09    1.878829e-10   -1.120000e+00    1.099148e+00    7.226530e-02
    2.014670e+01    1.343391e+02    2.332682e-01    3.267665e+08    2.288980e-09    4.601049e-12    2.003129e-09    1.835076e-10   -1.110000e+00    1.099148e+00    6.750307e-02
    2.061443e+01    1.354621e+02    1.902449e-01    2.780822e+08    2.244562e-09    4.510504e-12    1.946429e-09    1.789131e-10   -1.100000e+00    1.099148e+00    6.313437e-02
    2.099449e+01    1.361868e+02    1.544998e-01    2.348233e+08    2.198428e-09    4.409470e-12    1.887486e-09    1.741051e-10   -1.090000e+00    1.099148e+00    5.916456e-02
    2.128387e+01    1.365346e+02    1.250515e-01    1.969615e+08    2.150693e-09    4.298558e-12    1.826436e-09    1.690919e-10   -1.080000e+00    1.099148e+00    5.559137e-02
    2.148489e+01    1.365430e+02    1.009687e-01    1.642897e+08    2.101501e-09    4.178465e-12    1.763449e-09    1.638848e-10   -1.070000e+00    1.099148e+00    5.240512e-02
    2.160494e+01    1.362625e+02    8.139370e-02    1.364563e+08    2.051022e-09    4.049973e-12    1.698729e-09    1.584984e-10   -1.060000e+00    1.099148e+00    4.958947e-02
    2.165559e+01    1.357531e+02    6.555855e-02    1.130079e+08    1.999451e-09    3.913944e-12    1.632512e-09    1.529500e-10   -1.050000e+00    1.099148e+00    4.712253e-02
    2.165141e+01    1.350804e+02    5.279250e-02    9.343531e+07    1.947007e-09    3.771314e-12    1.565065e-09    1.472600e-10   -1.040000e+00    1.099148e+00    4.497832e-02
    2.160840e+01    1.343106e+02    4.252299e-02    7.721520e+07    1.893928e-09    3.623085e-12    1.496680e-09    1.414514e-10   -1.030000e+00    1.099148e+00    4.312826e-02
    2.154269e+01    1.335065e+02    3.427023e-02    6.384223e+07    1.840472e-09    3.470310e-12    1.427673e-09    1.355493e-10   -1.020000e+00    1.099148e+00    4.154259e-02
    2.146953e+01    1.327252e+02    2.763866e-02    5.285165e+07    1.786904e-09    3.314076e-12    1.358373e-09    1.295809e-10   -1.010000e+00    1.099148e+00    4.019159e-02
    2.140253e+01    1.320157e+02    2.230622e-02    4.383162e+07    1.733499e-09    3.155492e-12    1.289119e-09    1.235749e-10   -1.000000e+00    1.099148e+00    3.904660e-02
    2.135340e+01    1.314182e+02    1.801321e-02    3.642763e+07    1.680534e-09    2.995663e-12    1.220254e-09    1.175608e-10   -9.900000e-01    1.099148e+00    3.808070e-02
    2.133203e+01    1.309651e+02    1.455166e-02    3.034144e+07    1.628278e-09    2.835674e-12    1.152117e-09    1.115680e-10   -9.800000e-01    1.099148e+00    3.726921e-02
    2.134674e+01    1.306815e+02    1.175577e-02    2.532636e+07    1.576994e-09    2.676576e-12    1.085036e-09    1.056260e-10   -9.700000e-01    1.099148e+00    3.658985e-02
    2.140460e+01    1.305869e+02    9.493675e-03    2.118087e+07    1.526926e-09    2.519356e-12    1.019318e-09    9.976310e-11   -9.600000e-01    1.099148e+00    3.602292e-02
    2.151180e+01    1.306966e+02    7.660580e-03    1.774171e+07    1.478302e-09    2.364929e-12    9.552495e-10    9.400625e-11   -9.500000e-01    1.099148e+00    3.555115e-02
    2.167401e+01    1.310224e+02    6.173135e-03    1.487742e+07    1.431323e-09    2.214128e-12    8.930880e-10    8.838025e-11   -9.400000e-01    1.099148e+00    3.515958e-02
    2.189656e+01    1.315734e+02    4.964965e-03    1.248237e+07    1.386165e-09    2.067682e-12    8.330570e-10    8.290765e-11   -9.300000e-01    1.099148e+00    3.483538e-02
    2.218444e+01    1.323561e+02    3.983090e-03    1.047176e+07    1.342978e-09    1.926220e-12    7.753465e-10    7.760810e-11   -9.200000e-01    1.099148e+00    3.456762e-02
    2.254226e+01    1.333738e+02    3.185102e-03    8.777506e+06    1.301876e-09    1.790262e-12    7.201085e-10    7.249855e-11   -9.100000e-01    1.099148e+00    3.434706e-02
    2.297394e+01    1.346260e+02    2.536960e-03    7.344847e+06    1.262951e-09    1.660221e-12    6.674595e-10    6.759275e-11   -9.000000e-01    1.099148e+00    3.416589e-02
    2.348233e+01    1.361066e+02    2.011237e-03    6.129740e+06    1.226260e-09    1.536402e-12    6.174790e-10    6.290145e-11   -8.900000e-01    1.099148e+00    3.401756e-02
    2.406858e+01    1.378029e+02    1.585754e-03    5.096715e+06    1.191835e-09    1.419013e-12    5.702130e-10    5.843230e-11   -8.800000e-01    1.099148e+00    3.389659e-02
    2.473158e+01    1.396948e+02    1.242496e-03    4.217229e+06    1.159684e-09    1.308167e-12    5.256760e-10    5.419030e-11   -8.700000e-01    1.099148e+00    3.379838e-02
    2.546739e+01    1.417535e+02    9.667505e-04    3.468333e+06    1.129791e-09    1.203894e-12    4.838533e-10    5.017760e-11   -8.600000e-01    1.099148e+00    3.371909e-02
    2.626873e+01    1.439429e+02    7.464365e-04    2.831541e+06    1.102121e-09    1.106150e-12    4.447052e-10    4.639407e-11   -8.500000e-01    1.099148e+00    3.365547e-02
    2.712483e+01    1.462199e+02    5.715680e-04    2.291882e+06    1.076621e-09    1.014827e-12    4.081707e-10    4.283736e-11   -8.400000e-01    1.099148e+00    3.360480e-02
    2.802164e+01    1.485376e+02    4.338410e-04    1.837058e+06    1.053226e-09    9.297645e-13    3.741708e-10    3.950332e-11   -8.300000e-01    1.099148e+00    3.356479e-02
    2.894224e+01    1.508478e+02    3.263175e-04    1.456710e+06    1.031857e-09    8.507565e-13    3.426121e-10    3.638625e-11   -8.200000e-01    1.099148e+00    3.353349e-02
    2.986788e+01    1.531042e+02    2.431835e-04    1.141810e+06    1.012430e-09    7.775640e-13    3.133900e-10    3.347917e-11   -8.100000e-01    1.099148e+00    3.350925e-02
    3.077903e+01    1.552662e+02    1.795694e-04    8.841969e+05    9.948515e-10    7.099235e-13    2.863921e-10    3.077409e-11   -8.000000e-01    1.099148e+00    3.349068e-02
    3.165643e+01    1.573002e+02    1.314135e-04    6.762807e+05    9.790275e-10    6.475530e-13    2.615007e-10    2.826225e-11   -7.900000e-01    1.099148e+00    3.347661e-02
    3.248210e+01    1.591817e+02    9.535490e-05    5.109082e+05    9.648600e-10    5.901595e-13    2.385952e-10    2.593439e-11   -7.800000e-01    1.099148e+00    3.346606e-02
    3.323968e+01    1.608954e+02    6.864400e-05    3.813536e+05    9.522515e-10    5.374460e-13    2.175541e-10    2.378090e-11   -7.700000e-01    1.099148e+00    3.345825e-02
    3.391437e+01    1.624343e+02    4.906217e-05    2.813923e+05    9.411060e-10    4.891139e-13    1.982569e-10    2.179198e-11   -7.600000e-01    1.099148e+00    3.345252e-02
    3.449212e+01    1.637991e+02    3.484707e-05    2.054015e+05    9.313280e-10    4.448698e-13    1.805853e-10    1.995787e-11   -7.500000e-01    1.099148e+00    3.344835e-02
    3.495814e+01    1.649960e+02    2.462145e-05    1.484437e+05    9.228270e-10    4.044267e-13    1.644242e-10    1.826884e-11   -7.400000e-01    1.099148e+00    3.344536e-02
    3.529475e+01    1.660356e+02    1.732650e-05    1.063104e+05    9.155150e-10    3.675070e-13    1.496628e-10    1.671540e-11   -7.300000e-01    1.099148e+00    3.344322e-02
    3.547872e+01    1.669310e+02    1.216096e-05    7.551708e+04    9.093075e-10    3.338442e-13    1.361950e-10    1.528832e-11   -7.200000e-01    1.099148e+00    3.344171e-02
