# sky130 pfet_01v8 gm/ID Processed Lookup Table
# Corner: tt
# Temperature: 85C
# W = 2.0 um
# L = 0.5 um (500 nm)
# Columns: gm/id [1/V]  gm/gds [V/V]  id/W [A/m]  ft [Hz]  Cgg/W [F/m]  Cgd/W [F/m]  Cgs/W [F/m]  Cdb/W [F/m]  vgs [V]  vth [V]  vdsat [V]
# vdsat = BSIM4 saturation voltage (|VDS|_sat, positive); use for headroom / saturation / cascode-bias calculations
#           gm/id          gm/gds            id/W              ft           Cgg/W           Cgd/W           Cgs/W           Cdb/W             vgs             vth           vdsat
    1.428474e+00    1.813751e+00    3.994828e+01    2.835730e+09    3.202771e-09    2.696868e-10    2.988167e-09    3.116101e-10   -1.800000e+00    8.615676e-01    8.236791e-01
    1.454973e+00    1.878643e+00    3.937764e+01    2.855233e+09    3.193619e-09    2.559496e-10    2.990139e-09    3.096668e-10   -1.790000e+00    8.615676e-01    8.154509e-01
    1.482317e+00    1.947654e+00    3.880243e+01    2.874488e+09    3.184635e-09    2.426278e-10    2.991884e-09    3.077624e-10   -1.780000e+00    8.615676e-01    8.072261e-01
    1.510407e+00    2.021165e+00    3.822615e+01    2.893461e+09    3.175829e-09    2.297357e-10    2.993400e-09    3.058988e-10   -1.770000e+00    8.615676e-01    7.990047e-01
    1.539316e+00    2.099600e+00    3.764771e+01    2.912124e+09    3.167207e-09    2.172851e-10    2.994683e-09    3.040780e-10   -1.760000e+00    8.615676e-01    7.907865e-01
    1.569075e+00    2.183435e+00    3.706714e+01    2.930446e+09    3.158778e-09    2.052852e-10    2.995731e-09    3.023016e-10   -1.750000e+00    8.615676e-01    7.825713e-01
    1.599712e+00    2.273198e+00    3.648450e+01    2.948389e+09    3.150545e-09    1.937425e-10    2.996545e-09    3.005708e-10   -1.740000e+00    8.615676e-01    7.743592e-01
    1.631260e+00    2.369482e+00    3.589987e+01    2.965918e+09    3.142512e-09    1.826611e-10    2.997125e-09    2.988868e-10   -1.730000e+00    8.615676e-01    7.661499e-01
    1.663748e+00    2.472951e+00    3.531329e+01    2.982994e+09    3.134681e-09    1.720425e-10    2.997471e-09    2.972503e-10   -1.720000e+00    8.615676e-01    7.579433e-01
    1.697207e+00    2.584352e+00    3.472484e+01    2.999577e+09    3.127053e-09    1.618858e-10    2.997585e-09    2.956619e-10   -1.710000e+00    8.615676e-01    7.497393e-01
    1.731668e+00    2.704517e+00    3.413461e+01    3.015622e+09    3.119627e-09    1.521879e-10    2.997471e-09    2.941219e-10   -1.700000e+00    8.615676e-01    7.415378e-01
    1.767158e+00    2.834381e+00    3.354268e+01    3.031081e+09    3.112402e-09    1.429435e-10    2.997130e-09    2.926303e-10   -1.690000e+00    8.615676e-01    7.333387e-01
    1.803706e+00    2.974993e+00    3.294914e+01    3.045904e+09    3.105372e-09    1.341454e-10    2.996566e-09    2.911868e-10   -1.680000e+00    8.615676e-01    7.251418e-01
    1.841335e+00    3.127519e+00    3.235410e+01    3.060033e+09    3.098534e-09    1.257849e-10    2.995784e-09    2.897909e-10   -1.670000e+00    8.615676e-01    7.169471e-01
    1.880068e+00    3.293261e+00    3.175769e+01    3.073403e+09    3.091882e-09    1.178516e-10    2.994785e-09    2.884421e-10   -1.660000e+00    8.615676e-01    7.087544e-01
    1.919922e+00    3.473668e+00    3.116002e+01    3.085947e+09    3.085410e-09    1.103338e-10    2.993577e-09    2.871393e-10   -1.650000e+00    8.615676e-01    7.005636e-01
    1.960914e+00    3.670343e+00    3.056124e+01    3.097593e+09    3.079110e-09    1.032187e-10    2.992162e-09    2.858816e-10   -1.640000e+00    8.615676e-01    6.923745e-01
    2.003048e+00    3.885039e+00    2.996151e+01    3.108254e+09    3.072973e-09    9.649265e-11    2.990545e-09    2.846676e-10   -1.630000e+00    8.615676e-01    6.841871e-01
    2.046333e+00    4.119683e+00    2.936102e+01    3.117848e+09    3.066991e-09    9.014145e-11    2.988728e-09    2.834962e-10   -1.620000e+00    8.615676e-01    6.760013e-01
    2.090759e+00    4.376343e+00    2.875994e+01    3.126272e+09    3.061155e-09    8.415020e-11    2.986717e-09    2.823656e-10   -1.610000e+00    8.615676e-01    6.678169e-01
    2.136322e+00    4.657244e+00    2.815849e+01    3.133433e+09    3.055454e-09    7.850375e-11    2.984516e-09    2.812745e-10   -1.600000e+00    8.615676e-01    6.596338e-01
    2.183001e+00    4.964712e+00    2.755690e+01    3.139222e+09    3.049878e-09    7.318685e-11    2.982127e-09    2.802210e-10   -1.590000e+00    8.615676e-01    6.514519e-01
    2.230774e+00    5.301169e+00    2.695544e+01    3.143534e+09    3.044417e-09    6.818400e-11    2.979554e-09    2.792035e-10   -1.580000e+00    8.615676e-01    6.432712e-01
    2.279613e+00    5.669055e+00    2.635437e+01    3.146261e+09    3.039058e-09    6.348000e-11    2.976799e-09    2.782201e-10   -1.570000e+00    8.615676e-01    6.350915e-01
    2.329482e+00    6.070771e+00    2.575399e+01    3.147299e+09    3.033794e-09    5.905975e-11    2.973864e-09    2.772691e-10   -1.560000e+00    8.615676e-01    6.269126e-01
    2.380349e+00    6.508611e+00    2.515461e+01    3.146553e+09    3.028609e-09    5.490845e-11    2.970751e-09    2.763485e-10   -1.550000e+00    8.615676e-01    6.187345e-01
    2.432179e+00    6.984650e+00    2.455656e+01    3.143937e+09    3.023495e-09    5.101155e-11    2.967461e-09    2.754564e-10   -1.540000e+00    8.615676e-01    6.105572e-01
    2.484939e+00    7.500661e+00    2.396020e+01    3.139379e+09    3.018441e-09    4.735515e-11    2.963995e-09    2.745911e-10   -1.530000e+00    8.615676e-01    6.023804e-01
    2.538604e+00    8.058027e+00    2.336589e+01    3.132824e+09    3.013433e-09    4.392560e-11    2.960353e-09    2.737504e-10   -1.520000e+00    8.615676e-01    5.942042e-01
    2.593157e+00    8.657649e+00    2.277399e+01    3.124236e+09    3.008461e-09    4.070986e-11    2.956535e-09    2.729327e-10   -1.510000e+00    8.615676e-01    5.860283e-01
    2.648598e+00    9.299913e+00    2.218489e+01    3.113608e+09    3.003513e-09    3.769540e-11    2.952538e-09    2.721359e-10   -1.500000e+00    8.615676e-01    5.778528e-01
    2.704931e+00    9.984636e+00    2.159895e+01    3.100940e+09    2.998579e-09    3.487024e-11    2.948362e-09    2.713582e-10   -1.490000e+00    8.615676e-01    5.696775e-01
    2.762185e+00    1.071112e+01    2.101654e+01    3.086268e+09    2.993645e-09    3.222296e-11    2.944004e-09    2.705979e-10   -1.480000e+00    8.615676e-01    5.615024e-01
    2.820396e+00    1.147814e+01    2.043803e+01    3.069635e+09    2.988701e-09    2.974272e-11    2.939462e-09    2.698529e-10   -1.470000e+00    8.615676e-01    5.533273e-01
    2.879625e+00    1.228409e+01    1.986379e+01    3.051108e+09    2.983737e-09    2.741920e-11    2.934731e-09    2.691216e-10   -1.460000e+00    8.615676e-01    5.451523e-01
    2.939939e+00    1.312705e+01    1.929414e+01    3.030760e+09    2.978738e-09    2.524266e-11    2.929807e-09    2.684019e-10   -1.450000e+00    8.615676e-01    5.369772e-01
    3.001428e+00    1.400494e+01    1.872942e+01    3.008680e+09    2.973694e-09    2.320390e-11    2.924686e-09    2.676924e-10   -1.440000e+00    8.615676e-01    5.288021e-01
    3.064185e+00    1.491559e+01    1.816994e+01    2.984955e+09    2.968594e-09    2.129424e-11    2.919362e-09    2.669910e-10   -1.430000e+00    8.615676e-01    5.206268e-01
    3.128316e+00    1.585689e+01    1.761599e+01    2.959676e+09    2.963424e-09    1.950550e-11    2.913828e-09    2.662960e-10   -1.420000e+00    8.615676e-01    5.124514e-01
    3.193941e+00    1.682692e+01    1.706787e+01    2.932936e+09    2.958173e-09    1.783001e-11    2.908078e-09    2.656057e-10   -1.410000e+00    8.615676e-01    5.042758e-01
    3.261185e+00    1.782397e+01    1.652581e+01    2.904823e+09    2.952830e-09    1.626056e-11    2.902103e-09    2.649184e-10   -1.400000e+00    8.615676e-01    4.960999e-01
    3.330182e+00    1.884664e+01    1.599007e+01    2.875426e+09    2.947381e-09    1.479038e-11    2.895895e-09    2.642321e-10   -1.390000e+00    8.615676e-01    4.879239e-01
    3.401070e+00    1.989381e+01    1.546088e+01    2.844821e+09    2.941814e-09    1.341314e-11    2.889445e-09    2.635452e-10   -1.380000e+00    8.615676e-01    4.797477e-01
    3.473998e+00    2.096474e+01    1.493847e+01    2.813084e+09    2.936114e-09    1.212290e-11    2.882742e-09    2.628559e-10   -1.370000e+00    8.615676e-01    4.715714e-01
    3.549113e+00    2.205897e+01    1.442303e+01    2.780280e+09    2.930271e-09    1.091414e-11    2.875777e-09    2.621625e-10   -1.360000e+00    8.615676e-01    4.633950e-01
    3.626576e+00    2.317638e+01    1.391475e+01    2.746471e+09    2.924269e-09    9.781655e-12    2.868537e-09    2.614630e-10   -1.350000e+00    8.615676e-01    4.552187e-01
    3.706551e+00    2.431713e+01    1.341383e+01    2.711711e+09    2.918095e-09    8.720625e-12    2.861010e-09    2.607557e-10   -1.340000e+00    8.615676e-01    4.470424e-01
    3.789211e+00    2.548164e+01    1.292042e+01    2.676048e+09    2.911735e-09    7.726525e-12    2.853182e-09    2.600387e-10   -1.330000e+00    8.615676e-01    4.388664e-01
    3.874734e+00    2.667056e+01    1.243472e+01    2.639526e+09    2.905173e-09    6.795145e-12    2.845041e-09    2.593102e-10   -1.320000e+00    8.615676e-01    4.306909e-01
    3.963308e+00    2.788474e+01    1.195685e+01    2.602180e+09    2.898395e-09    5.922565e-12    2.836569e-09    2.585682e-10   -1.310000e+00    8.615676e-01    4.225161e-01
    4.055133e+00    2.912517e+01    1.148699e+01    2.564045e+09    2.891385e-09    5.105120e-12    2.827751e-09    2.578107e-10   -1.300000e+00    8.615676e-01    4.143421e-01
    4.150411e+00    3.039301e+01    1.102528e+01    2.525145e+09    2.884127e-09    4.339407e-12    2.818572e-09    2.570358e-10   -1.290000e+00    8.615676e-01    4.061695e-01
    4.249361e+00    3.168953e+01    1.057185e+01    2.485506e+09    2.876603e-09    3.622249e-12    2.809012e-09    2.562414e-10   -1.280000e+00    8.615676e-01    3.979984e-01
    4.352211e+00    3.301609e+01    1.012685e+01    2.445145e+09    2.868798e-09    2.950691e-12    2.799053e-09    2.554253e-10   -1.270000e+00    8.615676e-01    3.898294e-01
    4.459202e+00    3.437413e+01    9.690410e+00    2.404077e+09    2.860692e-09    2.321988e-12    2.788675e-09    2.545854e-10   -1.260000e+00    8.615676e-01    3.816630e-01
    4.570585e+00    3.576512e+01    9.262665e+00    2.362314e+09    2.852268e-09    1.733579e-12    2.777858e-09    2.537195e-10   -1.250000e+00    8.615676e-01    3.734997e-01
    4.686632e+00    3.719057e+01    8.843735e+00    2.319864e+09    2.843507e-09    1.183086e-12    2.766580e-09    2.528252e-10   -1.240000e+00    8.615676e-01    3.653403e-01
    4.807615e+00    3.865204e+01    8.433760e+00    2.276731e+09    2.834389e-09    6.682980e-13    2.754818e-09    2.519003e-10   -1.230000e+00    8.615676e-01    3.571856e-01
    4.933836e+00    4.015104e+01    8.032855e+00    2.232918e+09    2.824894e-09    1.871584e-13    2.742550e-09    2.509421e-10   -1.220000e+00    8.615676e-01    3.490366e-01
    5.065603e+00    4.168905e+01    7.641145e+00    2.188423e+09    2.815001e-09    2.622436e-13    2.729749e-09    2.499483e-10   -1.210000e+00    8.615676e-01    3.408942e-01
    5.203240e+00    4.326757e+01    7.258755e+00    2.143242e+09    2.804690e-09    6.816840e-13    2.716393e-09    2.489162e-10   -1.200000e+00    8.615676e-01    3.327597e-01
    5.347086e+00    4.488799e+01    6.885805e+00    2.097370e+09    2.793939e-09    1.072812e-12    2.702454e-09    2.478433e-10   -1.190000e+00    8.615676e-01    3.246346e-01
    5.497494e+00    4.655155e+01    6.522415e+00    2.050799e+09    2.782725e-09    1.437159e-12    2.687904e-09    2.467267e-10   -1.180000e+00    8.615676e-01    3.165204e-01
    5.654830e+00    4.825947e+01    6.168705e+00    2.003518e+09    2.771026e-09    1.776149e-12    2.672717e-09    2.455636e-10   -1.170000e+00    8.615676e-01    3.084190e-01
    5.819470e+00    5.001272e+01    5.824795e+00    1.955515e+09    2.758818e-09    2.091105e-12    2.656864e-09    2.443511e-10   -1.160000e+00    8.615676e-01    3.003325e-01
    5.991802e+00    5.181211e+01    5.490800e+00    1.906779e+09    2.746078e-09    2.383250e-12    2.640315e-09    2.430864e-10   -1.150000e+00    8.615676e-01    2.922633e-01
    6.172219e+00    5.365819e+01    5.166835e+00    1.857295e+09    2.732784e-09    2.653726e-12    2.623042e-09    2.417664e-10   -1.140000e+00    8.615676e-01    2.842140e-01
    6.361107e+00    5.555119e+01    4.853020e+00    1.807050e+09    2.718909e-09    2.903589e-12    2.605013e-09    2.403880e-10   -1.130000e+00    8.615676e-01    2.761879e-01
    6.558862e+00    5.749109e+01    4.549461e+00    1.756032e+09    2.704432e-09    3.133824e-12    2.586200e-09    2.389480e-10   -1.120000e+00    8.615676e-01    2.681882e-01
    6.765859e+00    5.947727e+01    4.256270e+00    1.704231e+09    2.689328e-09    3.345342e-12    2.566571e-09    2.374435e-10   -1.110000e+00    8.615676e-01    2.602191e-01
    6.982460e+00    6.150880e+01    3.973549e+00    1.651639e+09    2.673573e-09    3.538991e-12    2.546096e-09    2.358711e-10   -1.100000e+00    8.615676e-01    2.522847e-01
    7.208994e+00    6.358412e+01    3.701399e+00    1.598253e+09    2.657145e-09    3.715562e-12    2.524745e-09    2.342277e-10   -1.090000e+00    8.615676e-01    2.443901e-01
    7.445748e+00    6.570102e+01    3.439911e+00    1.544075e+09    2.640021e-09    3.875789e-12    2.502489e-09    2.325101e-10   -1.080000e+00    8.615676e-01    2.365407e-01
    7.692950e+00    6.785657e+01    3.189171e+00    1.489117e+09    2.622178e-09    4.020357e-12    2.479299e-09    2.307153e-10   -1.070000e+00    8.615676e-01    2.287428e-01
    7.950758e+00    7.004711e+01    2.949251e+00    1.433398e+09    2.603596e-09    4.149908e-12    2.455148e-09    2.288399e-10   -1.060000e+00    8.615676e-01    2.210030e-01
    8.219230e+00    7.226802e+01    2.720213e+00    1.376952e+09    2.584255e-09    4.265039e-12    2.430007e-09    2.268811e-10   -1.050000e+00    8.615676e-01    2.133290e-01
    8.498305e+00    7.451376e+01    2.502102e+00    1.319825e+09    2.564138e-09    4.366314e-12    2.403855e-09    2.248358e-10   -1.040000e+00    8.615676e-01    2.057289e-01
    8.787784e+00    7.677776e+01    2.294946e+00    1.262080e+09    2.543227e-09    4.454262e-12    2.376666e-09    2.227014e-10   -1.030000e+00    8.615676e-01    1.982119e-01
    9.087288e+00    7.905242e+01    2.098751e+00    1.203802e+09    2.521507e-09    4.529383e-12    2.348421e-09    2.204750e-10   -1.020000e+00    8.615676e-01    1.907877e-01
    9.396247e+00    8.132903e+01    1.913497e+00    1.145095e+09    2.498969e-09    4.592153e-12    2.319102e-09    2.181543e-10   -1.010000e+00    8.615676e-01    1.834670e-01
    9.713858e+00    8.359780e+01    1.739136e+00    1.086088e+09    2.475599e-09    4.643025e-12    2.288694e-09    2.157369e-10   -1.000000e+00    8.615676e-01    1.762611e-01
    1.003906e+01    8.584790e+01    1.575590e+00    1.026936e+09    2.451395e-09    4.682435e-12    2.257187e-09    2.132209e-10   -9.900000e-01    8.615676e-01    1.691822e-01
    1.037053e+01    8.806752e+01    1.422743e+00    9.678183e+08    2.426350e-09    4.710802e-12    2.224574e-09    2.106046e-10   -9.800000e-01    8.615676e-01    1.622431e-01
    1.070662e+01    9.024405e+01    1.280440e+00    9.089419e+08    2.400467e-09    4.728536e-12    2.190851e-09    2.078866e-10   -9.700000e-01    8.615676e-01    1.554570e-01
    1.104542e+01    9.236426e+01    1.148486e+00    8.505378e+08    2.373748e-09    4.736035e-12    2.156021e-09    2.050659e-10   -9.600000e-01    8.615676e-01    1.488374e-01
    1.138469e+01    9.441450e+01    1.026643e+00    7.928575e+08    2.346203e-09    4.733693e-12    2.120091e-09    2.021420e-10   -9.500000e-01    8.615676e-01    1.423984e-01
    1.172194e+01    9.638090e+01    9.146240e-01    7.361697e+08    2.317845e-09    4.721901e-12    2.083075e-09    1.991149e-10   -9.400000e-01    8.615676e-01    1.361537e-01
    1.205445e+01    9.825016e+01    8.121020e-01    6.807553e+08    2.288691e-09    4.701046e-12    2.044989e-09    1.959849e-10   -9.300000e-01    8.615676e-01    1.301169e-01
    1.237932e+01    1.000093e+02    7.187040e-01    6.268968e+08    2.258764e-09    4.671520e-12    2.005862e-09    1.927529e-10   -9.200000e-01    8.615676e-01    1.243009e-01
    1.269357e+01    1.016467e+02    6.340165e-01    5.748724e+08    2.228092e-09    4.633716e-12    1.965722e-09    1.894204e-10   -9.100000e-01    8.615676e-01    1.187177e-01
    1.299427e+01    1.031520e+02    5.575895e-01    5.249456e+08    2.196709e-09    4.588033e-12    1.924608e-09    1.859895e-10   -9.000000e-01    8.615676e-01    1.133784e-01
    1.327860e+01    1.045171e+02    4.889420e-01    4.773554e+08    2.164651e-09    4.534874e-12    1.882566e-09    1.824628e-10   -8.900000e-01    8.615676e-01    1.082922e-01
    1.354404e+01    1.057360e+02    4.275682e-01    4.323085e+08    2.131964e-09    4.474652e-12    1.839647e-09    1.788438e-10   -8.800000e-01    8.615676e-01    1.034670e-01
    1.378846e+01    1.068055e+02    3.729458e-01    3.899706e+08    2.098698e-09    4.407786e-12    1.795908e-09    1.751363e-10   -8.700000e-01    8.615676e-01    9.890832e-02
    1.401029e+01    1.077254e+02    3.245437e-01    3.504614e+08    2.064905e-09    4.334704e-12    1.751417e-09    1.713449e-10   -8.600000e-01    8.615676e-01    9.461968e-02
    1.420858e+01    1.084987e+02    2.818305e-01    3.138518e+08    2.030646e-09    4.255843e-12    1.706244e-09    1.674748e-10   -8.500000e-01    8.615676e-01    9.060232e-02
    1.438311e+01    1.091316e+02    2.442831e-01    2.801619e+08    1.995985e-09    4.171646e-12    1.660465e-09    1.635318e-10   -8.400000e-01    8.615676e-01    8.685514e-02
    1.453441e+01    1.096331e+02    2.113935e-01    2.493640e+08    1.960990e-09    4.082564e-12    1.614166e-09    1.595224e-10   -8.300000e-01    8.615676e-01    8.337480e-02
    1.466377e+01    1.100155e+02    1.826758e-01    2.213863e+08    1.925733e-09    3.989054e-12    1.567433e-09    1.554536e-10   -8.200000e-01    8.615676e-01    8.015578e-02
    1.477320e+01    1.102935e+02    1.576712e-01    1.961186e+08    1.890291e-09    3.891577e-12    1.520360e-09    1.513328e-10   -8.100000e-01    8.615676e-01    7.719063e-02
    1.486535e+01    1.104837e+02    1.359526e-01    1.734202e+08    1.854741e-09    3.790597e-12    1.473043e-09    1.471679e-10   -8.000000e-01    8.615676e-01    7.447016e-02
    1.494339e+01    1.106046e+02    1.171263e-01    1.531269e+08    1.819164e-09    3.686578e-12    1.425583e-09    1.429673e-10   -7.900000e-01    8.615676e-01    7.198374e-02
    1.501090e+01    1.106757e+02    1.008338e-01    1.350596e+08    1.783642e-09    3.579985e-12    1.378080e-09    1.387398e-10   -7.800000e-01    8.615676e-01    6.971960e-02
    1.507174e+01    1.107167e+02    8.675225e-02    1.190306e+08    1.748259e-09    3.471274e-12    1.330636e-09    1.344941e-10   -7.700000e-01    8.615676e-01    6.766512e-02
    1.512986e+01    1.107473e+02    7.459310e-02    1.048509e+08    1.713096e-09    3.360898e-12    1.283357e-09    1.302394e-10   -7.600000e-01    8.615676e-01    6.580714e-02
    1.518925e+01    1.107866e+02    6.410070e-02    9.233502e+07    1.678235e-09    3.249300e-12    1.236342e-09    1.259849e-10   -7.500000e-01    8.615676e-01    6.413223e-02
    1.525380e+01    1.108526e+02    5.505020e-02    8.130534e+07    1.643758e-09    3.136911e-12    1.189695e-09    1.217399e-10   -7.400000e-01    8.615676e-01    6.262697e-02
    1.532716e+01    1.109616e+02    4.724515e-02    7.159499e+07    1.609743e-09    3.024148e-12    1.143512e-09    1.175135e-10   -7.300000e-01    8.615676e-01    6.127810e-02
    1.541275e+01    1.111283e+02    4.051458e-02    6.304964e+07    1.576264e-09    2.911411e-12    1.097890e-09    1.133147e-10   -7.200000e-01    8.615676e-01    6.007276e-02
