# sky130 pfet_01v8 gm/ID Processed Lookup Table
# Corner: ss
# Temperature: 0C
# W = 2.0 um
# L = 4.68 um (4680 nm)
# Columns: gm/id [1/V]  gm/gds [V/V]  id/W [A/m]  ft [Hz]  Cgg/W [F/m]  Cgd/W [F/m]  Cgs/W [F/m]  Vov [V]
#         gm/id          gm/gds            id/W              ft           Cgg/W           Cgd/W           Cgs/W             Vov
    2.456951e+00    1.113200e+01    3.505754e+00    5.130367e+07    2.672081e-08    1.529270e-09    2.513187e-08   -2.885268e+00
    2.481535e+00    1.170228e+01    3.462738e+00    5.126066e+07    2.667940e-08    1.478570e-09    2.512798e-08   -2.880268e+00
    2.506269e+00    1.230909e+01    3.419827e+00    5.120810e+07    2.663871e-08    1.429223e-09    2.512356e-08   -2.875268e+00
    2.531148e+00    1.295458e+01    3.377029e+00    5.114593e+07    2.659876e-08    1.381222e-09    2.511862e-08   -2.870268e+00
    2.556169e+00    1.364098e+01    3.334352e+00    5.107408e+07    2.655954e-08    1.334555e-09    2.511318e-08   -2.865268e+00
    2.581332e+00    1.437064e+01    3.291800e+00    5.099261e+07    2.652103e-08    1.289209e-09    2.510723e-08   -2.860268e+00
    2.606636e+00    1.514591e+01    3.249382e+00    5.090146e+07    2.648324e-08    1.245169e-09    2.510078e-08   -2.855268e+00
    2.632079e+00    1.596924e+01    3.207103e+00    5.080070e+07    2.644615e-08    1.202419e-09    2.509384e-08   -2.850268e+00
    2.657668e+00    1.684318e+01    3.164970e+00    5.069046e+07    2.640975e-08    1.160941e-09    2.508641e-08   -2.845268e+00
    2.683402e+00    1.777026e+01    3.122990e+00    5.057083e+07    2.637403e-08    1.120717e-09    2.507851e-08   -2.840268e+00
    2.709284e+00    1.875309e+01    3.081170e+00    5.044189e+07    2.633899e-08    1.081725e-09    2.507013e-08   -2.835268e+00
    2.735321e+00    1.979433e+01    3.039515e+00    5.030383e+07    2.630460e-08    1.043945e-09    2.506129e-08   -2.830268e+00
    2.761517e+00    2.089666e+01    2.998032e+00    5.015680e+07    2.627086e-08    1.007354e-09    2.505200e-08   -2.825268e+00
    2.787879e+00    2.206280e+01    2.956726e+00    5.000101e+07    2.623774e-08    9.719285e-10    2.504226e-08   -2.820268e+00
    2.814416e+00    2.329547e+01    2.915604e+00    4.983663e+07    2.620524e-08    9.376445e-10    2.503208e-08   -2.815268e+00
    2.841134e+00    2.459744e+01    2.874671e+00    4.966391e+07    2.617333e-08    9.044775e-10    2.502145e-08   -2.810268e+00
    2.868045e+00    2.597145e+01    2.833932e+00    4.948306e+07    2.614201e-08    8.724025e-10    2.501040e-08   -2.805268e+00
    2.895157e+00    2.742028e+01    2.793394e+00    4.929431e+07    2.611125e-08    8.413930e-10    2.499892e-08   -2.800268e+00
    2.922484e+00    2.894670e+01    2.753061e+00    4.909794e+07    2.608103e-08    8.114245e-10    2.498702e-08   -2.795268e+00
    2.950035e+00    3.055345e+01    2.712938e+00    4.889416e+07    2.605134e-08    7.824695e-10    2.497470e-08   -2.790268e+00
    2.977822e+00    3.224327e+01    2.673030e+00    4.868322e+07    2.602215e-08    7.545020e-10    2.496198e-08   -2.785268e+00
    3.005860e+00    3.401891e+01    2.633341e+00    4.846540e+07    2.599346e-08    7.274955e-10    2.494886e-08   -2.780268e+00
    3.034161e+00    3.588306e+01    2.593877e+00    4.824094e+07    2.596524e-08    7.014240e-10    2.493533e-08   -2.775268e+00
    3.062741e+00    3.783841e+01    2.554640e+00    4.801009e+07    2.593747e-08    6.762605e-10    2.492140e-08   -2.770268e+00
    3.091610e+00    3.988759e+01    2.515636e+00    4.777308e+07    2.591012e-08    6.519795e-10    2.490709e-08   -2.765268e+00
    3.120789e+00    4.203331e+01    2.476867e+00    4.753020e+07    2.588318e-08    6.285540e-10    2.489239e-08   -2.760268e+00
    3.150285e+00    4.427807e+01    2.438340e+00    4.728160e+07    2.585664e-08    6.059590e-10    2.487729e-08   -2.755268e+00
    3.180122e+00    4.662451e+01    2.400054e+00    4.702760e+07    2.583046e-08    5.841690e-10    2.486182e-08   -2.750268e+00
    3.210311e+00    4.907515e+01    2.362016e+00    4.676838e+07    2.580464e-08    5.631580e-10    2.484595e-08   -2.745268e+00
    3.240869e+00    5.163250e+01    2.324227e+00    4.650415e+07    2.577914e-08    5.429020e-10    2.482971e-08   -2.740268e+00
    3.271812e+00    5.429903e+01    2.286692e+00    4.623514e+07    2.575395e-08    5.233765e-10    2.481309e-08   -2.735268e+00
    3.303157e+00    5.707721e+01    2.249412e+00    4.596154e+07    2.572905e-08    5.045575e-10    2.479608e-08   -2.730268e+00
    3.334924e+00    5.996952e+01    2.212391e+00    4.568358e+07    2.570442e-08    4.864218e-10    2.477870e-08   -2.725268e+00
    3.367127e+00    6.297829e+01    2.175631e+00    4.540140e+07    2.568004e-08    4.689461e-10    2.476093e-08   -2.720268e+00
    3.399782e+00    6.610594e+01    2.139136e+00    4.511517e+07    2.565588e-08    4.521080e-10    2.474277e-08   -2.715268e+00
    3.432911e+00    6.935481e+01    2.102906e+00    4.482510e+07    2.563193e-08    4.358858e-10    2.472424e-08   -2.710268e+00
    3.466531e+00    7.272730e+01    2.066946e+00    4.453134e+07    2.560816e-08    4.202579e-10    2.470532e-08   -2.705268e+00
    3.500660e+00    7.622572e+01    2.031255e+00    4.423403e+07    2.558457e-08    4.052037e-10    2.468600e-08   -2.700268e+00
    3.535319e+00    7.985244e+01    1.995839e+00    4.393334e+07    2.556112e-08    3.907028e-10    2.466629e-08   -2.695268e+00
    3.570524e+00    8.360979e+01    1.960697e+00    4.362938e+07    2.553780e-08    3.767356e-10    2.464619e-08   -2.690268e+00
    3.606298e+00    8.750012e+01    1.925832e+00    4.332233e+07    2.551458e-08    3.632828e-10    2.462568e-08   -2.685268e+00
    3.642658e+00    9.152580e+01    1.891247e+00    4.301225e+07    2.549145e-08    3.503259e-10    2.460477e-08   -2.680268e+00
    3.679632e+00    9.568921e+01    1.856941e+00    4.269935e+07    2.546839e-08    3.378469e-10    2.458344e-08   -2.675268e+00
    3.717231e+00    9.999270e+01    1.822919e+00    4.238364e+07    2.544537e-08    3.258284e-10    2.456169e-08   -2.670268e+00
    3.755484e+00    1.044387e+02    1.789179e+00    4.206529e+07    2.542238e-08    3.142532e-10    2.453952e-08   -2.665268e+00
    3.794412e+00    1.090297e+02    1.755726e+00    4.174440e+07    2.539939e-08    3.031052e-10    2.451691e-08   -2.660268e+00
    3.834037e+00    1.137681e+02    1.722560e+00    4.142105e+07    2.537638e-08    2.923685e-10    2.449386e-08   -2.655268e+00
    3.874382e+00    1.186566e+02    1.689684e+00    4.109534e+07    2.535335e-08    2.820276e-10    2.447035e-08   -2.650268e+00
    3.915473e+00    1.236977e+02    1.657096e+00    4.076734e+07    2.533026e-08    2.720679e-10    2.444639e-08   -2.645268e+00
    3.957335e+00    1.288940e+02    1.624801e+00    4.043717e+07    2.530710e-08    2.624750e-10    2.442196e-08   -2.640268e+00
    3.999989e+00    1.342482e+02    1.592798e+00    4.010484e+07    2.528383e-08    2.532351e-10    2.439705e-08   -2.635268e+00
    4.043468e+00    1.397632e+02    1.561090e+00    3.977047e+07    2.526046e-08    2.443350e-10    2.437164e-08   -2.630268e+00
    4.087797e+00    1.454417e+02    1.529676e+00    3.943413e+07    2.523694e-08    2.357617e-10    2.434573e-08   -2.625268e+00
    4.133006e+00    1.512869e+02    1.498560e+00    3.909588e+07    2.521327e-08    2.275028e-10    2.431930e-08   -2.620268e+00
    4.179119e+00    1.573015e+02    1.467741e+00    3.875576e+07    2.518942e-08    2.195466e-10    2.429234e-08   -2.615268e+00
    4.226172e+00    1.634889e+02    1.437222e+00    3.841384e+07    2.516537e-08    2.118814e-10    2.426483e-08   -2.610268e+00
    4.274191e+00    1.698521e+02    1.407002e+00    3.807016e+07    2.514109e-08    2.044962e-10    2.423678e-08   -2.605268e+00
    4.323211e+00    1.763945e+02    1.377084e+00    3.772477e+07    2.511657e-08    1.973804e-10    2.420814e-08   -2.600268e+00
    4.373269e+00    1.831198e+02    1.347468e+00    3.737775e+07    2.509179e-08    1.905235e-10    2.417891e-08   -2.595268e+00
    4.424393e+00    1.900313e+02    1.318156e+00    3.702910e+07    2.506672e-08    1.839158e-10    2.414907e-08   -2.590268e+00
    4.476623e+00    1.971328e+02    1.289148e+00    3.667887e+07    2.504134e-08    1.775479e-10    2.411859e-08   -2.585268e+00
    4.529996e+00    2.044281e+02    1.260446e+00    3.632710e+07    2.501563e-08    1.714105e-10    2.408748e-08   -2.580268e+00
    4.584550e+00    2.119213e+02    1.232050e+00    3.597382e+07    2.498956e-08    1.654949e-10    2.405570e-08   -2.575268e+00
    4.640325e+00    2.196164e+02    1.203962e+00    3.561907e+07    2.496311e-08    1.597925e-10    2.402324e-08   -2.570268e+00
    4.697360e+00    2.275178e+02    1.176183e+00    3.526287e+07    2.493626e-08    1.542953e-10    2.399007e-08   -2.565268e+00
    4.755705e+00    2.356300e+02    1.148713e+00    3.490525e+07    2.490897e-08    1.489955e-10    2.395616e-08   -2.560268e+00
    4.815397e+00    2.439574e+02    1.121554e+00    3.454620e+07    2.488123e-08    1.438856e-10    2.392151e-08   -2.555268e+00
    4.876487e+00    2.525051e+02    1.094706e+00    3.418579e+07    2.485301e-08    1.389583e-10    2.388607e-08   -2.550268e+00
    4.939027e+00    2.612781e+02    1.068171e+00    3.382403e+07    2.482429e-08    1.342067e-10    2.384983e-08   -2.545268e+00
    5.003062e+00    2.702813e+02    1.041949e+00    3.346090e+07    2.479504e-08    1.296242e-10    2.381277e-08   -2.540268e+00
    5.068639e+00    2.795200e+02    1.016042e+00    3.309641e+07    2.476522e-08    1.252043e-10    2.377485e-08   -2.535268e+00
    5.135827e+00    2.890002e+02    9.904500e-01    3.273062e+07    2.473483e-08    1.209410e-10    2.373604e-08   -2.530268e+00
    5.204670e+00    2.987274e+02    9.651745e-01    3.236348e+07    2.470381e-08    1.168282e-10    2.369633e-08   -2.525268e+00
    5.275232e+00    3.087074e+02    9.402160e-01    3.199502e+07    2.467215e-08    1.128604e-10    2.365567e-08   -2.520268e+00
    5.347572e+00    3.189467e+02    9.155760e-01    3.162524e+07    2.463982e-08    1.090320e-10    2.361403e-08   -2.515268e+00
    5.421753e+00    3.294515e+02    8.912555e-01    3.125413e+07    2.460678e-08    1.053379e-10    2.357139e-08   -2.510268e+00
    5.497843e+00    3.402283e+02    8.672550e-01    3.088168e+07    2.457301e-08    1.017730e-10    2.352771e-08   -2.505268e+00
    5.575909e+00    3.512843e+02    8.435755e-01    3.050791e+07    2.453846e-08    9.833250e-11    2.348295e-08   -2.500268e+00
    5.656024e+00    3.626262e+02    8.202180e-01    3.013279e+07    2.450312e-08    9.501180e-11    2.343708e-08   -2.495268e+00
    5.738257e+00    3.742612e+02    7.971840e-01    2.975630e+07    2.446695e-08    9.180635e-11    2.339006e-08   -2.490268e+00
    5.822689e+00    3.861969e+02    7.744740e-01    2.937844e+07    2.442991e-08    8.871190e-11    2.334186e-08   -2.485268e+00
    5.909398e+00    3.984411e+02    7.520890e-01    2.899919e+07    2.439197e-08    8.572440e-11    2.329243e-08   -2.480268e+00
    5.998462e+00    4.110013e+02    7.300305e-01    2.861851e+07    2.435309e-08    8.283985e-11    2.324174e-08   -2.475268e+00
    6.089973e+00    4.238856e+02    7.082990e-01    2.823641e+07    2.431323e-08    8.005450e-11    2.318974e-08   -2.470268e+00
    6.184017e+00    4.371025e+02    6.868955e-01    2.785283e+07    2.427237e-08    7.736465e-11    2.313639e-08   -2.465268e+00
    6.280683e+00    4.506600e+02    6.658215e-01    2.746776e+07    2.423046e-08    7.476685e-11    2.308164e-08   -2.460268e+00
    6.380071e+00    4.645669e+02    6.450775e-01    2.708117e+07    2.418745e-08    7.225770e-11    2.302545e-08   -2.455268e+00
    6.482269e+00    4.788317e+02    6.246655e-01    2.669302e+07    2.414332e-08    6.983400e-11    2.296777e-08   -2.450268e+00
    6.587387e+00    4.934630e+02    6.045855e-01    2.630327e+07    2.409801e-08    6.749270e-11    2.290855e-08   -2.445268e+00
    6.695522e+00    5.084696e+02    5.848395e-01    2.591189e+07    2.405151e-08    6.523070e-11    2.284775e-08   -2.440268e+00
    6.806787e+00    5.238605e+02    5.654280e-01    2.551883e+07    2.400374e-08    6.304520e-11    2.278531e-08   -2.435268e+00
    6.921287e+00    5.396446e+02    5.463525e-01    2.512404e+07    2.395468e-08    6.093350e-11    2.272119e-08   -2.430268e+00
    7.039143e+00    5.558299e+02    5.276135e-01    2.472750e+07    2.390428e-08    5.889285e-11    2.265532e-08   -2.425268e+00
    7.160460e+00    5.724256e+02    5.092130e-01    2.432915e+07    2.385249e-08    5.692080e-11    2.258765e-08   -2.420268e+00
    7.285357e+00    5.894398e+02    4.911521e-01    2.392894e+07    2.379927e-08    5.501485e-11    2.251814e-08   -2.415268e+00
    7.413960e+00    6.068803e+02    4.734314e-01    2.352682e+07    2.374457e-08    5.317265e-11    2.244671e-08   -2.410268e+00
    7.546387e+00    6.247552e+02    4.560524e-01    2.312275e+07    2.368834e-08    5.139200e-11    2.237332e-08   -2.405268e+00
    7.682765e+00    6.430716e+02    4.390163e-01    2.271667e+07    2.363054e-08    4.967067e-11    2.229790e-08   -2.400268e+00
    7.823216e+00    6.618363e+02    4.223243e-01    2.230855e+07    2.357112e-08    4.800661e-11    2.222039e-08   -2.395268e+00
    7.967867e+00    6.810548e+02    4.059774e-01    2.189833e+07    2.351002e-08    4.639780e-11    2.214074e-08   -2.390268e+00
    8.116841e+00    7.007324e+02    3.899769e-01    2.148598e+07    2.344720e-08    4.484231e-11    2.205887e-08   -2.385268e+00
    8.270264e+00    7.208730e+02    3.743240e-01    2.107144e+07    2.338261e-08    4.333828e-11    2.197474e-08   -2.380268e+00
    8.428259e+00    7.414794e+02    3.590197e-01    2.065469e+07    2.331619e-08    4.188393e-11    2.188826e-08   -2.375268e+00
    8.590946e+00    7.625531e+02    3.440652e-01    2.023570e+07    2.324790e-08    4.047755e-11    2.179939e-08   -2.370268e+00
    8.758440e+00    7.840938e+02    3.294616e-01    1.981444e+07    2.317768e-08    3.911747e-11    2.170805e-08   -2.365268e+00
    8.930854e+00    8.060996e+02    3.152099e-01    1.939090e+07    2.310547e-08    3.780213e-11    2.161418e-08   -2.360268e+00
    9.108292e+00    8.285663e+02    3.013110e-01    1.896508e+07    2.303124e-08    3.652997e-11    2.151771e-08   -2.355268e+00
    9.290847e+00    8.514872e+02    2.877659e-01    1.853697e+07    2.295493e-08    3.529953e-11    2.141858e-08   -2.350268e+00
    9.478609e+00    8.748532e+02    2.745753e-01    1.810662e+07    2.287647e-08    3.410940e-11    2.131672e-08   -2.345268e+00
    9.671651e+00    8.986520e+02    2.617402e-01    1.767404e+07    2.279582e-08    3.295820e-11    2.121206e-08   -2.340268e+00
    9.870030e+00    9.228679e+02    2.492610e-01    1.723929e+07    2.271294e-08    3.184464e-11    2.110455e-08   -2.335268e+00
    1.007379e+01    9.474816e+02    2.371382e-01    1.680246e+07    2.262777e-08    3.076743e-11    2.099410e-08   -2.330268e+00
    1.028295e+01    9.724697e+02    2.253722e-01    1.636363e+07    2.254026e-08    2.972538e-11    2.088067e-08   -2.325268e+00
    1.049752e+01    9.978046e+02    2.139633e-01    1.592293e+07    2.245035e-08    2.871729e-11    2.076418e-08   -2.320268e+00
    1.071746e+01    1.023453e+03    2.029114e-01    1.548052e+07    2.235800e-08    2.774205e-11    2.064458e-08   -2.315268e+00
    1.094272e+01    1.049378e+03    1.922163e-01    1.503656e+07    2.226317e-08    2.679856e-11    2.052179e-08   -2.310268e+00
    1.117321e+01    1.075536e+03    1.818775e-01    1.459129e+07    2.216581e-08    2.588577e-11    2.039576e-08   -2.305268e+00
    1.140881e+01    1.101877e+03    1.718944e-01    1.414494e+07    2.206586e-08    2.500268e-11    2.026644e-08   -2.300268e+00
    1.164934e+01    1.128345e+03    1.622660e-01    1.369782e+07    2.196330e-08    2.414832e-11    2.013376e-08   -2.295268e+00
    1.189460e+01    1.154880e+03    1.529910e-01    1.325024e+07    2.185808e-08    2.332173e-11    1.999767e-08   -2.290268e+00
    1.214432e+01    1.181412e+03    1.440678e-01    1.280258e+07    2.175016e-08    2.252202e-11    1.985812e-08   -2.285268e+00
    1.239820e+01    1.207866e+03    1.354942e-01    1.235527e+07    2.163951e-08    2.174832e-11    1.971506e-08   -2.280268e+00
    1.265586e+01    1.234160e+03    1.272680e-01    1.190874e+07    2.152609e-08    2.099978e-11    1.956846e-08   -2.275268e+00
    1.291688e+01    1.260207e+03    1.193864e-01    1.146353e+07    2.140988e-08    2.027558e-11    1.941826e-08   -2.270268e+00
    1.318077e+01    1.285909e+03    1.118459e-01    1.102016e+07    2.129084e-08    1.957496e-11    1.926444e-08   -2.265268e+00
    1.344698e+01    1.311168e+03    1.046429e-01    1.057925e+07    2.116896e-08    1.889715e-11    1.910694e-08   -2.260268e+00
    1.371489e+01    1.335878e+03    9.777305e-02    1.014142e+07    2.104422e-08    1.824141e-11    1.894576e-08   -2.255268e+00
    1.398381e+01    1.359927e+03    9.123170e-02    9.707346e+06    2.091659e-08    1.760706e-11    1.878087e-08   -2.250268e+00
    1.425300e+01    1.383203e+03    8.501355e-02    9.277736e+06    2.078609e-08    1.699341e-11    1.861224e-08   -2.245268e+00
    1.452167e+01    1.405590e+03    7.911270e-02    8.853324e+06    2.065268e-08    1.639980e-11    1.843987e-08   -2.240268e+00
    1.478893e+01    1.426972e+03    7.352285e-02    8.434867e+06    2.051640e-08    1.582559e-11    1.826375e-08   -2.235268e+00
    1.505388e+01    1.447231e+03    6.823705e-02    8.023134e+06    2.037722e-08    1.527018e-11    1.808389e-08   -2.230268e+00
    1.531556e+01    1.466257e+03    6.324795e-02    7.618908e+06    2.023516e-08    1.473298e-11    1.790029e-08   -2.225268e+00
    1.557296e+01    1.483941e+03    5.854755e-02    7.222950e+06    2.009025e-08    1.421340e-11    1.771296e-08   -2.220268e+00
    1.582506e+01    1.500181e+03    5.412750e-02    6.836029e+06    1.994250e-08    1.371091e-11    1.752193e-08   -2.215268e+00
    1.607086e+01    1.514886e+03    4.997883e-02    6.458878e+06    1.979194e-08    1.322496e-11    1.732723e-08   -2.210268e+00
    1.630933e+01    1.527972e+03    4.609229e-02    6.092194e+06    1.963862e-08    1.275504e-11    1.712890e-08   -2.205268e+00
    1.653946e+01    1.539373e+03    4.245820e-02    5.736631e+06    1.948256e-08    1.230064e-11    1.692699e-08   -2.200268e+00
    1.676027e+01    1.549033e+03    3.906655e-02    5.392784e+06    1.932383e-08    1.186129e-11    1.672155e-08   -2.195268e+00
    1.697088e+01    1.556915e+03    3.590708e-02    5.061192e+06    1.916248e-08    1.143652e-11    1.651265e-08   -2.190268e+00
    1.717042e+01    1.562998e+03    3.296929e-02    4.742308e+06    1.899857e-08    1.102587e-11    1.630036e-08   -2.185268e+00
    1.735816e+01    1.567280e+03    3.024255e-02    4.436513e+06    1.883218e-08    1.062891e-11    1.608476e-08   -2.180268e+00
    1.753346e+01    1.569781e+03    2.771616e-02    4.144103e+06    1.866338e-08    1.024521e-11    1.586596e-08   -2.175268e+00
    1.769579e+01    1.570535e+03    2.537937e-02    3.865283e+06    1.849225e-08    9.874360e-12    1.564404e-08   -2.170268e+00
    1.784478e+01    1.569599e+03    2.322153e-02    3.600165e+06    1.831892e-08    9.515965e-12    1.541913e-08   -2.165268e+00
    1.798017e+01    1.567044e+03    2.123205e-02    3.348775e+06    1.814345e-08    9.169635e-12    1.519134e-08   -2.160268e+00
    1.810188e+01    1.562963e+03    1.940054e-02    3.111049e+06    1.796597e-08    8.835000e-12    1.496080e-08   -2.155268e+00
    1.820996e+01    1.557458e+03    1.771684e-02    2.886840e+06    1.778659e-08    8.511690e-12    1.472766e-08   -2.150268e+00
    1.830464e+01    1.550650e+03    1.617107e-02    2.675921e+06    1.760544e-08    8.199365e-12    1.449205e-08   -2.145268e+00
    1.838628e+01    1.542665e+03    1.475366e-02    2.477992e+06    1.742263e-08    7.897675e-12    1.425414e-08   -2.140268e+00
    1.845541e+01    1.533642e+03    1.345542e-02    2.292692e+06    1.723832e-08    7.606295e-12    1.401409e-08   -2.135268e+00
    1.851265e+01    1.523724e+03    1.226754e-02    2.119602e+06    1.705265e-08    7.324905e-12    1.377209e-08   -2.130268e+00
