# sky130 pfet_01v8 gm/ID Processed Lookup Table
# Corner: ss
# Temperature: 0C
# W = 2.0 um
# L = 2.16 um (2160 nm)
# Columns: gm/id [1/V]  gm/gds [V/V]  id/W [A/m]  ft [Hz]  Cgg/W [F/m]  Cgd/W [F/m]  Cgs/W [F/m]  Vov [V]
#         gm/id          gm/gds            id/W              ft           Cgg/W           Cgd/W           Cgs/W             Vov
    2.385019e+00    8.678424e+00    7.621630e+00    2.313489e+08    1.250526e-08    6.466870e-10    1.162652e-08   -2.881766e+00
    2.409495e+00    9.061621e+00    7.530820e+00    2.312568e+08    1.248803e-08    6.254040e-10    1.162455e-08   -2.876766e+00
    2.434152e+00    9.466046e+00    7.440180e+00    2.311245e+08    1.247112e-08    6.047055e-10    1.162235e-08   -2.871766e+00
    2.458989e+00    9.892716e+00    7.349720e+00    2.309515e+08    1.245451e-08    5.845865e-10    1.161992e-08   -2.866766e+00
    2.484001e+00    1.034267e+01    7.259455e+00    2.307374e+08    1.243821e-08    5.650395e-10    1.161726e-08   -2.861766e+00
    2.509187e+00    1.081698e+01    7.169400e+00    2.304820e+08    1.242221e-08    5.460570e-10    1.161438e-08   -2.856766e+00
    2.534545e+00    1.131669e+01    7.079565e+00    2.301848e+08    1.240652e-08    5.276310e-10    1.161128e-08   -2.851766e+00
    2.560073e+00    1.184288e+01    6.989970e+00    2.298462e+08    1.239112e-08    5.097530e-10    1.160796e-08   -2.846766e+00
    2.585773e+00    1.239662e+01    6.900620e+00    2.294659e+08    1.237601e-08    4.924136e-10    1.160444e-08   -2.841766e+00
    2.611644e+00    1.297900e+01    6.811540e+00    2.290444e+08    1.236118e-08    4.756038e-10    1.160070e-08   -2.836766e+00
    2.637688e+00    1.359107e+01    6.722735e+00    2.285817e+08    1.234662e-08    4.593136e-10    1.159676e-08   -2.831766e+00
    2.663908e+00    1.423390e+01    6.634220e+00    2.280782e+08    1.233234e-08    4.435325e-10    1.159262e-08   -2.826766e+00
    2.690309e+00    1.490854e+01    6.546005e+00    2.275344e+08    1.231832e-08    4.282502e-10    1.158827e-08   -2.821766e+00
    2.716891e+00    1.561604e+01    6.458115e+00    2.269511e+08    1.230456e-08    4.134559e-10    1.158372e-08   -2.816766e+00
    2.743665e+00    1.635742e+01    6.370550e+00    2.263285e+08    1.229105e-08    3.991387e-10    1.157899e-08   -2.811766e+00
    2.770634e+00    1.713369e+01    6.283330e+00    2.256677e+08    1.227778e-08    3.852873e-10    1.157407e-08   -2.806766e+00
    2.797803e+00    1.794583e+01    6.196470e+00    2.249693e+08    1.226474e-08    3.718906e-10    1.156895e-08   -2.801766e+00
    2.825186e+00    1.879483e+01    6.109970e+00    2.242340e+08    1.225194e-08    3.589374e-10    1.156365e-08   -2.796766e+00
    2.852786e+00    1.968161e+01    6.023855e+00    2.234629e+08    1.223935e-08    3.464161e-10    1.155817e-08   -2.791766e+00
    2.880618e+00    2.060711e+01    5.938125e+00    2.226569e+08    1.222698e-08    3.343154e-10    1.155251e-08   -2.786766e+00
    2.908686e+00    2.157223e+01    5.852805e+00    2.218168e+08    1.221481e-08    3.226238e-10    1.154666e-08   -2.781766e+00
    2.937007e+00    2.257784e+01    5.767890e+00    2.209437e+08    1.220283e-08    3.113302e-10    1.154065e-08   -2.776766e+00
    2.965588e+00    2.362482e+01    5.683405e+00    2.200385e+08    1.219104e-08    3.004231e-10    1.153446e-08   -2.771766e+00
    2.994443e+00    2.471397e+01    5.599350e+00    2.191022e+08    1.217944e-08    2.898915e-10    1.152809e-08   -2.766766e+00
    3.023587e+00    2.584615e+01    5.515735e+00    2.181358e+08    1.216800e-08    2.797241e-10    1.152156e-08   -2.761766e+00
    3.053027e+00    2.702212e+01    5.432580e+00    2.171404e+08    1.215672e-08    2.699101e-10    1.151485e-08   -2.756766e+00
    3.082784e+00    2.824266e+01    5.349880e+00    2.161167e+08    1.214560e-08    2.604387e-10    1.150797e-08   -2.751766e+00
    3.112867e+00    2.950856e+01    5.267655e+00    2.150660e+08    1.213463e-08    2.512993e-10    1.150094e-08   -2.746766e+00
    3.143292e+00    3.082060e+01    5.185910e+00    2.139890e+08    1.212379e-08    2.424812e-10    1.149373e-08   -2.741766e+00
    3.174076e+00    3.217945e+01    5.104650e+00    2.128868e+08    1.211308e-08    2.339744e-10    1.148635e-08   -2.736766e+00
    3.205232e+00    3.358589e+01    5.023885e+00    2.117602e+08    1.210250e-08    2.257687e-10    1.147881e-08   -2.731766e+00
    3.236775e+00    3.504066e+01    4.943626e+00    2.106102e+08    1.209202e-08    2.178542e-10    1.147110e-08   -2.726766e+00
    3.268724e+00    3.654447e+01    4.863875e+00    2.094376e+08    1.208164e-08    2.102213e-10    1.146323e-08   -2.721766e+00
    3.301094e+00    3.809806e+01    4.784641e+00    2.082432e+08    1.207137e-08    2.028605e-10    1.145518e-08   -2.716766e+00
    3.333903e+00    3.970218e+01    4.705932e+00    2.070279e+08    1.206118e-08    1.957627e-10    1.144697e-08   -2.711766e+00
    3.367167e+00    4.135756e+01    4.627752e+00    2.057924e+08    1.205107e-08    1.889189e-10    1.143860e-08   -2.706766e+00
    3.400905e+00    4.306496e+01    4.550109e+00    2.045375e+08    1.204103e-08    1.823203e-10    1.143005e-08   -2.701766e+00
    3.435135e+00    4.482516e+01    4.473009e+00    2.032639e+08    1.203105e-08    1.759585e-10    1.142133e-08   -2.696766e+00
    3.469874e+00    4.663891e+01    4.396457e+00    2.019722e+08    1.202113e-08    1.698250e-10    1.141244e-08   -2.691766e+00
    3.505142e+00    4.850706e+01    4.320460e+00    2.006632e+08    1.201125e-08    1.639121e-10    1.140338e-08   -2.686766e+00
    3.540959e+00    5.043040e+01    4.245021e+00    1.993375e+08    1.200140e-08    1.582117e-10    1.139414e-08   -2.681766e+00
    3.577344e+00    5.240981e+01    4.170147e+00    1.979956e+08    1.199159e-08    1.527163e-10    1.138472e-08   -2.676766e+00
    3.614318e+00    5.444616e+01    4.095842e+00    1.966382e+08    1.198179e-08    1.474187e-10    1.137513e-08   -2.671766e+00
    3.651900e+00    5.654036e+01    4.022112e+00    1.952657e+08    1.197201e-08    1.423116e-10    1.136535e-08   -2.666766e+00
    3.690115e+00    5.869339e+01    3.948960e+00    1.938789e+08    1.196223e-08    1.373882e-10    1.135538e-08   -2.661766e+00
    3.728982e+00    6.090621e+01    3.876391e+00    1.924780e+08    1.195245e-08    1.326419e-10    1.134522e-08   -2.656766e+00
    3.768525e+00    6.317986e+01    3.804412e+00    1.910637e+08    1.194266e-08    1.280662e-10    1.133487e-08   -2.651766e+00
    3.808767e+00    6.551540e+01    3.733023e+00    1.896363e+08    1.193284e-08    1.236549e-10    1.132433e-08   -2.646766e+00
    3.849730e+00    6.791395e+01    3.662231e+00    1.881962e+08    1.192299e-08    1.194019e-10    1.131357e-08   -2.641766e+00
    3.891443e+00    7.037672e+01    3.592038e+00    1.867440e+08    1.191310e-08    1.153014e-10    1.130262e-08   -2.636766e+00
    3.933927e+00    7.290490e+01    3.522450e+00    1.852800e+08    1.190317e-08    1.113478e-10    1.129146e-08   -2.631766e+00
    3.977210e+00    7.549974e+01    3.453469e+00    1.838045e+08    1.189318e-08    1.075357e-10    1.128007e-08   -2.626766e+00
    4.021318e+00    7.816262e+01    3.385099e+00    1.823178e+08    1.188313e-08    1.038599e-10    1.126847e-08   -2.621766e+00
    4.066281e+00    8.089496e+01    3.317345e+00    1.808204e+08    1.187300e-08    1.003153e-10    1.125664e-08   -2.616766e+00
    4.112126e+00    8.369816e+01    3.250208e+00    1.793125e+08    1.186279e-08    9.689695e-11    1.124458e-08   -2.611766e+00
    4.158882e+00    8.657380e+01    3.183693e+00    1.777944e+08    1.185250e-08    9.360035e-11    1.123228e-08   -2.606766e+00
    4.206584e+00    8.952347e+01    3.117803e+00    1.762664e+08    1.184210e-08    9.042085e-11    1.121974e-08   -2.601766e+00
    4.255258e+00    9.254881e+01    3.052541e+00    1.747288e+08    1.183159e-08    8.735415e-11    1.120694e-08   -2.596766e+00
    4.304942e+00    9.565165e+01    2.987911e+00    1.731817e+08    1.182097e-08    8.439610e-11    1.119388e-08   -2.591766e+00
    4.355667e+00    9.883376e+01    2.923914e+00    1.716255e+08    1.181021e-08    8.154255e-11    1.118056e-08   -2.586766e+00
    4.407469e+00    1.020971e+02    2.860556e+00    1.700602e+08    1.179932e-08    7.878970e-11    1.116696e-08   -2.581766e+00
    4.460385e+00    1.054437e+02    2.797837e+00    1.684862e+08    1.178828e-08    7.613380e-11    1.115308e-08   -2.576766e+00
    4.514453e+00    1.088756e+02    2.735762e+00    1.669037e+08    1.177708e-08    7.357120e-11    1.113891e-08   -2.571766e+00
    4.569712e+00    1.123950e+02    2.674333e+00    1.653127e+08    1.176572e-08    7.109850e-11    1.112443e-08   -2.566766e+00
    4.626207e+00    1.160043e+02    2.613554e+00    1.637136e+08    1.175417e-08    6.871230e-11    1.110965e-08   -2.561766e+00
    4.683974e+00    1.197056e+02    2.553426e+00    1.621062e+08    1.174243e-08    6.640945e-11    1.109454e-08   -2.556766e+00
    4.743061e+00    1.235018e+02    2.493953e+00    1.604909e+08    1.173051e-08    6.418685e-11    1.107910e-08   -2.551766e+00
    4.803512e+00    1.273953e+02    2.435137e+00    1.588677e+08    1.171836e-08    6.204150e-11    1.106332e-08   -2.546766e+00
    4.865379e+00    1.313889e+02    2.376982e+00    1.572368e+08    1.170600e-08    5.997055e-11    1.104719e-08   -2.541766e+00
    4.928704e+00    1.354853e+02    2.319489e+00    1.555982e+08    1.169339e-08    5.797130e-11    1.103070e-08   -2.536766e+00
    4.993546e+00    1.396877e+02    2.262662e+00    1.539521e+08    1.168055e-08    5.604105e-11    1.101382e-08   -2.531766e+00
    5.059956e+00    1.439991e+02    2.206503e+00    1.522985e+08    1.166745e-08    5.417730e-11    1.099656e-08   -2.526766e+00
    5.127987e+00    1.484227e+02    2.151015e+00    1.506373e+08    1.165408e-08    5.237760e-11    1.097889e-08   -2.521766e+00
    5.197701e+00    1.529619e+02    2.096200e+00    1.489689e+08    1.164042e-08    5.063960e-11    1.096082e-08   -2.516766e+00
    5.269155e+00    1.576202e+02    2.042061e+00    1.472930e+08    1.162647e-08    4.896106e-11    1.094231e-08   -2.511766e+00
    5.342410e+00    1.624011e+02    1.988601e+00    1.456097e+08    1.161221e-08    4.733978e-11    1.092336e-08   -2.506766e+00
    5.417538e+00    1.673088e+02    1.935823e+00    1.439192e+08    1.159763e-08    4.577369e-11    1.090395e-08   -2.501766e+00
    5.494602e+00    1.723470e+02    1.883728e+00    1.422213e+08    1.158271e-08    4.426078e-11    1.088406e-08   -2.496766e+00
    5.573667e+00    1.775197e+02    1.832321e+00    1.405160e+08    1.156743e-08    4.279912e-11    1.086369e-08   -2.491766e+00
    5.654817e+00    1.828315e+02    1.781602e+00    1.388033e+08    1.155180e-08    4.138686e-11    1.084280e-08   -2.486766e+00
    5.738117e+00    1.882865e+02    1.731575e+00    1.370831e+08    1.153578e-08    4.002222e-11    1.082139e-08   -2.481766e+00
    5.823655e+00    1.938895e+02    1.682243e+00    1.353555e+08    1.151937e-08    3.870347e-11    1.079944e-08   -2.476766e+00
    5.911504e+00    1.996453e+02    1.633608e+00    1.336202e+08    1.150254e-08    3.742898e-11    1.077693e-08   -2.471766e+00
    6.001754e+00    2.055587e+02    1.585673e+00    1.318773e+08    1.148529e-08    3.619716e-11    1.075384e-08   -2.466766e+00
    6.094493e+00    2.116350e+02    1.538440e+00    1.301267e+08    1.146759e-08    3.500648e-11    1.073015e-08   -2.461766e+00
    6.189813e+00    2.178794e+02    1.491913e+00    1.283683e+08    1.144942e-08    3.385547e-11    1.070584e-08   -2.456766e+00
    6.287799e+00    2.242973e+02    1.446095e+00    1.266018e+08    1.143078e-08    3.274273e-11    1.068090e-08   -2.451766e+00
    6.388560e+00    2.308944e+02    1.400987e+00    1.248271e+08    1.141164e-08    3.166691e-11    1.065529e-08   -2.446766e+00
    6.492194e+00    2.376767e+02    1.356593e+00    1.230443e+08    1.139199e-08    3.062670e-11    1.062900e-08   -2.441766e+00
    6.598801e+00    2.446497e+02    1.312915e+00    1.212530e+08    1.137180e-08    2.962084e-11    1.060199e-08   -2.436766e+00
    6.708491e+00    2.518199e+02    1.269957e+00    1.194532e+08    1.135105e-08    2.864813e-11    1.057427e-08   -2.431766e+00
    6.821372e+00    2.591934e+02    1.227722e+00    1.176445e+08    1.132974e-08    2.770741e-11    1.054579e-08   -2.426766e+00
    6.937563e+00    2.667766e+02    1.186211e+00    1.158269e+08    1.130783e-08    2.679757e-11    1.051654e-08   -2.421766e+00
    7.057179e+00    2.745761e+02    1.145428e+00    1.140002e+08    1.128531e-08    2.591752e-11    1.048648e-08   -2.416766e+00
    7.180336e+00    2.825984e+02    1.105376e+00    1.121641e+08    1.126215e-08    2.506624e-11    1.045560e-08   -2.411766e+00
    7.307158e+00    2.908502e+02    1.066060e+00    1.103184e+08    1.123834e-08    2.424273e-11    1.042386e-08   -2.406766e+00
    7.437772e+00    2.993381e+02    1.027479e+00    1.084629e+08    1.121385e-08    2.344604e-11    1.039125e-08   -2.401766e+00
    7.572307e+00    3.080693e+02    9.896390e-01    1.065975e+08    1.118866e-08    2.267525e-11    1.035772e-08   -2.396766e+00
    7.710887e+00    3.170499e+02    9.525415e-01    1.047218e+08    1.116275e-08    2.192946e-11    1.032326e-08   -2.391766e+00
    7.853640e+00    3.262869e+02    9.161905e-01    1.028357e+08    1.113610e-08    2.120783e-11    1.028784e-08   -2.386766e+00
    8.000701e+00    3.357867e+02    8.805885e-01    1.009390e+08    1.110867e-08    2.050954e-11    1.025143e-08   -2.381766e+00
    8.152206e+00    3.455558e+02    8.457380e-01    9.903149e+07    1.108046e-08    1.983379e-11    1.021399e-08   -2.376766e+00
    8.308277e+00    3.556005e+02    8.116430e-01    9.711307e+07    1.105143e-08    1.917983e-11    1.017551e-08   -2.371766e+00
    8.469039e+00    3.659258e+02    7.783055e-01    9.518338e+07    1.102157e-08    1.854692e-11    1.013594e-08   -2.366766e+00
    8.634625e+00    3.765379e+02    7.457290e-01    9.324246e+07    1.099084e-08    1.793435e-11    1.009527e-08   -2.361766e+00
    8.805160e+00    3.874414e+02    7.139155e-01    9.129024e+07    1.095923e-08    1.734145e-11    1.005345e-08   -2.356766e+00
    8.980755e+00    3.986407e+02    6.828685e-01    8.932661e+07    1.092671e-08    1.676757e-11    1.001046e-08   -2.351766e+00
    9.161525e+00    4.101390e+02    6.525895e-01    8.735157e+07    1.089325e-08    1.621207e-11    9.966260e-09   -2.346766e+00
    9.347558e+00    4.219391e+02    6.230820e-01    8.536516e+07    1.085883e-08    1.567434e-11    9.920830e-09   -2.341766e+00
    9.538957e+00    4.340424e+02    5.943475e-01    8.336749e+07    1.082343e-08    1.515380e-11    9.874130e-09   -2.336766e+00
    9.735808e+00    4.464499e+02    5.663880e-01    8.135887e+07    1.078702e-08    1.464988e-11    9.826135e-09   -2.331766e+00
    9.938150e+00    4.591594e+02    5.392055e-01    7.933940e+07    1.074957e-08    1.416204e-11    9.776810e-09   -2.326766e+00
    1.014605e+01    4.721698e+02    5.128015e-01    7.730959e+07    1.071107e-08    1.368976e-11    9.726125e-09   -2.321766e+00
    1.035953e+01    4.854757e+02    4.871767e-01    7.526989e+07    1.067149e-08    1.323253e-11    9.674045e-09   -2.316766e+00
    1.057858e+01    4.990712e+02    4.623323e-01    7.322097e+07    1.063081e-08    1.278987e-11    9.620550e-09   -2.311766e+00
    1.080319e+01    5.129477e+02    4.382686e-01    7.116351e+07    1.058900e-08    1.236130e-11    9.565600e-09   -2.306766e+00
    1.103328e+01    5.270938e+02    4.149853e-01    6.909843e+07    1.054604e-08    1.194637e-11    9.509170e-09   -2.301766e+00
    1.126879e+01    5.414959e+02    3.924818e-01    6.702679e+07    1.050191e-08    1.154465e-11    9.451230e-09   -2.296766e+00
    1.150956e+01    5.561369e+02    3.707568e-01    6.494980e+07    1.045659e-08    1.115571e-11    9.391750e-09   -2.291766e+00
    1.175543e+01    5.709967e+02    3.498085e-01    6.286890e+07    1.041006e-08    1.077914e-11    9.330710e-09   -2.286766e+00
    1.200619e+01    5.860520e+02    3.296343e-01    6.078573e+07    1.036230e-08    1.041456e-11    9.268075e-09   -2.281766e+00
    1.226155e+01    6.012755e+02    3.102308e-01    5.870208e+07    1.031328e-08    1.006158e-11    9.203830e-09   -2.276766e+00
    1.252120e+01    6.166360e+02    2.915936e-01    5.661998e+07    1.026300e-08    9.719840e-12    9.137945e-09   -2.271766e+00
    1.278475e+01    6.320978e+02    2.737178e-01    5.454169e+07    1.021144e-08    9.388985e-12    9.070395e-09   -2.266766e+00
    1.305175e+01    6.476226e+02    2.565973e-01    5.246966e+07    1.015858e-08    9.068680e-12    9.001170e-09   -2.261766e+00
    1.332170e+01    6.631657e+02    2.402248e-01    5.040653e+07    1.010441e-08    8.758590e-12    8.930250e-09   -2.256766e+00
    1.359402e+01    6.786803e+02    2.245924e-01    4.835525e+07    1.004892e-08    8.458395e-12    8.857610e-09   -2.251766e+00
    1.386807e+01    6.941144e+02    2.096905e-01    4.631887e+07    9.992100e-09    8.167795e-12    8.783245e-09   -2.246766e+00
    1.414313e+01    7.094124e+02    1.955087e-01    4.430062e+07    9.933945e-09    7.886490e-12    8.707145e-09   -2.241766e+00
    1.441842e+01    7.245152e+02    1.820353e-01    4.230391e+07    9.874450e-09    7.614185e-12    8.629290e-09   -2.236766e+00
    1.469311e+01    7.393609e+02    1.692576e-01    4.033234e+07    9.813605e-09    7.350615e-12    8.549685e-09   -2.231766e+00
    1.496630e+01    7.538849e+02    1.571612e-01    3.838947e+07    9.751420e-09    7.095505e-12    8.468320e-09   -2.226766e+00
    1.523704e+01    7.680209e+02    1.457310e-01    3.647906e+07    9.687885e-09    6.848600e-12    8.385200e-09   -2.221766e+00
    1.550432e+01    7.817016e+02    1.349504e-01    3.460477e+07    9.623015e-09    6.609645e-12    8.300320e-09   -2.216766e+00
    1.576713e+01    7.948601e+02    1.248018e-01    3.277030e+07    9.556815e-09    6.378400e-12    8.213695e-09   -2.211766e+00
    1.602442e+01    8.074305e+02    1.152664e-01    3.097927e+07    9.489290e-09    6.154625e-12    8.125335e-09   -2.206766e+00
    1.627513e+01    8.193486e+02    1.063243e-01    2.923511e+07    9.420460e-09    5.938100e-12    8.035250e-09   -2.201766e+00
    1.651821e+01    8.305545e+02    9.795485e-02    2.754113e+07    9.350335e-09    5.728600e-12    7.943455e-09   -2.196766e+00
    1.675264e+01    8.409926e+02    9.013655e-02    2.590037e+07    9.278940e-09    5.525915e-12    7.849980e-09   -2.191766e+00
    1.697744e+01    8.506135e+02    8.284710e-02    2.431559e+07    9.206295e-09    5.329840e-12    7.754840e-09   -2.186766e+00
    1.719172e+01    8.593746e+02    7.606355e-02    2.278925e+07    9.132425e-09    5.140170e-12    7.658080e-09   -2.181766e+00
    1.739464e+01    8.672415e+02    6.976260e-02    2.132340e+07    9.057365e-09    4.956716e-12    7.559720e-09   -2.176766e+00
    1.758545e+01    8.741896e+02    6.392070e-02    1.991974e+07    8.981140e-09    4.779287e-12    7.459805e-09   -2.171766e+00
    1.776357e+01    8.802035e+02    5.851395e-02    1.857952e+07    8.903795e-09    4.607704e-12    7.358375e-09   -2.166766e+00
    1.792851e+01    8.852792e+02    5.351860e-02    1.730360e+07    8.825360e-09    4.441789e-12    7.255485e-09   -2.161766e+00
    1.807992e+01    8.894216e+02    4.891101e-02    1.609235e+07    8.745885e-09    4.281370e-12    7.151180e-09   -2.156766e+00
    1.821763e+01    8.926485e+02    4.466779e-02    1.494572e+07    8.665420e-09    4.126284e-12    7.045520e-09   -2.151766e+00
    1.834162e+01    8.949874e+02    4.076603e-02    1.386328e+07    8.584010e-09    3.976368e-12    6.938565e-09   -2.146766e+00
    1.845204e+01    8.964753e+02    3.718328e-02    1.284417e+07    8.501710e-09    3.831466e-12    6.830380e-09   -2.141766e+00
    1.854919e+01    8.971590e+02    3.389782e-02    1.188716e+07    8.418580e-09    3.691427e-12    6.721030e-09   -2.136766e+00
    1.863353e+01    8.970950e+02    3.088865e-02    1.099070e+07    8.334675e-09    3.556103e-12    6.610600e-09   -2.131766e+00
    1.870570e+01    8.963448e+02    2.813560e-02    1.015296e+07    8.250065e-09    3.425351e-12    6.499160e-09   -2.126766e+00
