# sky130 pfet_01v8 gm/ID Processed Lookup Table
# Corner: ss
# Temperature: 0C
# W = 2.0 um
# L = 5.22 um (5220 nm)
# Columns: gm/id [1/V]  gm/gds [V/V]  id/W [A/m]  ft [Hz]  Cgg/W [F/m]  Cgd/W [F/m]  Cgs/W [F/m]  Vov [V]
#         gm/id          gm/gds            id/W              ft           Cgg/W           Cgd/W           Cgs/W             Vov
    2.466399e+00    1.153945e+01    3.135547e+00    4.135516e+07    2.976234e-08    1.737182e-09    2.800331e-08   -2.885632e+00
    2.490947e+00    1.214146e+01    3.096926e+00    4.131767e+07    2.971528e-08    1.679569e-09    2.799908e-08   -2.880632e+00
    2.515641e+00    1.278275e+01    3.058406e+00    4.127247e+07    2.966904e-08    1.623483e-09    2.799426e-08   -2.875632e+00
    2.540477e+00    1.346573e+01    3.019990e+00    4.121950e+07    2.962363e-08    1.568915e-09    2.798887e-08   -2.870632e+00
    2.565452e+00    1.419289e+01    2.981686e+00    4.115871e+07    2.957904e-08    1.515853e-09    2.798290e-08   -2.865632e+00
    2.590567e+00    1.496681e+01    2.943499e+00    4.109017e+07    2.953527e-08    1.464286e-09    2.797636e-08   -2.860632e+00
    2.615819e+00    1.579019e+01    2.905434e+00    4.101382e+07    2.949230e-08    1.414197e-09    2.796927e-08   -2.855632e+00
    2.641212e+00    1.666579e+01    2.867500e+00    4.092980e+07    2.945013e-08    1.365568e-09    2.796162e-08   -2.850632e+00
    2.666746e+00    1.759643e+01    2.829700e+00    4.083809e+07    2.940876e-08    1.318379e-09    2.795342e-08   -2.845632e+00
    2.692425e+00    1.858506e+01    2.792041e+00    4.073885e+07    2.936816e-08    1.272612e-09    2.794470e-08   -2.840632e+00
    2.718252e+00    1.963463e+01    2.754528e+00    4.063215e+07    2.932832e-08    1.228243e-09    2.793544e-08   -2.835632e+00
    2.744231e+00    2.074821e+01    2.717167e+00    4.051812e+07    2.928923e-08    1.185249e-09    2.792566e-08   -2.830632e+00
    2.770371e+00    2.192891e+01    2.679964e+00    4.039692e+07    2.925087e-08    1.143605e-09    2.791537e-08   -2.825632e+00
    2.796677e+00    2.317988e+01    2.642924e+00    4.026869e+07    2.921324e-08    1.103284e-09    2.790457e-08   -2.820632e+00
    2.823155e+00    2.450430e+01    2.606052e+00    4.013358e+07    2.917630e-08    1.064261e-09    2.789327e-08   -2.815632e+00
    2.849819e+00    2.590545e+01    2.569352e+00    3.999180e+07    2.914004e-08    1.026508e-09    2.788149e-08   -2.810632e+00
    2.876674e+00    2.738658e+01    2.532832e+00    3.984352e+07    2.910445e-08    9.899970e-10    2.786922e-08   -2.805632e+00
    2.903731e+00    2.895099e+01    2.496493e+00    3.968892e+07    2.906950e-08    9.546990e-10    2.785647e-08   -2.800632e+00
    2.931006e+00    3.060202e+01    2.460342e+00    3.952826e+07    2.903518e-08    9.205845e-10    2.784324e-08   -2.795632e+00
    2.958503e+00    3.234296e+01    2.424381e+00    3.936165e+07    2.900146e-08    8.876245e-10    2.782956e-08   -2.790632e+00
    2.986242e+00    3.417722e+01    2.388618e+00    3.918938e+07    2.896832e-08    8.557890e-10    2.781541e-08   -2.785632e+00
    3.014231e+00    3.610810e+01    2.353053e+00    3.901159e+07    2.893574e-08    8.250485e-10    2.780080e-08   -2.780632e+00
    3.042485e+00    3.813895e+01    2.317693e+00    3.882853e+07    2.890370e-08    7.953730e-10    2.778575e-08   -2.775632e+00
    3.071019e+00    4.027313e+01    2.282539e+00    3.864036e+07    2.887219e-08    7.667330e-10    2.777025e-08   -2.770632e+00
    3.099848e+00    4.251397e+01    2.247596e+00    3.844731e+07    2.884116e-08    7.390980e-10    2.775432e-08   -2.765632e+00
    3.128982e+00    4.486480e+01    2.212868e+00    3.824955e+07    2.881060e-08    7.124390e-10    2.773794e-08   -2.760632e+00
    3.158445e+00    4.732894e+01    2.178357e+00    3.804732e+07    2.878050e-08    6.867265e-10    2.772113e-08   -2.755632e+00
    3.188243e+00    4.990965e+01    2.144067e+00    3.784073e+07    2.875082e-08    6.619315e-10    2.770388e-08   -2.750632e+00
    3.218398e+00    5.261027e+01    2.110000e+00    3.763003e+07    2.872155e-08    6.380260e-10    2.768620e-08   -2.745632e+00
    3.248924e+00    5.543399e+01    2.076160e+00    3.741535e+07    2.869265e-08    6.149815e-10    2.766810e-08   -2.740632e+00
    3.279840e+00    5.838412e+01    2.042548e+00    3.719688e+07    2.866412e-08    5.927700e-10    2.764957e-08   -2.735632e+00
    3.311157e+00    6.146380e+01    2.009168e+00    3.697474e+07    2.863591e-08    5.713645e-10    2.763061e-08   -2.730632e+00
    3.342898e+00    6.467637e+01    1.976022e+00    3.674915e+07    2.860802e-08    5.507380e-10    2.761122e-08   -2.725632e+00
    3.375080e+00    6.802495e+01    1.943113e+00    3.652025e+07    2.858041e-08    5.308650e-10    2.759140e-08   -2.720632e+00
    3.407718e+00    7.151275e+01    1.910441e+00    3.628814e+07    2.855307e-08    5.117195e-10    2.757115e-08   -2.715632e+00
    3.440830e+00    7.514283e+01    1.878011e+00    3.605296e+07    2.852597e-08    4.932765e-10    2.755047e-08   -2.710632e+00
    3.474435e+00    7.891846e+01    1.845823e+00    3.581486e+07    2.849909e-08    4.755117e-10    2.752936e-08   -2.705632e+00
    3.508552e+00    8.284273e+01    1.813880e+00    3.557397e+07    2.847241e-08    4.584012e-10    2.750781e-08   -2.700632e+00
    3.543201e+00    8.691887e+01    1.782183e+00    3.533039e+07    2.844590e-08    4.419221e-10    2.748581e-08   -2.695632e+00
    3.578400e+00    9.114992e+01    1.750734e+00    3.508424e+07    2.841953e-08    4.260517e-10    2.746337e-08   -2.690632e+00
    3.614170e+00    9.553918e+01    1.719535e+00    3.483563e+07    2.839330e-08    4.107681e-10    2.744048e-08   -2.685632e+00
    3.650531e+00    1.000897e+02    1.688587e+00    3.458468e+07    2.836717e-08    3.960503e-10    2.741713e-08   -2.680632e+00
    3.687503e+00    1.048046e+02    1.657893e+00    3.433144e+07    2.834112e-08    3.818775e-10    2.739332e-08   -2.675632e+00
    3.725106e+00    1.096872e+02    1.627453e+00    3.407601e+07    2.831513e-08    3.682298e-10    2.736904e-08   -2.670632e+00
    3.763367e+00    1.147409e+02    1.597269e+00    3.381852e+07    2.828917e-08    3.550877e-10    2.734428e-08   -2.665632e+00
    3.802304e+00    1.199685e+02    1.567342e+00    3.355899e+07    2.826323e-08    3.424327e-10    2.731902e-08   -2.660632e+00
    3.841939e+00    1.253736e+02    1.537674e+00    3.329754e+07    2.823728e-08    3.302466e-10    2.729328e-08   -2.655632e+00
    3.882296e+00    1.309594e+02    1.508266e+00    3.303420e+07    2.821129e-08    3.185118e-10    2.726704e-08   -2.650632e+00
    3.923406e+00    1.367295e+02    1.479119e+00    3.276911e+07    2.818525e-08    3.072115e-10    2.724027e-08   -2.645632e+00
    3.965283e+00    1.426869e+02    1.450234e+00    3.250224e+07    2.815913e-08    2.963293e-10    2.721297e-08   -2.640632e+00
    4.007963e+00    1.488356e+02    1.421614e+00    3.223375e+07    2.813291e-08    2.858493e-10    2.718515e-08   -2.635632e+00
    4.051466e+00    1.551789e+02    1.393258e+00    3.196362e+07    2.810656e-08    2.757565e-10    2.715676e-08   -2.630632e+00
    4.095823e+00    1.617203e+02    1.365167e+00    3.169194e+07    2.808007e-08    2.660360e-10    2.712781e-08   -2.625632e+00
    4.141058e+00    1.684638e+02    1.337343e+00    3.141874e+07    2.805339e-08    2.566738e-10    2.709828e-08   -2.620632e+00
    4.187204e+00    1.754130e+02    1.309787e+00    3.114408e+07    2.802653e-08    2.476562e-10    2.706816e-08   -2.615632e+00
    4.234292e+00    1.825720e+02    1.282500e+00    3.086803e+07    2.799945e-08    2.389700e-10    2.703743e-08   -2.610632e+00
    4.282350e+00    1.899446e+02    1.255483e+00    3.059057e+07    2.797212e-08    2.306027e-10    2.700607e-08   -2.605632e+00
    4.331410e+00    1.975349e+02    1.228736e+00    3.031178e+07    2.794452e-08    2.225418e-10    2.697406e-08   -2.600632e+00
    4.381511e+00    2.053473e+02    1.202261e+00    3.003170e+07    2.791662e-08    2.147760e-10    2.694138e-08   -2.595632e+00
    4.432686e+00    2.133862e+02    1.176059e+00    2.975037e+07    2.788841e-08    2.072937e-10    2.690803e-08   -2.590632e+00
    4.484965e+00    2.216558e+02    1.150130e+00    2.946779e+07    2.785985e-08    2.000841e-10    2.687398e-08   -2.585632e+00
    4.538387e+00    2.301607e+02    1.124477e+00    2.918397e+07    2.783093e-08    1.931368e-10    2.683920e-08   -2.580632e+00
    4.593000e+00    2.389061e+02    1.099098e+00    2.889901e+07    2.780160e-08    1.864417e-10    2.680368e-08   -2.575632e+00
    4.648835e+00    2.478965e+02    1.073995e+00    2.861289e+07    2.777185e-08    1.799893e-10    2.676738e-08   -2.570632e+00
    4.705936e+00    2.571372e+02    1.049170e+00    2.832562e+07    2.774166e-08    1.737701e-10    2.673030e-08   -2.565632e+00
    4.764345e+00    2.666333e+02    1.024622e+00    2.803723e+07    2.771098e-08    1.677752e-10    2.669239e-08   -2.560632e+00
    4.824108e+00    2.763902e+02    1.000354e+00    2.774775e+07    2.767980e-08    1.619963e-10    2.665364e-08   -2.555632e+00
    4.885273e+00    2.864136e+02    9.763645e-01    2.745719e+07    2.764808e-08    1.564249e-10    2.661402e-08   -2.550632e+00
    4.947889e+00    2.967092e+02    9.526555e-01    2.716554e+07    2.761580e-08    1.510531e-10    2.657351e-08   -2.545632e+00
    5.012004e+00    3.072829e+02    9.292280e-01    2.687285e+07    2.758292e-08    1.458734e-10    2.653206e-08   -2.540632e+00
    5.077669e+00    3.181410e+02    9.060830e-01    2.657909e+07    2.754942e-08    1.408785e-10    2.648965e-08   -2.535632e+00
    5.144943e+00    3.292897e+02    8.832205e-01    2.628430e+07    2.751526e-08    1.360613e-10    2.644625e-08   -2.530632e+00
    5.213880e+00    3.407358e+02    8.606420e-01    2.598846e+07    2.748041e-08    1.314150e-10    2.640184e-08   -2.525632e+00
    5.284538e+00    3.524856e+02    8.383480e-01    2.569157e+07    2.744485e-08    1.269334e-10    2.635636e-08   -2.520632e+00
    5.356979e+00    3.645466e+02    8.163395e-01    2.539366e+07    2.740853e-08    1.226099e-10    2.630981e-08   -2.515632e+00
    5.431268e+00    3.769255e+02    7.946170e-01    2.509470e+07    2.737142e-08    1.184389e-10    2.626211e-08   -2.510632e+00
    5.507467e+00    3.896300e+02    7.731820e-01    2.479470e+07    2.733348e-08    1.144145e-10    2.621326e-08   -2.505632e+00
    5.585649e+00    4.026677e+02    7.520345e-01    2.449363e+07    2.729470e-08    1.105311e-10    2.616320e-08   -2.500632e+00
    5.665878e+00    4.160462e+02    7.311765e-01    2.419152e+07    2.725502e-08    1.067835e-10    2.611189e-08   -2.495632e+00
    5.748238e+00    4.297737e+02    7.106075e-01    2.388834e+07    2.721440e-08    1.031668e-10    2.605930e-08   -2.490632e+00
    5.832799e+00    4.438579e+02    6.903290e-01    2.358406e+07    2.717282e-08    9.967585e-11    2.600538e-08   -2.485632e+00
    5.919642e+00    4.583080e+02    6.703420e-01    2.327869e+07    2.713023e-08    9.630610e-11    2.595009e-08   -2.480632e+00
    6.008847e+00    4.731320e+02    6.506475e-01    2.297221e+07    2.708658e-08    9.305310e-11    2.589339e-08   -2.475632e+00
    6.100501e+00    4.883387e+02    6.312460e-01    2.266460e+07    2.704185e-08    8.991240e-11    2.583522e-08   -2.470632e+00
    6.194695e+00    5.039368e+02    6.121385e-01    2.235582e+07    2.699599e-08    8.687995e-11    2.577553e-08   -2.465632e+00
    6.291512e+00    5.199354e+02    5.933265e-01    2.204586e+07    2.694895e-08    8.395175e-11    2.571429e-08   -2.460632e+00
    6.391056e+00    5.363437e+02    5.748100e-01    2.173470e+07    2.690069e-08    8.112395e-11    2.565143e-08   -2.455632e+00
    6.493426e+00    5.531706e+02    5.565900e-01    2.142231e+07    2.685116e-08    7.839295e-11    2.558691e-08   -2.450632e+00
    6.598711e+00    5.704254e+02    5.386685e-01    2.110865e+07    2.680034e-08    7.575510e-11    2.552066e-08   -2.445632e+00
    6.707024e+00    5.881175e+02    5.210455e-01    2.079370e+07    2.674816e-08    7.320710e-11    2.545264e-08   -2.440632e+00
    6.818473e+00    6.062547e+02    5.037220e-01    2.047742e+07    2.669457e-08    7.074565e-11    2.538280e-08   -2.435632e+00
    6.933161e+00    6.248474e+02    4.866996e-01    2.015978e+07    2.663953e-08    6.836765e-11    2.531106e-08   -2.430632e+00
    7.051205e+00    6.439034e+02    4.699788e-01    1.984074e+07    2.658299e-08    6.607010e-11    2.523737e-08   -2.425632e+00
    7.172720e+00    6.634315e+02    4.535607e-01    1.952026e+07    2.652491e-08    6.385010e-11    2.516168e-08   -2.420632e+00
    7.297824e+00    6.834396e+02    4.374464e-01    1.919831e+07    2.646522e-08    6.170485e-11    2.508391e-08   -2.415632e+00
    7.426635e+00    7.039354e+02    4.216370e-01    1.887484e+07    2.640387e-08    5.963170e-11    2.500400e-08   -2.410632e+00
    7.559278e+00    7.249260e+02    4.061334e-01    1.854983e+07    2.634082e-08    5.762805e-11    2.492190e-08   -2.405632e+00
    7.695873e+00    7.464175e+02    3.909366e-01    1.822322e+07    2.627601e-08    5.569150e-11    2.483753e-08   -2.400632e+00
    7.836548e+00    7.684156e+02    3.760477e-01    1.789498e+07    2.620938e-08    5.381965e-11    2.475082e-08   -2.395632e+00
    7.981426e+00    7.909246e+02    3.614678e-01    1.756508e+07    2.614088e-08    5.201025e-11    2.466173e-08   -2.390632e+00
    8.130632e+00    8.139480e+02    3.471977e-01    1.723348e+07    2.607045e-08    5.026105e-11    2.457015e-08   -2.385632e+00
    8.284287e+00    8.374876e+02    3.332388e-01    1.690014e+07    2.599804e-08    4.856995e-11    2.447604e-08   -2.380632e+00
    8.442520e+00    8.615439e+02    3.195917e-01    1.656504e+07    2.592359e-08    4.693497e-11    2.437931e-08   -2.375632e+00
    8.605445e+00    8.861150e+02    3.062575e-01    1.622816e+07    2.584704e-08    4.535414e-11    2.427991e-08   -2.370632e+00
    8.773180e+00    9.111981e+02    2.932371e-01    1.588948e+07    2.576834e-08    4.382560e-11    2.417774e-08   -2.365632e+00
    8.945832e+00    9.367866e+02    2.805316e-01    1.554899e+07    2.568742e-08    4.234752e-11    2.407275e-08   -2.360632e+00
    9.123508e+00    9.628722e+02    2.681415e-01    1.520668e+07    2.560423e-08    4.091818e-11    2.396485e-08   -2.355632e+00
    9.306299e+00    9.894433e+02    2.560679e-01    1.486256e+07    2.551871e-08    3.953591e-11    2.385399e-08   -2.350632e+00
    9.494293e+00    1.016485e+03    2.443113e-01    1.451664e+07    2.543080e-08    3.819911e-11    2.374007e-08   -2.345632e+00
    9.687561e+00    1.043979e+03    2.328725e-01    1.416897e+07    2.534045e-08    3.690622e-11    2.362303e-08   -2.340632e+00
    9.886161e+00    1.071902e+03    2.217518e-01    1.381958e+07    2.524760e-08    3.565576e-11    2.350279e-08   -2.335632e+00
    1.009013e+01    1.100227e+03    2.109498e-01    1.346854e+07    2.515218e-08    3.444630e-11    2.337929e-08   -2.330632e+00
    1.029950e+01    1.128923e+03    2.004668e-01    1.311592e+07    2.505415e-08    3.327646e-11    2.325245e-08   -2.325632e+00
    1.051425e+01    1.157951e+03    1.903028e-01    1.276182e+07    2.495345e-08    3.214491e-11    2.312219e-08   -2.320632e+00
    1.073436e+01    1.187270e+03    1.804578e-01    1.240638e+07    2.485003e-08    3.105036e-11    2.298846e-08   -2.315632e+00
    1.095977e+01    1.216828e+03    1.709317e-01    1.204973e+07    2.474383e-08    2.999160e-11    2.285118e-08   -2.310632e+00
    1.119039e+01    1.246572e+03    1.617239e-01    1.169205e+07    2.463479e-08    2.896742e-11    2.271028e-08   -2.305632e+00
    1.142609e+01    1.276439e+03    1.528338e-01    1.133355e+07    2.452289e-08    2.797669e-11    2.256570e-08   -2.300632e+00
    1.166670e+01    1.306360e+03    1.442606e-01    1.097445e+07    2.440806e-08    2.701831e-11    2.241738e-08   -2.295632e+00
    1.191200e+01    1.336257e+03    1.360030e-01    1.061503e+07    2.429026e-08    2.609120e-11    2.226525e-08   -2.290632e+00
    1.216173e+01    1.366046e+03    1.280594e-01    1.025558e+07    2.416945e-08    2.519436e-11    2.210928e-08   -2.285632e+00
    1.241558e+01    1.395638e+03    1.204280e-01    9.896448e+06    2.404559e-08    2.432679e-11    2.194939e-08   -2.280632e+00
    1.267317e+01    1.424933e+03    1.131068e-01    9.538000e+06    2.391865e-08    2.348753e-11    2.178554e-08   -2.275632e+00
    1.293407e+01    1.453824e+03    1.060929e-01    9.180642e+06    2.378859e-08    2.267568e-11    2.161768e-08   -2.270632e+00
    1.319779e+01    1.482201e+03    9.938355e-02    8.824822e+06    2.365537e-08    2.189034e-11    2.144578e-08   -2.265632e+00
    1.346376e+01    1.509945e+03    9.297530e-02    8.471015e+06    2.351900e-08    2.113066e-11    2.126980e-08   -2.260632e+00
    1.373139e+01    1.536935e+03    8.686425e-02    8.119733e+06    2.337943e-08    2.039582e-11    2.108970e-08   -2.255632e+00
    1.399996e+01    1.563040e+03    8.104610e-02    7.771515e+06    2.323665e-08    1.968502e-11    2.090547e-08   -2.250632e+00
    1.426874e+01    1.588134e+03    7.551615e-02    7.426932e+06    2.309066e-08    1.899749e-11    2.071708e-08   -2.245632e+00
    1.453692e+01    1.612086e+03    7.026910e-02    7.086574e+06    2.294144e-08    1.833249e-11    2.052453e-08   -2.240632e+00
    1.480364e+01    1.634765e+03    6.529920e-02    6.751050e+06    2.278900e-08    1.768930e-11    2.032779e-08   -2.235632e+00
    1.506798e+01    1.656044e+03    6.060025e-02    6.420973e+06    2.263335e-08    1.706725e-11    2.012690e-08   -2.230632e+00
    1.532896e+01    1.675801e+03    5.616565e-02    6.096965e+06    2.247450e-08    1.646564e-11    1.992184e-08   -2.225632e+00
    1.558561e+01    1.693920e+03    5.198820e-02    5.779648e+06    2.231246e-08    1.588385e-11    1.971264e-08   -2.220632e+00
    1.583691e+01    1.710295e+03    4.806038e-02    5.469626e+06    2.214727e-08    1.532124e-11    1.949932e-08   -2.215632e+00
    1.608183e+01    1.724831e+03    4.437421e-02    5.167485e+06    2.197896e-08    1.477721e-11    1.928192e-08   -2.210632e+00
    1.631935e+01    1.737447e+03    4.092136e-02    4.873779e+06    2.180757e-08    1.425118e-11    1.906049e-08   -2.205632e+00
    1.654849e+01    1.748079e+03    3.769317e-02    4.589037e+06    2.163314e-08    1.374259e-11    1.883507e-08   -2.200632e+00
    1.676827e+01    1.756679e+03    3.468069e-02    4.313726e+06    2.145573e-08    1.325089e-11    1.860573e-08   -2.195632e+00
    1.697779e+01    1.763221e+03    3.187472e-02    4.048271e+06    2.127543e-08    1.277555e-11    1.837255e-08   -2.190632e+00
    1.717623e+01    1.767695e+03    2.926592e-02    3.793033e+06    2.109227e-08    1.231606e-11    1.813561e-08   -2.185632e+00
    1.736285e+01    1.770119e+03    2.684477e-02    3.548316e+06    2.090637e-08    1.187194e-11    1.789500e-08   -2.180632e+00
    1.753703e+01    1.770527e+03    2.460171e-02    3.314346e+06    2.071779e-08    1.144269e-11    1.765083e-08   -2.175632e+00
    1.769824e+01    1.768976e+03    2.252717e-02    3.091284e+06    2.052664e-08    1.102786e-11    1.740321e-08   -2.170632e+00
    1.784612e+01    1.765546e+03    2.061163e-02    2.879216e+06    2.033303e-08    1.062699e-11    1.715227e-08   -2.165632e+00
    1.798043e+01    1.760333e+03    1.884568e-02    2.678156e+06    2.013706e-08    1.023966e-11    1.689813e-08   -2.160632e+00
    1.810109e+01    1.753453e+03    1.722004e-02    2.488048e+06    1.993887e-08    9.865440e-12    1.664096e-08   -2.155632e+00
    1.820820e+01    1.745037e+03    1.572568e-02    2.308771e+06    1.973857e-08    9.503925e-12    1.638090e-08   -2.150632e+00
    1.830194e+01    1.735229e+03    1.435380e-02    2.140136e+06    1.953631e-08    9.154720e-12    1.611813e-08   -2.145632e+00
    1.838273e+01    1.724183e+03    1.309587e-02    1.981904e+06    1.933224e-08    8.817440e-12    1.585281e-08   -2.140632e+00
    1.845108e+01    1.712061e+03    1.194375e-02    1.833778e+06    1.912651e-08    8.491715e-12    1.558514e-08   -2.135632e+00
    1.850763e+01    1.699032e+03    1.088958e-02    1.695422e+06    1.891927e-08    8.177180e-12    1.531529e-08   -2.130632e+00
