# sky130 pfet_01v8 gm/ID Processed Lookup Table
# Corner: ss
# Temperature: 0C
# W = 2.0 um
# L = 4.86 um (4860 nm)
# Columns: gm/id [1/V]  gm/gds [V/V]  id/W [A/m]  ft [Hz]  Cgg/W [F/m]  Cgd/W [F/m]  Cgs/W [F/m]  Vov [V]
#         gm/id          gm/gds            id/W              ft           Cgg/W           Cgd/W           Cgs/W             Vov
    2.460402e+00    1.127260e+01    3.373305e+00    4.762761e+07    2.773466e-08    1.598256e-09    2.608931e-08   -2.885398e+00
    2.484979e+00    1.185399e+01    3.331856e+00    4.758657e+07    2.769138e-08    1.545260e-09    2.608530e-08   -2.880398e+00
    2.509702e+00    1.247286e+01    3.290511e+00    4.753664e+07    2.764885e-08    1.493677e-09    2.608076e-08   -2.875398e+00
    2.534570e+00    1.313148e+01    3.249275e+00    4.747777e+07    2.760709e-08    1.443496e-09    2.607567e-08   -2.870398e+00
    2.559578e+00    1.383219e+01    3.208157e+00    4.740992e+07    2.756608e-08    1.394708e-09    2.607005e-08   -2.865398e+00
    2.584728e+00    1.457739e+01    3.167162e+00    4.733311e+07    2.752583e-08    1.347297e-09    2.606390e-08   -2.860398e+00
    2.610018e+00    1.536957e+01    3.126297e+00    4.724733e+07    2.748631e-08    1.301250e-09    2.605723e-08   -2.855398e+00
    2.635448e+00    1.621130e+01    3.085568e+00    4.715267e+07    2.744754e-08    1.256550e-09    2.605005e-08   -2.850398e+00
    2.661020e+00    1.710519e+01    3.044981e+00    4.704916e+07    2.740949e-08    1.213177e-09    2.604238e-08   -2.845398e+00
    2.686737e+00    1.805394e+01    3.004543e+00    4.693693e+07    2.737215e-08    1.171114e-09    2.603419e-08   -2.840398e+00
    2.712604e+00    1.906031e+01    2.964259e+00    4.681612e+07    2.733552e-08    1.130338e-09    2.602553e-08   -2.835398e+00
    2.738623e+00    2.012705e+01    2.924136e+00    4.668680e+07    2.729957e-08    1.090829e-09    2.601638e-08   -2.830398e+00
    2.764802e+00    2.125703e+01    2.884180e+00    4.654919e+07    2.726429e-08    1.052561e-09    2.600675e-08   -2.825398e+00
    2.791148e+00    2.245312e+01    2.844396e+00    4.640348e+07    2.722968e-08    1.015512e-09    2.599666e-08   -2.820398e+00
    2.817667e+00    2.371820e+01    2.804790e+00    4.624980e+07    2.719571e-08    9.796565e-10    2.598610e-08   -2.815398e+00
    2.844368e+00    2.505520e+01    2.765368e+00    4.608838e+07    2.716236e-08    9.449685e-10    2.597509e-08   -2.810398e+00
    2.871261e+00    2.646705e+01    2.726135e+00    4.591943e+07    2.712962e-08    9.114220e-10    2.596363e-08   -2.805398e+00
    2.898359e+00    2.795674e+01    2.687095e+00    4.574321e+07    2.709747e-08    8.789905e-10    2.595173e-08   -2.800398e+00
    2.925667e+00    2.952717e+01    2.648254e+00    4.555987e+07    2.706589e-08    8.476465e-10    2.593939e-08   -2.795398e+00
    2.953203e+00    3.118135e+01    2.609618e+00    4.536973e+07    2.703486e-08    8.173635e-10    2.592661e-08   -2.790398e+00
    2.980974e+00    3.292218e+01    2.571188e+00    4.517293e+07    2.700436e-08    7.881135e-10    2.591342e-08   -2.785398e+00
    3.008996e+00    3.475265e+01    2.532973e+00    4.496979e+07    2.697438e-08    7.598685e-10    2.589980e-08   -2.780398e+00
    3.037283e+00    3.667566e+01    2.494973e+00    4.476050e+07    2.694489e-08    7.326020e-10    2.588576e-08   -2.775398e+00
    3.065848e+00    3.869414e+01    2.457194e+00    4.454531e+07    2.691587e-08    7.062855e-10    2.587131e-08   -2.770398e+00
    3.094704e+00    4.081094e+01    2.419641e+00    4.432440e+07    2.688730e-08    6.808920e-10    2.585646e-08   -2.765398e+00
    3.123869e+00    4.302898e+01    2.382315e+00    4.409807e+07    2.685917e-08    6.563945e-10    2.584119e-08   -2.760398e+00
    3.153355e+00    4.535106e+01    2.345221e+00    4.386649e+07    2.683144e-08    6.327655e-10    2.582552e-08   -2.755398e+00
    3.183178e+00    4.777999e+01    2.308363e+00    4.362988e+07    2.680410e-08    6.099790e-10    2.580946e-08   -2.750398e+00
    3.213356e+00    5.031861e+01    2.271743e+00    4.338847e+07    2.677713e-08    5.880080e-10    2.579299e-08   -2.745398e+00
    3.243905e+00    5.296967e+01    2.235365e+00    4.314244e+07    2.675050e-08    5.668275e-10    2.577613e-08   -2.740398e+00
    3.274838e+00    5.573587e+01    2.199231e+00    4.289198e+07    2.672420e-08    5.464110e-10    2.575887e-08   -2.735398e+00
    3.306175e+00    5.861994e+01    2.163345e+00    4.263729e+07    2.669820e-08    5.267345e-10    2.574121e-08   -2.730398e+00
    3.337932e+00    6.162457e+01    2.127708e+00    4.237856e+07    2.667249e-08    5.077725e-10    2.572316e-08   -2.725398e+00
    3.370127e+00    6.475241e+01    2.092324e+00    4.211593e+07    2.664703e-08    4.895017e-10    2.570470e-08   -2.720398e+00
    3.402777e+00    6.800618e+01    2.057195e+00    4.184961e+07    2.662181e-08    4.718984e-10    2.568586e-08   -2.715398e+00
    3.435901e+00    7.138843e+01    2.022323e+00    4.157971e+07    2.659682e-08    4.549396e-10    2.566661e-08   -2.710398e+00
    3.469517e+00    7.490183e+01    1.987711e+00    4.130643e+07    2.657202e-08    4.386029e-10    2.564696e-08   -2.705398e+00
    3.503643e+00    7.854894e+01    1.953359e+00    4.102988e+07    2.654740e-08    4.228667e-10    2.562690e-08   -2.700398e+00
    3.538297e+00    8.233237e+01    1.919272e+00    4.075018e+07    2.652293e-08    4.077096e-10    2.560643e-08   -2.695398e+00
    3.573501e+00    8.625480e+01    1.885451e+00    4.046749e+07    2.649860e-08    3.931111e-10    2.558554e-08   -2.690398e+00
    3.609274e+00    9.031871e+01    1.851896e+00    4.018193e+07    2.647438e-08    3.790510e-10    2.556424e-08   -2.685398e+00
    3.645637e+00    9.452685e+01    1.818611e+00    3.989363e+07    2.645025e-08    3.655100e-10    2.554251e-08   -2.680398e+00
    3.682606e+00    9.888173e+01    1.785597e+00    3.960264e+07    2.642620e-08    3.524691e-10    2.552036e-08   -2.675398e+00
    3.720211e+00    1.033862e+02    1.752855e+00    3.930916e+07    2.640219e-08    3.399100e-10    2.549776e-08   -2.670398e+00
    3.758464e+00    1.080426e+02    1.720388e+00    3.901319e+07    2.637821e-08    3.278151e-10    2.547472e-08   -2.665398e+00
    3.797395e+00    1.128539e+02    1.688195e+00    3.871490e+07    2.635424e-08    3.161670e-10    2.545123e-08   -2.660398e+00
    3.837022e+00    1.178228e+02    1.656281e+00    3.841433e+07    2.633026e-08    3.049494e-10    2.542729e-08   -2.655398e+00
    3.877373e+00    1.229521e+02    1.624644e+00    3.811160e+07    2.630623e-08    2.941460e-10    2.540287e-08   -2.650398e+00
    3.918470e+00    1.282445e+02    1.593288e+00    3.780678e+07    2.628217e-08    2.837415e-10    2.537798e-08   -2.645398e+00
    3.960336e+00    1.337030e+02    1.562212e+00    3.749991e+07    2.625802e-08    2.737207e-10    2.535258e-08   -2.640398e+00
    4.003003e+00    1.393307e+02    1.531419e+00    3.719113e+07    2.623377e-08    2.640694e-10    2.532670e-08   -2.635398e+00
    4.046490e+00    1.451304e+02    1.500910e+00    3.688043e+07    2.620941e-08    2.547735e-10    2.530030e-08   -2.630398e+00
    4.090828e+00    1.511052e+02    1.470685e+00    3.656792e+07    2.618490e-08    2.458195e-10    2.527338e-08   -2.625398e+00
    4.136045e+00    1.572585e+02    1.440747e+00    3.625364e+07    2.616022e-08    2.371945e-10    2.524592e-08   -2.620398e+00
    4.182173e+00    1.635934e+02    1.411096e+00    3.593766e+07    2.613537e-08    2.288859e-10    2.521791e-08   -2.615398e+00
    4.229236e+00    1.701133e+02    1.381733e+00    3.562002e+07    2.611031e-08    2.208819e-10    2.518932e-08   -2.610398e+00
    4.277270e+00    1.768216e+02    1.352660e+00    3.530077e+07    2.608502e-08    2.131706e-10    2.516016e-08   -2.605398e+00
    4.326302e+00    1.837219e+02    1.323877e+00    3.497992e+07    2.605948e-08    2.057412e-10    2.513040e-08   -2.600398e+00
    4.376376e+00    1.908182e+02    1.295385e+00    3.465759e+07    2.603365e-08    1.985826e-10    2.510002e-08   -2.595398e+00
    4.427517e+00    1.981139e+02    1.267186e+00    3.433375e+07    2.600754e-08    1.916846e-10    2.506901e-08   -2.590398e+00
    4.479766e+00    2.056133e+02    1.239280e+00    3.400849e+07    2.598110e-08    1.850372e-10    2.503735e-08   -2.585398e+00
    4.533156e+00    2.133203e+02    1.211669e+00    3.368179e+07    2.595432e-08    1.786309e-10    2.500502e-08   -2.580398e+00
    4.587731e+00    2.212391e+02    1.184354e+00    3.335373e+07    2.592717e-08    1.724565e-10    2.497198e-08   -2.575398e+00
    4.643528e+00    2.293743e+02    1.157334e+00    3.302431e+07    2.589962e-08    1.665051e-10    2.493825e-08   -2.570398e+00
    4.700587e+00    2.377303e+02    1.130613e+00    3.269355e+07    2.587165e-08    1.607682e-10    2.490377e-08   -2.565398e+00
    4.758952e+00    2.463116e+02    1.104189e+00    3.236147e+07    2.584324e-08    1.552376e-10    2.486853e-08   -2.560398e+00
    4.818673e+00    2.551236e+02    1.078066e+00    3.202813e+07    2.581435e-08    1.499055e-10    2.483251e-08   -2.555398e+00
    4.879788e+00    2.641707e+02    1.052242e+00    3.169347e+07    2.578497e-08    1.447643e-10    2.479568e-08   -2.550398e+00
    4.942353e+00    2.734587e+02    1.026719e+00    3.135759e+07    2.575506e-08    1.398068e-10    2.475802e-08   -2.545398e+00
    5.006418e+00    2.829930e+02    1.001498e+00    3.102048e+07    2.572460e-08    1.350260e-10    2.471949e-08   -2.540398e+00
    5.072029e+00    2.927788e+02    9.765795e-01    3.068211e+07    2.569356e-08    1.304151e-10    2.468008e-08   -2.535398e+00
    5.139245e+00    3.028223e+02    9.519655e-01    3.034253e+07    2.566191e-08    1.259677e-10    2.463974e-08   -2.530398e+00
    5.208122e+00    3.131294e+02    9.276560e-01    3.000173e+07    2.562961e-08    1.216778e-10    2.459846e-08   -2.525398e+00
    5.278716e+00    3.237063e+02    9.036525e-01    2.965970e+07    2.559665e-08    1.175393e-10    2.455619e-08   -2.520398e+00
    5.351094e+00    3.345595e+02    8.799550e-01    2.931646e+07    2.556299e-08    1.135465e-10    2.451291e-08   -2.515398e+00
    5.425313e+00    3.456956e+02    8.565655e-01    2.897201e+07    2.552859e-08    1.096940e-10    2.446859e-08   -2.510398e+00
    5.501443e+00    3.571215e+02    8.334840e-01    2.862633e+07    2.549344e-08    1.059764e-10    2.442318e-08   -2.505398e+00
    5.579550e+00    3.688442e+02    8.107120e-01    2.827942e+07    2.545748e-08    1.023888e-10    2.437665e-08   -2.500398e+00
    5.659704e+00    3.808712e+02    7.882505e-01    2.793128e+07    2.542069e-08    9.892625e-11    2.432898e-08   -2.495398e+00
    5.741985e+00    3.932099e+02    7.660995e-01    2.758188e+07    2.538304e-08    9.558415e-11    2.428010e-08   -2.490398e+00
    5.826460e+00    4.058678e+02    7.442615e-01    2.723122e+07    2.534448e-08    9.235800e-11    2.422999e-08   -2.485398e+00
    5.913216e+00    4.188531e+02    7.227360e-01    2.687926e+07    2.530499e-08    8.924350e-11    2.417861e-08   -2.480398e+00
    6.002334e+00    4.321739e+02    7.015245e-01    2.652601e+07    2.526453e-08    8.623650e-11    2.412591e-08   -2.475398e+00
    6.093894e+00    4.458383e+02    6.806285e-01    2.617144e+07    2.522305e-08    8.333305e-11    2.407185e-08   -2.470398e+00
    6.187993e+00    4.598545e+02    6.600480e-01    2.581552e+07    2.518051e-08    8.052935e-11    2.401639e-08   -2.465398e+00
    6.284713e+00    4.742316e+02    6.397850e-01    2.545822e+07    2.513689e-08    7.782175e-11    2.395948e-08   -2.460398e+00
    6.384153e+00    4.889782e+02    6.198400e-01    2.509952e+07    2.509214e-08    7.520675e-11    2.390106e-08   -2.455398e+00
    6.486412e+00    5.041030e+02    6.002140e-01    2.473938e+07    2.504621e-08    7.268090e-11    2.384110e-08   -2.450398e+00
    6.591590e+00    5.196146e+02    5.809080e-01    2.437777e+07    2.499906e-08    7.024100e-11    2.377955e-08   -2.445398e+00
    6.699793e+00    5.355224e+02    5.619230e-01    2.401465e+07    2.495066e-08    6.788395e-11    2.371633e-08   -2.440398e+00
    6.811122e+00    5.518354e+02    5.432605e-01    2.364999e+07    2.490096e-08    6.560675e-11    2.365143e-08   -2.435398e+00
    6.925687e+00    5.685620e+02    5.249215e-01    2.328373e+07    2.484991e-08    6.340650e-11    2.358477e-08   -2.430398e+00
    7.043610e+00    5.857107e+02    5.069065e-01    2.291586e+07    2.479745e-08    6.128050e-11    2.351629e-08   -2.425398e+00
    7.164996e+00    6.032907e+02    4.892172e-01    2.254631e+07    2.474357e-08    5.922600e-11    2.344594e-08   -2.420398e+00
    7.289969e+00    6.213104e+02    4.718545e-01    2.217505e+07    2.468819e-08    5.724050e-11    2.337368e-08   -2.415398e+00
    7.418645e+00    6.397769e+02    4.548196e-01    2.180203e+07    2.463127e-08    5.532155e-11    2.329942e-08   -2.410398e+00
    7.551150e+00    6.586985e+02    4.381135e-01    2.142721e+07    2.457277e-08    5.346675e-11    2.322313e-08   -2.405398e+00
    7.687606e+00    6.780823e+02    4.217373e-01    2.105054e+07    2.451264e-08    5.167385e-11    2.314473e-08   -2.400398e+00
    7.828136e+00    6.979339e+02    4.056923e-01    2.067198e+07    2.445081e-08    4.994072e-11    2.306416e-08   -2.395398e+00
    7.972867e+00    7.182591e+02    3.899796e-01    2.029148e+07    2.438725e-08    4.826520e-11    2.298135e-08   -2.390398e+00
    8.121925e+00    7.390625e+02    3.746001e-01    1.990901e+07    2.432189e-08    4.664529e-11    2.289625e-08   -2.385398e+00
    8.275431e+00    7.603474e+02    3.595552e-01    1.952453e+07    2.425469e-08    4.507907e-11    2.280879e-08   -2.380398e+00
    8.433510e+00    7.821160e+02    3.448458e-01    1.913800e+07    2.418560e-08    4.356467e-11    2.271890e-08   -2.375398e+00
    8.596281e+00    8.043686e+02    3.304729e-01    1.874940e+07    2.411455e-08    4.210027e-11    2.262651e-08   -2.370398e+00
    8.763861e+00    8.271042e+02    3.164377e-01    1.835871e+07    2.404150e-08    4.068417e-11    2.253156e-08   -2.365398e+00
    8.936360e+00    8.503195e+02    3.027411e-01    1.796592e+07    2.396640e-08    3.931471e-11    2.243399e-08   -2.360398e+00
    9.113881e+00    8.740089e+02    2.893840e-01    1.757101e+07    2.388918e-08    3.799028e-11    2.233371e-08   -2.355398e+00
    9.296521e+00    8.981644e+02    2.763673e-01    1.717401e+07    2.380979e-08    3.670934e-11    2.223066e-08   -2.350398e+00
    9.484367e+00    9.227746e+02    2.636916e-01    1.677492e+07    2.372818e-08    3.547043e-11    2.212478e-08   -2.345398e+00
    9.677490e+00    9.478257e+02    2.513580e-01    1.637378e+07    2.364431e-08    3.427211e-11    2.201600e-08   -2.340398e+00
    9.875946e+00    9.732992e+02    2.393667e-01    1.597064e+07    2.355809e-08    3.311301e-11    2.190424e-08   -2.335398e+00
    1.007978e+01    9.991738e+02    2.277184e-01    1.556558e+07    2.346951e-08    3.199182e-11    2.178945e-08   -2.330398e+00
    1.028901e+01    1.025423e+03    2.164133e-01    1.515868e+07    2.337849e-08    3.090726e-11    2.167154e-08   -2.325398e+00
    1.050365e+01    1.052016e+03    2.054516e-01    1.475006e+07    2.328499e-08    2.985810e-11    2.155046e-08   -2.320398e+00
    1.072365e+01    1.078917e+03    1.948334e-01    1.433986e+07    2.318895e-08    2.884317e-11    2.142614e-08   -2.315398e+00
    1.094896e+01    1.106084e+03    1.845583e-01    1.392825e+07    2.309032e-08    2.786133e-11    2.129852e-08   -2.310398e+00
    1.117950e+01    1.133470e+03    1.746260e-01    1.351543e+07    2.298906e-08    2.691149e-11    2.116753e-08   -2.305398e+00
    1.141513e+01    1.161021e+03    1.650357e-01    1.310163e+07    2.288513e-08    2.599259e-11    2.103313e-08   -2.300398e+00
    1.165569e+01    1.188677e+03    1.557865e-01    1.268712e+07    2.277848e-08    2.510362e-11    2.089523e-08   -2.295398e+00
    1.190096e+01    1.216372e+03    1.468772e-01    1.227221e+07    2.266907e-08    2.424360e-11    2.075380e-08   -2.290398e+00
    1.215069e+01    1.244031e+03    1.383062e-01    1.185725e+07    2.255685e-08    2.341157e-11    2.060878e-08   -2.285398e+00
    1.240455e+01    1.271573e+03    1.300714e-01    1.144261e+07    2.244180e-08    2.260663e-11    2.046010e-08   -2.280398e+00
    1.266218e+01    1.298913e+03    1.221706e-01    1.102874e+07    2.232387e-08    2.182791e-11    2.030775e-08   -2.275398e+00
    1.292316e+01    1.325954e+03    1.146009e-01    1.061609e+07    2.220303e-08    2.107455e-11    2.015167e-08   -2.270398e+00
    1.318699e+01    1.352596e+03    1.073594e-01    1.020518e+07    2.207928e-08    2.034574e-11    1.999181e-08   -2.265398e+00
    1.345312e+01    1.378734e+03    1.004421e-01    9.796566e+06    2.195256e-08    1.964069e-11    1.982816e-08   -2.260398e+00
    1.372092e+01    1.404255e+03    9.384530e-02    9.390826e+06    2.182287e-08    1.895863e-11    1.966066e-08   -2.255398e+00
    1.398972e+01    1.429042e+03    8.756410e-02    8.988591e+06    2.169020e-08    1.829884e-11    1.948933e-08   -2.250398e+00
    1.425876e+01    1.452977e+03    8.159355e-02    8.590515e+06    2.155453e-08    1.766060e-11    1.931411e-08   -2.245398e+00
    1.452726e+01    1.475940e+03    7.592790e-02    8.197276e+06    2.141586e-08    1.704323e-11    1.913501e-08   -2.240398e+00
    1.479432e+01    1.497808e+03    7.056115e-02    7.809582e+06    2.127419e-08    1.644608e-11    1.895202e-08   -2.235398e+00
    1.505903e+01    1.518463e+03    6.548660e-02    7.428144e+06    2.112951e-08    1.586849e-11    1.876514e-08   -2.230398e+00
    1.532046e+01    1.537786e+03    6.069705e-02    7.053680e+06    2.098186e-08    1.530985e-11    1.857439e-08   -2.225398e+00
    1.557759e+01    1.555669e+03    5.618490e-02    6.686904e+06    2.083124e-08    1.476956e-11    1.837977e-08   -2.220398e+00
    1.582942e+01    1.572007e+03    5.194200e-02    6.328519e+06    2.067767e-08    1.424706e-11    1.818131e-08   -2.215398e+00
    1.607490e+01    1.586706e+03    4.795985e-02    5.979210e+06    2.052119e-08    1.374178e-11    1.797903e-08   -2.210398e+00
    1.631303e+01    1.599685e+03    4.422946e-02    5.639614e+06    2.036184e-08    1.325318e-11    1.777301e-08   -2.205398e+00
    1.654279e+01    1.610876e+03    4.074153e-02    5.310337e+06    2.019966e-08    1.278075e-11    1.756326e-08   -2.200398e+00
    1.676323e+01    1.620227e+03    3.748642e-02    4.991934e+06    2.003470e-08    1.232398e-11    1.734985e-08   -2.195398e+00
    1.697345e+01    1.627703e+03    3.445426e-02    4.684898e+06    1.986703e-08    1.188238e-11    1.713285e-08   -2.190398e+00
    1.717259e+01    1.633288e+03    3.163495e-02    4.389646e+06    1.969671e-08    1.145548e-11    1.691234e-08   -2.185398e+00
    1.735993e+01    1.636986e+03    2.901829e-02    4.106534e+06    1.952381e-08    1.104281e-11    1.668841e-08   -2.180398e+00
    1.753482e+01    1.638821e+03    2.659396e-02    3.835828e+06    1.934841e-08    1.064395e-11    1.646114e-08   -2.175398e+00
    1.769675e+01    1.638834e+03    2.435166e-02    3.577718e+06    1.917061e-08    1.025846e-11    1.623066e-08   -2.170398e+00
    1.784533e+01    1.637090e+03    2.228111e-02    3.332305e+06    1.899051e-08    9.885925e-12    1.599706e-08   -2.165398e+00
    1.798034e+01    1.633670e+03    2.037215e-02    3.099612e+06    1.880822e-08    9.525950e-12    1.576049e-08   -2.160398e+00
    1.810167e+01    1.628672e+03    1.861482e-02    2.879578e+06    1.862382e-08    9.178135e-12    1.552107e-08   -2.155398e+00
    1.820939e+01    1.622209e+03    1.699935e-02    2.672062e+06    1.843748e-08    8.842110e-12    1.527895e-08   -2.150398e+00
    1.830374e+01    1.614409e+03    1.551623e-02    2.476854e+06    1.824929e-08    8.517505e-12    1.503428e-08   -2.145398e+00
    1.838507e+01    1.605410e+03    1.415629e-02    2.293676e+06    1.805939e-08    8.203965e-12    1.478724e-08   -2.140398e+00
    1.845391e+01    1.595357e+03    1.291070e-02    2.122189e+06    1.786794e-08    7.901150e-12    1.453798e-08   -2.135398e+00
    1.851091e+01    1.584401e+03    1.177102e-02    1.962007e+06    1.767507e-08    7.608725e-12    1.428670e-08   -2.130398e+00
