# sky130 pfet_01v8 gm/ID Processed Lookup Table
# Corner: ss
# Temperature: 0C
# W = 2.0 um
# L = 5.94 um (5940 nm)
# Columns: gm/id [1/V]  gm/gds [V/V]  id/W [A/m]  ft [Hz]  Cgg/W [F/m]  Cgd/W [F/m]  Cgs/W [F/m]  Vov [V]
#         gm/id          gm/gds            id/W              ft           Cgg/W           Cgd/W           Cgs/W             Vov
    2.475739e+00    1.201660e+01    2.746564e+00    3.200163e+07    3.381758e-08    2.018454e-09    3.182809e-08   -2.886015e+00
    2.500213e+00    1.265448e+01    2.712608e+00    3.197016e+07    3.376288e-08    1.951499e-09    3.182343e-08   -2.881015e+00
    2.524828e+00    1.333465e+01    2.678745e+00    3.193270e+07    3.370914e-08    1.886304e-09    3.181810e-08   -2.876015e+00
    2.549584e+00    1.405977e+01    2.644977e+00    3.188924e+07    3.365635e-08    1.822859e-09    3.181209e-08   -2.871015e+00
    2.574478e+00    1.483262e+01    2.611310e+00    3.183978e+07    3.360452e-08    1.761153e-09    3.180543e-08   -2.866015e+00
    2.599507e+00    1.565606e+01    2.577751e+00    3.178428e+07    3.355364e-08    1.701172e-09    3.179813e-08   -2.861015e+00
    2.624674e+00    1.653309e+01    2.544303e+00    3.172282e+07    3.350368e-08    1.642899e-09    3.179018e-08   -2.856015e+00
    2.649979e+00    1.746681e+01    2.510973e+00    3.165541e+07    3.345466e-08    1.586315e-09    3.178159e-08   -2.851015e+00
    2.675426e+00    1.846042e+01    2.477765e+00    3.158214e+07    3.340654e-08    1.531400e-09    3.177239e-08   -2.846015e+00
    2.701014e+00    1.951720e+01    2.444684e+00    3.150302e+07    3.335934e-08    1.478130e-09    3.176256e-08   -2.841015e+00
    2.726753e+00    2.064056e+01    2.411735e+00    3.141821e+07    3.331302e-08    1.426482e-09    3.175213e-08   -2.836015e+00
    2.752645e+00    2.183398e+01    2.378923e+00    3.132777e+07    3.326758e-08    1.376429e-09    3.174110e-08   -2.831015e+00
    2.778697e+00    2.310102e+01    2.346253e+00    3.123182e+07    3.322300e-08    1.327941e-09    3.172948e-08   -2.826015e+00
    2.804915e+00    2.444532e+01    2.313729e+00    3.113049e+07    3.317925e-08    1.280993e-09    3.171729e-08   -2.821015e+00
    2.831311e+00    2.587061e+01    2.281357e+00    3.102392e+07    3.313631e-08    1.235552e-09    3.170452e-08   -2.816015e+00
    2.857890e+00    2.738066e+01    2.249139e+00    3.091222e+07    3.309418e-08    1.191587e-09    3.169118e-08   -2.811015e+00
    2.884666e+00    2.897935e+01    2.217080e+00    3.079559e+07    3.305282e-08    1.149066e-09    3.167729e-08   -2.806015e+00
    2.911647e+00    3.067055e+01    2.185185e+00    3.067412e+07    3.301222e-08    1.107957e-09    3.166284e-08   -2.801015e+00
    2.938843e+00    3.245821e+01    2.153456e+00    3.054799e+07    3.297235e-08    1.068227e-09    3.164786e-08   -2.796015e+00
    2.966270e+00    3.434637e+01    2.121899e+00    3.041738e+07    3.293319e-08    1.029840e-09    3.163234e-08   -2.791015e+00
    2.993935e+00    3.633901e+01    2.090517e+00    3.028238e+07    3.289471e-08    9.927640e-10    3.161630e-08   -2.786015e+00
    3.021859e+00    3.844030e+01    2.059312e+00    3.014324e+07    3.285689e-08    9.569635e-10    3.159973e-08   -2.781015e+00
    3.050048e+00    4.065422e+01    2.028288e+00    3.000003e+07    3.281971e-08    9.224045e-10    3.158264e-08   -2.776015e+00
    3.078522e+00    4.298501e+01    1.997448e+00    2.985298e+07    3.278312e-08    8.890525e-10    3.156505e-08   -2.771015e+00
    3.107293e+00    4.543678e+01    1.966797e+00    2.970220e+07    3.274713e-08    8.568730e-10    3.154695e-08   -2.766015e+00
    3.136375e+00    4.801370e+01    1.936336e+00    2.954784e+07    3.271170e-08    8.258315e-10    3.152834e-08   -2.761015e+00
    3.165783e+00    5.071990e+01    1.906067e+00    2.939004e+07    3.267678e-08    7.958950e-10    3.150923e-08   -2.756015e+00
    3.195534e+00    5.355967e+01    1.875995e+00    2.922896e+07    3.264238e-08    7.670290e-10    3.148964e-08   -2.751015e+00
    3.225646e+00    5.653717e+01    1.846120e+00    2.906475e+07    3.260845e-08    7.392005e-10    3.146954e-08   -2.746015e+00
    3.256130e+00    5.965660e+01    1.816446e+00    2.889750e+07    3.257498e-08    7.123770e-10    3.144895e-08   -2.741015e+00
    3.287008e+00    6.292223e+01    1.786975e+00    2.872738e+07    3.254193e-08    6.865260e-10    3.142788e-08   -2.736015e+00
    3.318295e+00    6.633825e+01    1.757709e+00    2.855452e+07    3.250926e-08    6.616165e-10    3.140630e-08   -2.731015e+00
    3.350002e+00    6.990885e+01    1.728650e+00    2.837897e+07    3.247698e-08    6.376160e-10    3.138425e-08   -2.726015e+00
    3.382158e+00    7.363840e+01    1.699799e+00    2.820093e+07    3.244504e-08    6.144955e-10    3.136170e-08   -2.721015e+00
    3.414769e+00    7.753087e+01    1.671160e+00    2.802043e+07    3.241341e-08    5.922240e-10    3.133865e-08   -2.716015e+00
    3.447860e+00    8.159080e+01    1.642734e+00    2.783763e+07    3.238207e-08    5.707730e-10    3.131511e-08   -2.711015e+00
    3.481449e+00    8.582235e+01    1.614522e+00    2.765263e+07    3.235099e-08    5.501135e-10    3.129108e-08   -2.706015e+00
    3.515550e+00    9.022965e+01    1.586526e+00    2.746547e+07    3.232016e-08    5.302185e-10    3.126654e-08   -2.701015e+00
    3.550188e+00    9.481712e+01    1.558747e+00    2.727630e+07    3.228952e-08    5.110605e-10    3.124150e-08   -2.696015e+00
    3.585377e+00    9.958894e+01    1.531188e+00    2.708516e+07    3.225908e-08    4.926129e-10    3.121595e-08   -2.691015e+00
    3.621143e+00    1.045495e+02    1.503849e+00    2.689218e+07    3.222878e-08    4.748506e-10    3.118987e-08   -2.686015e+00
    3.657500e+00    1.097031e+02    1.476731e+00    2.669738e+07    3.219862e-08    4.577487e-10    3.116328e-08   -2.681015e+00
    3.694469e+00    1.150539e+02    1.449838e+00    2.650086e+07    3.216856e-08    4.412830e-10    3.113615e-08   -2.676015e+00
    3.732079e+00    1.206066e+02    1.423168e+00    2.630271e+07    3.213858e-08    4.254302e-10    3.110849e-08   -2.671015e+00
    3.770344e+00    1.263654e+02    1.396724e+00    2.610296e+07    3.210864e-08    4.101675e-10    3.108028e-08   -2.666015e+00
    3.809287e+00    1.323346e+02    1.370507e+00    2.590168e+07    3.207874e-08    3.954732e-10    3.105151e-08   -2.661015e+00
    3.848937e+00    1.385191e+02    1.344518e+00    2.569896e+07    3.204882e-08    3.813260e-10    3.102218e-08   -2.656015e+00
    3.889307e+00    1.449228e+02    1.318758e+00    2.549478e+07    3.201888e-08    3.677054e-10    3.099226e-08   -2.651015e+00
    3.930432e+00    1.515508e+02    1.293228e+00    2.528928e+07    3.198888e-08    3.545915e-10    3.096176e-08   -2.646015e+00
    3.972332e+00    1.584076e+02    1.267929e+00    2.508246e+07    3.195880e-08    3.419653e-10    3.093065e-08   -2.641015e+00
    4.015035e+00    1.654978e+02    1.242862e+00    2.487439e+07    3.192861e-08    3.298083e-10    3.089893e-08   -2.636015e+00
    4.058566e+00    1.728261e+02    1.218028e+00    2.466508e+07    3.189828e-08    3.181026e-10    3.086658e-08   -2.631015e+00
    4.102951e+00    1.803974e+02    1.193428e+00    2.445460e+07    3.186779e-08    3.068311e-10    3.083357e-08   -2.626015e+00
    4.148219e+00    1.882166e+02    1.169063e+00    2.424298e+07    3.183710e-08    2.959772e-10    3.079991e-08   -2.621015e+00
    4.194402e+00    1.962888e+02    1.144933e+00    2.403024e+07    3.180621e-08    2.855249e-10    3.076557e-08   -2.616015e+00
    4.241527e+00    2.046189e+02    1.121040e+00    2.381645e+07    3.177505e-08    2.754588e-10    3.073052e-08   -2.611015e+00
    4.289628e+00    2.132122e+02    1.097384e+00    2.360160e+07    3.174364e-08    2.657642e-10    3.069476e-08   -2.606015e+00
    4.338734e+00    2.220740e+02    1.073966e+00    2.338575e+07    3.171191e-08    2.564267e-10    3.065826e-08   -2.601015e+00
    4.388881e+00    2.312096e+02    1.050787e+00    2.316891e+07    3.167985e-08    2.474326e-10    3.062101e-08   -2.596015e+00
    4.440105e+00    2.406246e+02    1.027849e+00    2.295112e+07    3.164744e-08    2.387688e-10    3.058297e-08   -2.591015e+00
    4.492439e+00    2.503247e+02    1.005150e+00    2.273239e+07    3.161463e-08    2.304225e-10    3.054413e-08   -2.586015e+00
    4.545922e+00    2.603155e+02    9.826930e-01    2.251275e+07    3.158141e-08    2.223814e-10    3.050446e-08   -2.581015e+00
    4.600593e+00    2.706031e+02    9.604780e-01    2.229221e+07    3.154773e-08    2.146340e-10    3.046394e-08   -2.576015e+00
    4.656492e+00    2.811936e+02    9.385055e-01    2.207080e+07    3.151358e-08    2.071687e-10    3.042255e-08   -2.571015e+00
    4.713659e+00    2.920931e+02    9.167770e-01    2.184853e+07    3.147891e-08    1.999749e-10    3.038024e-08   -2.566015e+00
    4.772142e+00    3.033080e+02    8.952920e-01    2.162542e+07    3.144369e-08    1.930421e-10    3.033700e-08   -2.561015e+00
    4.831980e+00    3.148449e+02    8.740525e-01    2.140148e+07    3.140791e-08    1.863602e-10    3.029279e-08   -2.556015e+00
    4.893224e+00    3.267105e+02    8.530585e-01    2.117671e+07    3.137152e-08    1.799196e-10    3.024760e-08   -2.551015e+00
    4.955923e+00    3.389115e+02    8.323105e-01    2.095114e+07    3.133448e-08    1.737111e-10    3.020137e-08   -2.546015e+00
    5.020123e+00    3.514551e+02    8.118100e-01    2.072476e+07    3.129676e-08    1.677258e-10    3.015408e-08   -2.541015e+00
    5.085881e+00    3.643488e+02    7.915570e-01    2.049759e+07    3.125833e-08    1.619552e-10    3.010570e-08   -2.536015e+00
    5.153250e+00    3.775998e+02    7.715525e-01    2.026962e+07    3.121916e-08    1.563910e-10    3.005618e-08   -2.531015e+00
    5.222287e+00    3.912157e+02    7.517970e-01    2.004087e+07    3.117920e-08    1.510254e-10    3.000550e-08   -2.526015e+00
    5.293049e+00    4.052041e+02    7.322915e-01    1.981133e+07    3.113842e-08    1.458509e-10    2.995362e-08   -2.521015e+00
    5.365597e+00    4.195736e+02    7.130370e-01    1.958100e+07    3.109678e-08    1.408601e-10    2.990047e-08   -2.516015e+00
    5.440000e+00    4.343318e+02    6.940330e-01    1.934988e+07    3.105424e-08    1.360461e-10    2.984605e-08   -2.511015e+00
    5.516317e+00    4.494875e+02    6.752815e-01    1.911797e+07    3.101076e-08    1.314024e-10    2.979030e-08   -2.506015e+00
    5.594617e+00    4.650490e+02    6.567830e-01    1.888526e+07    3.096631e-08    1.269222e-10    2.973317e-08   -2.501015e+00
    5.674978e+00    4.810249e+02    6.385375e-01    1.865175e+07    3.092083e-08    1.225997e-10    2.967461e-08   -2.496015e+00
    5.757471e+00    4.974244e+02    6.205460e-01    1.841742e+07    3.087429e-08    1.184287e-10    2.961460e-08   -2.491015e+00
    5.842166e+00    5.142561e+02    6.028100e-01    1.818228e+07    3.082664e-08    1.144037e-10    2.955306e-08   -2.486015e+00
    5.929148e+00    5.315300e+02    5.853295e-01    1.794629e+07    3.077784e-08    1.105191e-10    2.948996e-08   -2.481015e+00
    6.018505e+00    5.492542e+02    5.681050e-01    1.770946e+07    3.072785e-08    1.067698e-10    2.942524e-08   -2.476015e+00
    6.110314e+00    5.674391e+02    5.511380e-01    1.747176e+07    3.067661e-08    1.031507e-10    2.935885e-08   -2.471015e+00
    6.204665e+00    5.860935e+02    5.344290e-01    1.723319e+07    3.062407e-08    9.965695e-11    2.929073e-08   -2.466015e+00
    6.301647e+00    6.052267e+02    5.179790e-01    1.699371e+07    3.057020e-08    9.628395e-11    2.922082e-08   -2.461015e+00
    6.401367e+00    6.248494e+02    5.017880e-01    1.675331e+07    3.051493e-08    9.302720e-11    2.914907e-08   -2.456015e+00
    6.503906e+00    6.449694e+02    4.858578e-01    1.651198e+07    3.045823e-08    8.988250e-11    2.907543e-08   -2.451015e+00
    6.609376e+00    6.655968e+02    4.701887e-01    1.626967e+07    3.040002e-08    8.684570e-11    2.899981e-08   -2.446015e+00
    6.717879e+00    6.867408e+02    4.547816e-01    1.602639e+07    3.034028e-08    8.391280e-11    2.892218e-08   -2.441015e+00
    6.829518e+00    7.084100e+02    4.396373e-01    1.578208e+07    3.027893e-08    8.108010e-11    2.884245e-08   -2.436015e+00
    6.944408e+00    7.306132e+02    4.247568e-01    1.553673e+07    3.021592e-08    7.834390e-11    2.876057e-08   -2.431015e+00
    7.062657e+00    7.533584e+02    4.101408e-01    1.529031e+07    3.015121e-08    7.570075e-11    2.867647e-08   -2.426015e+00
    7.184385e+00    7.766536e+02    3.957902e-01    1.504280e+07    3.008472e-08    7.314725e-11    2.859006e-08   -2.421015e+00
    7.309705e+00    8.005055e+02    3.817060e-01    1.479416e+07    3.001641e-08    7.068020e-11    2.850130e-08   -2.416015e+00
    7.438739e+00    8.249205e+02    3.678889e-01    1.454435e+07    2.994620e-08    6.829645e-11    2.841010e-08   -2.411015e+00
    7.571609e+00    8.499042e+02    3.543400e-01    1.429336e+07    2.987405e-08    6.599305e-11    2.831639e-08   -2.406015e+00
    7.708438e+00    8.754611e+02    3.410600e-01    1.404115e+07    2.979988e-08    6.376715e-11    2.822009e-08   -2.401015e+00
    7.849351e+00    9.015943e+02    3.280499e-01    1.378769e+07    2.972365e-08    6.161600e-11    2.812114e-08   -2.396015e+00
    7.994471e+00    9.283053e+02    3.153105e-01    1.353296e+07    2.964528e-08    5.953690e-11    2.801944e-08   -2.391015e+00
    8.143923e+00    9.555946e+02    3.028427e-01    1.327692e+07    2.956471e-08    5.752740e-11    2.791493e-08   -2.386015e+00
    8.297830e+00    9.834602e+02    2.906475e-01    1.301955e+07    2.948188e-08    5.558495e-11    2.780752e-08   -2.381015e+00
    8.456313e+00    1.011898e+03    2.787256e-01    1.276084e+07    2.939673e-08    5.370725e-11    2.769713e-08   -2.376015e+00
    8.619494e+00    1.040903e+03    2.670779e-01    1.250076e+07    2.930917e-08    5.189205e-11    2.758368e-08   -2.371015e+00
    8.787482e+00    1.070464e+03    2.557051e-01    1.223929e+07    2.921917e-08    5.013720e-11    2.746710e-08   -2.366015e+00
    8.960392e+00    1.100571e+03    2.446080e-01    1.197644e+07    2.912663e-08    4.844053e-11    2.734728e-08   -2.361015e+00
    9.138322e+00    1.131208e+03    2.337875e-01    1.171220e+07    2.903150e-08    4.680008e-11    2.722416e-08   -2.356015e+00
    9.321368e+00    1.162356e+03    2.232440e-01    1.144657e+07    2.893372e-08    4.521391e-11    2.709765e-08   -2.351015e+00
    9.509610e+00    1.193990e+03    2.129783e-01    1.117957e+07    2.883322e-08    4.368015e-11    2.696767e-08   -2.346015e+00
    9.703122e+00    1.226083e+03    2.029908e-01    1.091122e+07    2.872993e-08    4.219700e-11    2.683413e-08   -2.341015e+00
    9.901959e+00    1.258603e+03    1.932820e-01    1.064157e+07    2.862379e-08    4.076276e-11    2.669694e-08   -2.336015e+00
    1.010616e+01    1.291509e+03    1.838522e-01    1.037065e+07    2.851472e-08    3.937575e-11    2.655604e-08   -2.331015e+00
    1.031574e+01    1.324760e+03    1.747017e-01    1.009853e+07    2.840268e-08    3.803438e-11    2.641133e-08   -2.326015e+00
    1.053069e+01    1.358302e+03    1.658304e-01    9.825283e+06    2.828760e-08    3.673710e-11    2.626273e-08   -2.321015e+00
    1.075099e+01    1.392080e+03    1.572385e-01    9.551018e+06    2.816941e-08    3.548245e-11    2.611018e-08   -2.316015e+00
    1.097656e+01    1.426028e+03    1.489256e-01    9.275840e+06    2.804805e-08    3.426899e-11    2.595358e-08   -2.311015e+00
    1.120733e+01    1.460074e+03    1.408914e-01    8.999888e+06    2.792348e-08    3.309535e-11    2.579287e-08   -2.306015e+00
    1.144314e+01    1.494139e+03    1.331352e-01    8.723323e+06    2.779563e-08    3.196019e-11    2.562797e-08   -2.301015e+00
    1.168384e+01    1.528136e+03    1.256562e-01    8.446325e+06    2.766445e-08    3.086226e-11    2.545881e-08   -2.296015e+00
    1.192920e+01    1.561967e+03    1.184533e-01    8.169099e+06    2.752990e-08    2.980031e-11    2.528533e-08   -2.291015e+00
    1.217895e+01    1.595528e+03    1.115252e-01    7.891882e+06    2.739191e-08    2.877317e-11    2.510745e-08   -2.286015e+00
    1.243277e+01    1.628709e+03    1.048702e-01    7.614935e+06    2.725046e-08    2.777969e-11    2.492513e-08   -2.281015e+00
    1.269030e+01    1.661391e+03    9.848620e-02    7.338546e+06    2.710549e-08    2.681878e-11    2.473830e-08   -2.276015e+00
    1.295107e+01    1.693445e+03    9.237115e-02    7.063030e+06    2.695698e-08    2.588937e-11    2.454692e-08   -2.271015e+00
    1.321462e+01    1.724739e+03    8.652225e-02    6.788731e+06    2.680489e-08    2.499043e-11    2.435094e-08   -2.266015e+00
    1.348037e+01    1.755133e+03    8.093650e-02    6.516019e+06    2.664919e-08    2.412098e-11    2.415032e-08   -2.261015e+00
    1.374770e+01    1.784486e+03    7.561050e-02    6.245290e+06    2.648986e-08    2.328008e-11    2.394503e-08   -2.256015e+00
    1.401592e+01    1.812652e+03    7.054045e-02    5.976962e+06    2.632689e-08    2.246679e-11    2.373504e-08   -2.251015e+00
    1.428430e+01    1.839485e+03    6.572210e-02    5.711476e+06    2.616026e-08    2.168023e-11    2.352032e-08   -2.246015e+00
    1.455199e+01    1.864836e+03    6.115090e-02    5.449284e+06    2.598997e-08    2.091954e-11    2.330088e-08   -2.241015e+00
    1.481814e+01    1.888562e+03    5.682170e-02    5.190853e+06    2.581603e-08    2.018390e-11    2.307669e-08   -2.236015e+00
    1.508183e+01    1.910525e+03    5.272910e-02    4.936661e+06    2.563843e-08    1.947251e-11    2.284777e-08   -2.231015e+00
    1.534212e+01    1.930594e+03    4.886716e-02    4.687187e+06    2.545719e-08    1.878461e-11    2.261413e-08   -2.226015e+00
    1.559799e+01    1.948647e+03    4.522967e-02    4.442901e+06    2.527235e-08    1.811943e-11    2.237578e-08   -2.221015e+00
    1.584845e+01    1.964579e+03    4.180996e-02    4.204277e+06    2.508392e-08    1.747627e-11    2.213277e-08   -2.216015e+00
    1.609247e+01    1.978295e+03    3.860105e-02    3.971759e+06    2.489195e-08    1.685443e-11    2.188513e-08   -2.211015e+00
    1.632902e+01    1.989720e+03    3.559561e-02    3.745774e+06    2.469649e-08    1.625323e-11    2.163292e-08   -2.206015e+00
    1.655713e+01    1.998799e+03    3.278606e-02    3.526721e+06    2.449758e-08    1.567203e-11    2.137618e-08   -2.201015e+00
    1.677585e+01    2.005498e+03    3.016453e-02    3.314962e+06    2.429532e-08    1.511020e-11    2.111502e-08   -2.196015e+00
    1.698427e+01    2.009808e+03    2.772299e-02    3.110820e+06    2.408975e-08    1.456712e-11    2.084949e-08   -2.191015e+00
    1.718158e+01    2.011741e+03    2.545322e-02    2.914569e+06    2.388096e-08    1.404222e-11    2.057971e-08   -2.186015e+00
    1.736705e+01    2.011335e+03    2.334693e-02    2.726436e+06    2.366906e-08    1.353493e-11    2.030578e-08   -2.181015e+00
    1.754007e+01    2.008653e+03    2.139576e-02    2.546595e+06    2.345413e-08    1.304468e-11    2.002781e-08   -2.176015e+00
    1.770013e+01    2.003781e+03    1.959132e-02    2.375163e+06    2.323629e-08    1.257094e-11    1.974594e-08   -2.171015e+00
    1.784687e+01    1.996828e+03    1.792531e-02    2.212204e+06    2.301568e-08    1.211322e-11    1.946033e-08   -2.166015e+00
    1.798008e+01    1.987923e+03    1.638950e-02    2.057724e+06    2.279240e-08    1.167099e-11    1.917111e-08   -2.161015e+00
    1.809969e+01    1.977214e+03    1.497580e-02    1.911678e+06    2.256661e-08    1.124377e-11    1.887846e-08   -2.156015e+00
    1.820578e+01    1.964864e+03    1.367633e-02    1.773967e+06    2.233846e-08    1.083110e-11    1.858255e-08   -2.151015e+00
    1.829859e+01    1.951048e+03    1.248340e-02    1.644445e+06    2.210809e-08    1.043253e-11    1.828359e-08   -2.146015e+00
    1.837851e+01    1.935954e+03    1.138962e-02    1.522922e+06    2.187568e-08    1.004759e-11    1.798175e-08   -2.141015e+00
    1.844607e+01    1.919773e+03    1.038784e-02    1.409171e+06    2.164140e-08    9.675890e-12    1.767727e-08   -2.136015e+00
    1.850194e+01    1.902700e+03    9.471245e-03    1.302928e+06    2.140543e-08    9.316990e-12    1.737036e-08   -2.131015e+00
