# sky130 pfet_01v8 gm/ID Processed Lookup Table
# Corner: ss
# Temperature: 0C
# W = 2.0 um
# L = 5.76 um (5760 nm)
# Columns: gm/id [1/V]  gm/gds [V/V]  id/W [A/m]  ft [Hz]  Cgg/W [F/m]  Cgd/W [F/m]  Cgs/W [F/m]  Vov [V]
#         gm/id          gm/gds            id/W              ft           Cgg/W           Cgd/W           Cgs/W             Vov
    2.473670e+00    1.190408e+01    2.834632e+00    3.402003e+07    3.280378e-08    1.947742e-09    3.087227e-08   -2.885928e+00
    2.498165e+00    1.253361e+01    2.799617e+00    3.398720e+07    3.275100e-08    1.883134e-09    3.086771e-08   -2.880928e+00
    2.522801e+00    1.320472e+01    2.764695e+00    3.394799e+07    3.269914e-08    1.820228e-09    3.086250e-08   -2.875928e+00
    2.547578e+00    1.392004e+01    2.729871e+00    3.390240e+07    3.264821e-08    1.759014e-09    3.085665e-08   -2.870928e+00
    2.572492e+00    1.468226e+01    2.695151e+00    3.385040e+07    3.259819e-08    1.699481e-09    3.085016e-08   -2.865928e+00
    2.597544e+00    1.549420e+01    2.660541e+00    3.379200e+07    3.254910e-08    1.641615e-09    3.084304e-08   -2.860928e+00
    2.622732e+00    1.635878e+01    2.626044e+00    3.372723e+07    3.250090e-08    1.585399e-09    3.083531e-08   -2.855928e+00
    2.648059e+00    1.727902e+01    2.591668e+00    3.365614e+07    3.245360e-08    1.530815e-09    3.082696e-08   -2.850928e+00
    2.673528e+00    1.825804e+01    2.557417e+00    3.357880e+07    3.240718e-08    1.477842e-09    3.081801e-08   -2.845928e+00
    2.699140e+00    1.929905e+01    2.523297e+00    3.349526e+07    3.236164e-08    1.426460e-09    3.080845e-08   -2.840928e+00
    2.724900e+00    2.040535e+01    2.489311e+00    3.340563e+07    3.231695e-08    1.376641e-09    3.079832e-08   -2.835928e+00
    2.750815e+00    2.158032e+01    2.455467e+00    3.331002e+07    3.227310e-08    1.328363e-09    3.078760e-08   -2.830928e+00
    2.776889e+00    2.282741e+01    2.421768e+00    3.320854e+07    3.223008e-08    1.281597e-09    3.077632e-08   -2.825928e+00
    2.803129e+00    2.415016e+01    2.388219e+00    3.310131e+07    3.218787e-08    1.236315e-09    3.076446e-08   -2.820928e+00
    2.829544e+00    2.555217e+01    2.354824e+00    3.298848e+07    3.214644e-08    1.192488e-09    3.075206e-08   -2.815928e+00
    2.856145e+00    2.703711e+01    2.321589e+00    3.287021e+07    3.210579e-08    1.150086e-09    3.073911e-08   -2.810928e+00
    2.882941e+00    2.860868e+01    2.288518e+00    3.274666e+07    3.206588e-08    1.109077e-09    3.072562e-08   -2.805928e+00
    2.909939e+00    3.027065e+01    2.255614e+00    3.261796e+07    3.202669e-08    1.069429e-09    3.071161e-08   -2.800928e+00
    2.937155e+00    3.202682e+01    2.222882e+00    3.248430e+07    3.198822e-08    1.031112e-09    3.069706e-08   -2.795928e+00
    2.964600e+00    3.388107e+01    2.190326e+00    3.234584e+07    3.195042e-08    9.940900e-10    3.068200e-08   -2.790928e+00
    2.992283e+00    3.583720e+01    2.157949e+00    3.220272e+07    3.191329e-08    9.583325e-10    3.066643e-08   -2.785928e+00
    3.020223e+00    3.789920e+01    2.125755e+00    3.205516e+07    3.187678e-08    9.238050e-10    3.065035e-08   -2.780928e+00
    3.048429e+00    4.007093e+01    2.093748e+00    3.190328e+07    3.184089e-08    8.904745e-10    3.063377e-08   -2.775928e+00
    3.076917e+00    4.235637e+01    2.061930e+00    3.174726e+07    3.180558e-08    8.583075e-10    3.061671e-08   -2.770928e+00
    3.105702e+00    4.475947e+01    2.030305e+00    3.158729e+07    3.177084e-08    8.272710e-10    3.059914e-08   -2.765928e+00
    3.134795e+00    4.728419e+01    1.998876e+00    3.142348e+07    3.173663e-08    7.973325e-10    3.058109e-08   -2.760928e+00
    3.164217e+00    4.993451e+01    1.967645e+00    3.125603e+07    3.170292e-08    7.684585e-10    3.056256e-08   -2.755928e+00
    3.193982e+00    5.271446e+01    1.936616e+00    3.108508e+07    3.166971e-08    7.406165e-10    3.054355e-08   -2.750928e+00
    3.224103e+00    5.562794e+01    1.905791e+00    3.091076e+07    3.163694e-08    7.137750e-10    3.052406e-08   -2.745928e+00
    3.254597e+00    5.867897e+01    1.875172e+00    3.073321e+07    3.160462e-08    6.879020e-10    3.050410e-08   -2.740928e+00
    3.285483e+00    6.187153e+01    1.844762e+00    3.055259e+07    3.157270e-08    6.629670e-10    3.048365e-08   -2.735928e+00
    3.316776e+00    6.520963e+01    1.814563e+00    3.036902e+07    3.154116e-08    6.389385e-10    3.046273e-08   -2.730928e+00
    3.348496e+00    6.869724e+01    1.784577e+00    3.018264e+07    3.150998e-08    6.157870e-10    3.044135e-08   -2.725928e+00
    3.380653e+00    7.233825e+01    1.754808e+00    2.999353e+07    3.147912e-08    5.934830e-10    3.041948e-08   -2.720928e+00
    3.413273e+00    7.613678e+01    1.725254e+00    2.980187e+07    3.144857e-08    5.719980e-10    3.039714e-08   -2.715928e+00
    3.446367e+00    8.009665e+01    1.695920e+00    2.960769e+07    3.141830e-08    5.513035e-10    3.037431e-08   -2.710928e+00
    3.479961e+00    8.422208e+01    1.666807e+00    2.941119e+07    3.138827e-08    5.313725e-10    3.035101e-08   -2.705928e+00
    3.514068e+00    8.851677e+01    1.637916e+00    2.921239e+07    3.135848e-08    5.121775e-10    3.032721e-08   -2.700928e+00
    3.548705e+00    9.298488e+01    1.609251e+00    2.901141e+07    3.132887e-08    4.936931e-10    3.030293e-08   -2.695928e+00
    3.583898e+00    9.763035e+01    1.580809e+00    2.880836e+07    3.129946e-08    4.758939e-10    3.027816e-08   -2.690928e+00
    3.619663e+00    1.024572e+02    1.552596e+00    2.860332e+07    3.127018e-08    4.587550e-10    3.025288e-08   -2.685928e+00
    3.656023e+00    1.074696e+02    1.524612e+00    2.839638e+07    3.124102e-08    4.422526e-10    3.022710e-08   -2.680928e+00
    3.692993e+00    1.126713e+02    1.496857e+00    2.818756e+07    3.121197e-08    4.263635e-10    3.020080e-08   -2.675928e+00
    3.730601e+00    1.180666e+02    1.469333e+00    2.797702e+07    3.118299e-08    4.110651e-10    3.017398e-08   -2.670928e+00
    3.768864e+00    1.236595e+02    1.442042e+00    2.776476e+07    3.115406e-08    3.963357e-10    3.014663e-08   -2.665928e+00
    3.807808e+00    1.294543e+02    1.414984e+00    2.755089e+07    3.112514e-08    3.821541e-10    3.011875e-08   -2.660928e+00
    3.847453e+00    1.354549e+02    1.388163e+00    2.733545e+07    3.109622e-08    3.685000e-10    3.009031e-08   -2.655928e+00
    3.887822e+00    1.416656e+02    1.361576e+00    2.711848e+07    3.106727e-08    3.553535e-10    3.006131e-08   -2.650928e+00
    3.928942e+00    1.480908e+02    1.335227e+00    2.690008e+07    3.103826e-08    3.426955e-10    3.003174e-08   -2.645928e+00
    3.970840e+00    1.547348e+02    1.309116e+00    2.668029e+07    3.100917e-08    3.305077e-10    3.000159e-08   -2.640928e+00
    4.013534e+00    1.616017e+02    1.283244e+00    2.645912e+07    3.097998e-08    3.187724e-10    2.997084e-08   -2.635928e+00
    4.057059e+00    1.686963e+02    1.257613e+00    2.623667e+07    3.095064e-08    3.074721e-10    2.993948e-08   -2.630928e+00
    4.101437e+00    1.760229e+02    1.232223e+00    2.601296e+07    3.092116e-08    2.965905e-10    2.990749e-08   -2.625928e+00
    4.146699e+00    1.835862e+02    1.207075e+00    2.578803e+07    3.089148e-08    2.861115e-10    2.987486e-08   -2.620928e+00
    4.192872e+00    1.913908e+02    1.182170e+00    2.556191e+07    3.086158e-08    2.760197e-10    2.984157e-08   -2.615928e+00
    4.239989e+00    1.994415e+02    1.157508e+00    2.533465e+07    3.083146e-08    2.663004e-10    2.980761e-08   -2.610928e+00
    4.288079e+00    2.077432e+02    1.133092e+00    2.510627e+07    3.080106e-08    2.569394e-10    2.977295e-08   -2.605928e+00
    4.337176e+00    2.163009e+02    1.108920e+00    2.487683e+07    3.077037e-08    2.479227e-10    2.973757e-08   -2.600928e+00
    4.387312e+00    2.251197e+02    1.084996e+00    2.464632e+07    3.073935e-08    2.392372e-10    2.970146e-08   -2.595928e+00
    4.438524e+00    2.342047e+02    1.061319e+00    2.441479e+07    3.070799e-08    2.308703e-10    2.966460e-08   -2.590928e+00
    4.490847e+00    2.435614e+02    1.037889e+00    2.418227e+07    3.067625e-08    2.228096e-10    2.962695e-08   -2.585928e+00
    4.544315e+00    2.531952e+02    1.014709e+00    2.394877e+07    3.064410e-08    2.150433e-10    2.958851e-08   -2.580928e+00
    4.598973e+00    2.631117e+02    9.917780e-01    2.371432e+07    3.061151e-08    2.075602e-10    2.954924e-08   -2.575928e+00
    4.654857e+00    2.733168e+02    9.690975e-01    2.347894e+07    3.057846e-08    2.003494e-10    2.950911e-08   -2.570928e+00
    4.712010e+00    2.838163e+02    9.466680e-01    2.324263e+07    3.054491e-08    1.934004e-10    2.946811e-08   -2.565928e+00
    4.770476e+00    2.946163e+02    9.244905e-01    2.300542e+07    3.051083e-08    1.867032e-10    2.942621e-08   -2.560928e+00
    4.830299e+00    3.057230e+02    9.025655e-01    2.276733e+07    3.047620e-08    1.802481e-10    2.938336e-08   -2.555928e+00
    4.891524e+00    3.171429e+02    8.808940e-01    2.252836e+07    3.044097e-08    1.740259e-10    2.933956e-08   -2.550928e+00
    4.954201e+00    3.288826e+02    8.594770e-01    2.228852e+07    3.040512e-08    1.680275e-10    2.929476e-08   -2.545928e+00
    5.018385e+00    3.409489e+02    8.383140e-01    2.204783e+07    3.036861e-08    1.622445e-10    2.924893e-08   -2.540928e+00
    5.084122e+00    3.533488e+02    8.174070e-01    2.180629e+07    3.033142e-08    1.566687e-10    2.920205e-08   -2.535928e+00
    5.151467e+00    3.660893e+02    7.967565e-01    2.156390e+07    3.029350e-08    1.512921e-10    2.915406e-08   -2.530928e+00
    5.220479e+00    3.791779e+02    7.763630e-01    2.132067e+07    3.025482e-08    1.461071e-10    2.910495e-08   -2.525928e+00
    5.291218e+00    3.926220e+02    7.562270e-01    2.107659e+07    3.021535e-08    1.411065e-10    2.905466e-08   -2.520928e+00
    5.363744e+00    4.064297e+02    7.363495e-01    2.083168e+07    3.017504e-08    1.362833e-10    2.900317e-08   -2.515928e+00
    5.438120e+00    4.206085e+02    7.167310e-01    2.058593e+07    3.013386e-08    1.316307e-10    2.895043e-08   -2.510928e+00
    5.514410e+00    4.351667e+02    6.973730e-01    2.033933e+07    3.009176e-08    1.271424e-10    2.889640e-08   -2.505928e+00
    5.592685e+00    4.501127e+02    6.782755e-01    2.009188e+07    3.004873e-08    1.228121e-10    2.884103e-08   -2.500928e+00
    5.673015e+00    4.654546e+02    6.594395e-01    1.984357e+07    3.000470e-08    1.186339e-10    2.878429e-08   -2.495928e+00
    5.755477e+00    4.812018e+02    6.408655e-01    1.959439e+07    2.995964e-08    1.146020e-10    2.872613e-08   -2.490928e+00
    5.840140e+00    4.973627e+02    6.225550e-01    1.934433e+07    2.991351e-08    1.107111e-10    2.866650e-08   -2.485928e+00
    5.927092e+00    5.139460e+02    6.045080e-01    1.909339e+07    2.986626e-08    1.069557e-10    2.860535e-08   -2.480928e+00
    6.016411e+00    5.309613e+02    5.867255e-01    1.884153e+07    2.981785e-08    1.033309e-10    2.854263e-08   -2.475928e+00
    6.108184e+00    5.484175e+02    5.692085e-01    1.858876e+07    2.976824e-08    9.983190e-11    2.847829e-08   -2.470928e+00
    6.202499e+00    5.663244e+02    5.519575e-01    1.833505e+07    2.971737e-08    9.645395e-11    2.841228e-08   -2.465928e+00
    6.299448e+00    5.846908e+02    5.349735e-01    1.808038e+07    2.966521e-08    9.319255e-11    2.834454e-08   -2.460928e+00
    6.399129e+00    6.035260e+02    5.182570e-01    1.782473e+07    2.961169e-08    9.004345e-11    2.827502e-08   -2.455928e+00
    6.501631e+00    6.228402e+02    5.018095e-01    1.756807e+07    2.955679e-08    8.700255e-11    2.820365e-08   -2.450928e+00
    6.607056e+00    6.426417e+02    4.856317e-01    1.731039e+07    2.950043e-08    8.406585e-11    2.813038e-08   -2.445928e+00
    6.715515e+00    6.629402e+02    4.697241e-01    1.705165e+07    2.944258e-08    8.122950e-11    2.805515e-08   -2.440928e+00
    6.827112e+00    6.837448e+02    4.540876e-01    1.679184e+07    2.938317e-08    7.848995e-11    2.797789e-08   -2.435928e+00
    6.941954e+00    7.050637e+02    4.387233e-01    1.653091e+07    2.932215e-08    7.584360e-11    2.789855e-08   -2.430928e+00
    7.060158e+00    7.269057e+02    4.236320e-01    1.626884e+07    2.925948e-08    7.328715e-11    2.781704e-08   -2.425928e+00
    7.181837e+00    7.492786e+02    4.088145e-01    1.600560e+07    2.919509e-08    7.081730e-11    2.773331e-08   -2.420928e+00
    7.307108e+00    7.721898e+02    3.942718e-01    1.574116e+07    2.912894e-08    6.843095e-11    2.764730e-08   -2.415928e+00
    7.436091e+00    7.956460e+02    3.800050e-01    1.547549e+07    2.906095e-08    6.612510e-11    2.755893e-08   -2.410928e+00
    7.568909e+00    8.196530e+02    3.660147e-01    1.520855e+07    2.899107e-08    6.389690e-11    2.746812e-08   -2.405928e+00
    7.705687e+00    8.442161e+02    3.523019e-01    1.494031e+07    2.891924e-08    6.174355e-11    2.737480e-08   -2.400928e+00
    7.846543e+00    8.693386e+02    3.388677e-01    1.467074e+07    2.884541e-08    5.966245e-11    2.727891e-08   -2.395928e+00
    7.991608e+00    8.950236e+02    3.257128e-01    1.439981e+07    2.876951e-08    5.765100e-11    2.718036e-08   -2.390928e+00
    8.141003e+00    9.212716e+02    3.128383e-01    1.412749e+07    2.869147e-08    5.570675e-11    2.707908e-08   -2.385928e+00
    8.294854e+00    9.480821e+02    3.002450e-01    1.385377e+07    2.861125e-08    5.382735e-11    2.697500e-08   -2.380928e+00
    8.453281e+00    9.754526e+02    2.879337e-01    1.357860e+07    2.852876e-08    5.201055e-11    2.686802e-08   -2.375928e+00
    8.616403e+00    1.003378e+03    2.759054e-01    1.330198e+07    2.844396e-08    5.025410e-11    2.675808e-08   -2.370928e+00
    8.784333e+00    1.031850e+03    2.641609e-01    1.302388e+07    2.835678e-08    4.855597e-11    2.664510e-08   -2.365928e+00
    8.957186e+00    1.060859e+03    2.527008e-01    1.274431e+07    2.826715e-08    4.691411e-11    2.652899e-08   -2.360928e+00
    9.135057e+00    1.090392e+03    2.415262e-01    1.246326e+07    2.817501e-08    4.532659e-11    2.640968e-08   -2.355928e+00
    9.318043e+00    1.120430e+03    2.306376e-01    1.218073e+07    2.808029e-08    4.379153e-11    2.628708e-08   -2.350928e+00
    9.506230e+00    1.150953e+03    2.200355e-01    1.189674e+07    2.798294e-08    4.230715e-11    2.616110e-08   -2.345928e+00
    9.699686e+00    1.181935e+03    2.097207e-01    1.161131e+07    2.788288e-08    4.087170e-11    2.603169e-08   -2.340928e+00
    9.898467e+00    1.213345e+03    1.996934e-01    1.132449e+07    2.778005e-08    3.948352e-11    2.589875e-08   -2.335928e+00
    1.010261e+01    1.245149e+03    1.899542e-01    1.103632e+07    2.767441e-08    3.814102e-11    2.576219e-08   -2.330928e+00
    1.031214e+01    1.277305e+03    1.805031e-01    1.074687e+07    2.756587e-08    3.684264e-11    2.562195e-08   -2.325928e+00
    1.052705e+01    1.309766e+03    1.713404e-01    1.045623e+07    2.745438e-08    3.558691e-11    2.547794e-08   -2.320928e+00
    1.074731e+01    1.342477e+03    1.624659e-01    1.016449e+07    2.733988e-08    3.437238e-11    2.533009e-08   -2.315928e+00
    1.097285e+01    1.375378e+03    1.538796e-01    9.871780e+06    2.722231e-08    3.319769e-11    2.517832e-08   -2.310928e+00
    1.120358e+01    1.408401e+03    1.455809e-01    9.578241e+06    2.710162e-08    3.206150e-11    2.502255e-08   -2.305928e+00
    1.143936e+01    1.441472e+03    1.375691e-01    9.284042e+06    2.697775e-08    3.096254e-11    2.486273e-08   -2.300928e+00
    1.168004e+01    1.474505e+03    1.298434e-01    8.989376e+06    2.685067e-08    2.989958e-11    2.469878e-08   -2.295928e+00
    1.192538e+01    1.507411e+03    1.224029e-01    8.694466e+06    2.672030e-08    2.887142e-11    2.453064e-08   -2.290928e+00
    1.217513e+01    1.540091e+03    1.152460e-01    8.399560e+06    2.658661e-08    2.787694e-11    2.435823e-08   -2.285928e+00
    1.242896e+01    1.572436e+03    1.083710e-01    8.104933e+06    2.644955e-08    2.691501e-11    2.418152e-08   -2.280928e+00
    1.268649e+01    1.604334e+03    1.017759e-01    7.810893e+06    2.630909e-08    2.598458e-11    2.400043e-08   -2.275928e+00
    1.294730e+01    1.635662e+03    9.545830e-02    7.517775e+06    2.616519e-08    2.508462e-11    2.381493e-08   -2.270928e+00
    1.321088e+01    1.666291e+03    8.941560e-02    7.225941e+06    2.601782e-08    2.421415e-11    2.362497e-08   -2.265928e+00
    1.347669e+01    1.696090e+03    8.364460e-02    6.935791e+06    2.586695e-08    2.337220e-11    2.343051e-08   -2.260928e+00
    1.374408e+01    1.724920e+03    7.814185e-02    6.647745e+06    2.571256e-08    2.255786e-11    2.323151e-08   -2.255928e+00
    1.401239e+01    1.752637e+03    7.290335e-02    6.362242e+06    2.555463e-08    2.177025e-11    2.302796e-08   -2.250928e+00
    1.428085e+01    1.779102e+03    6.792480e-02    6.079752e+06    2.539316e-08    2.100850e-11    2.281982e-08   -2.245928e+00
    1.454865e+01    1.804167e+03    6.320145e-02    5.800756e+06    2.522814e-08    2.027179e-11    2.260710e-08   -2.240928e+00
    1.481493e+01    1.827697e+03    5.872805e-02    5.525757e+06    2.505957e-08    1.955931e-11    2.238977e-08   -2.235928e+00
    1.507876e+01    1.849551e+03    5.449900e-02    5.255257e+06    2.488745e-08    1.887030e-11    2.216786e-08   -2.230928e+00
    1.533921e+01    1.869603e+03    5.050820e-02    4.989770e+06    2.471181e-08    1.820401e-11    2.194136e-08   -2.225928e+00
    1.559526e+01    1.887731e+03    4.674920e-02    4.729794e+06    2.453267e-08    1.755972e-11    2.171030e-08   -2.220928e+00
    1.584590e+01    1.903828e+03    4.321518e-02    4.475831e+06    2.435005e-08    1.693674e-11    2.147471e-08   -2.215928e+00
    1.609013e+01    1.917802e+03    3.989890e-02    4.228361e+06    2.416399e-08    1.633439e-11    2.123462e-08   -2.210928e+00
    1.632691e+01    1.929572e+03    3.679283e-02    3.987832e+06    2.397454e-08    1.575202e-11    2.099010e-08   -2.205928e+00
    1.655524e+01    1.939083e+03    3.388912e-02    3.754672e+06    2.378176e-08    1.518900e-11    2.074120e-08   -2.200928e+00
    1.677420e+01    1.946297e+03    3.117967e-02    3.529268e+06    2.358570e-08    1.464474e-11    2.048798e-08   -2.195928e+00
    1.698286e+01    1.951197e+03    2.865618e-02    3.311960e+06    2.338645e-08    1.411862e-11    2.023054e-08   -2.190928e+00
    1.718043e+01    1.953794e+03    2.631018e-02    3.103047e+06    2.318406e-08    1.361011e-11    1.996897e-08   -2.185928e+00
    1.736616e+01    1.954119e+03    2.413310e-02    2.902769e+06    2.297865e-08    1.311863e-11    1.970336e-08   -2.180928e+00
    1.753944e+01    1.952228e+03    2.211630e-02    2.711311e+06    2.277032e-08    1.264366e-11    1.943384e-08   -2.175928e+00
    1.769976e+01    1.948200e+03    2.025115e-02    2.528799e+06    2.255915e-08    1.218467e-11    1.916053e-08   -2.170928e+00
    1.784675e+01    1.942136e+03    1.852905e-02    2.355302e+06    2.234529e-08    1.174119e-11    1.888358e-08   -2.165928e+00
    1.798021e+01    1.934157e+03    1.694151e-02    2.190828e+06    2.212884e-08    1.131270e-11    1.860313e-08   -2.160928e+00
    1.810005e+01    1.924403e+03    1.548018e-02    2.035330e+06    2.190994e-08    1.089876e-11    1.831935e-08   -2.155928e+00
    1.820637e+01    1.913030e+03    1.413691e-02    1.888702e+06    2.168875e-08    1.049889e-11    1.803240e-08   -2.150928e+00
    1.829939e+01    1.900207e+03    1.290376e-02    1.750790e+06    2.146541e-08    1.011268e-11    1.774248e-08   -2.145928e+00
    1.837950e+01    1.886111e+03    1.177309e-02    1.621393e+06    2.124008e-08    9.739685e-12    1.744977e-08   -2.140928e+00
    1.844724e+01    1.870928e+03    1.073753e-02    1.500269e+06    2.101293e-08    9.379490e-12    1.715448e-08   -2.135928e+00
    1.850326e+01    1.854846e+03    9.790020e-03    1.387139e+06    2.078414e-08    9.031700e-12    1.685684e-08   -2.130928e+00
