# sky130 pfet_01v8 gm/ID Processed Lookup Table
# Corner: ss
# Temperature: 0C
# W = 2.0 um
# L = 4.32 um (4320 nm)
# Columns: gm/id [1/V]  gm/gds [V/V]  id/W [A/m]  ft [Hz]  Cgg/W [F/m]  Cgd/W [F/m]  Cgs/W [F/m]  Vov [V]
#         gm/id          gm/gds            id/W              ft           Cgg/W           Cgd/W           Cgs/W             Vov
    2.448868e+00    1.083781e+01    3.802890e+00    6.002399e+07    2.469303e-08    1.392344e-09    2.321599e-08   -2.884976e+00
    2.473453e+00    1.138418e+01    3.756379e+00    5.997667e+07    2.465534e-08    1.346201e-09    2.321233e-08   -2.879976e+00
    2.498188e+00    1.196488e+01    3.709981e+00    5.991816e+07    2.461833e-08    1.301296e-09    2.320818e-08   -2.874976e+00
    2.523073e+00    1.258190e+01    3.663700e+00    5.984847e+07    2.458197e-08    1.257622e-09    2.320355e-08   -2.869976e+00
    2.548101e+00    1.323729e+01    3.617545e+00    5.976749e+07    2.454628e-08    1.215167e-09    2.319845e-08   -2.864976e+00
    2.573273e+00    1.393311e+01    3.571524e+00    5.967522e+07    2.451125e-08    1.173919e-09    2.319290e-08   -2.859976e+00
    2.598589e+00    1.467155e+01    3.525643e+00    5.957174e+07    2.447686e-08    1.133864e-09    2.318689e-08   -2.854976e+00
    2.624049e+00    1.545481e+01    3.479909e+00    5.945705e+07    2.444311e-08    1.094985e-09    2.318042e-08   -2.849976e+00
    2.649652e+00    1.628510e+01    3.434330e+00    5.933120e+07    2.441000e-08    1.057267e-09    2.317351e-08   -2.844976e+00
    2.675403e+00    1.716473e+01    3.388914e+00    5.919439e+07    2.437751e-08    1.020691e-09    2.316616e-08   -2.839976e+00
    2.701305e+00    1.809601e+01    3.343666e+00    5.904670e+07    2.434563e-08    9.852390e-10    2.315838e-08   -2.834976e+00
    2.727361e+00    1.908128e+01    3.298593e+00    5.888832e+07    2.431434e-08    9.508905e-10    2.315017e-08   -2.829976e+00
    2.753580e+00    2.012290e+01    3.253703e+00    5.871946e+07    2.428363e-08    9.176245e-10    2.314155e-08   -2.824976e+00
    2.779964e+00    2.122323e+01    3.209002e+00    5.854029e+07    2.425350e-08    8.854195e-10    2.313251e-08   -2.819976e+00
    2.806524e+00    2.238467e+01    3.164496e+00    5.835110e+07    2.422392e-08    8.542535e-10    2.312307e-08   -2.814976e+00
    2.833267e+00    2.360958e+01    3.120192e+00    5.815209e+07    2.419489e-08    8.241035e-10    2.311322e-08   -2.809976e+00
    2.860201e+00    2.490034e+01    3.076094e+00    5.794354e+07    2.416637e-08    7.949465e-10    2.310298e-08   -2.804976e+00
    2.887340e+00    2.625934e+01    3.032211e+00    5.772575e+07    2.413837e-08    7.667585e-10    2.309235e-08   -2.799976e+00
    2.914691e+00    2.768890e+01    2.988546e+00    5.749896e+07    2.411086e-08    7.395165e-10    2.308133e-08   -2.794976e+00
    2.942266e+00    2.919134e+01    2.945106e+00    5.726345e+07    2.408382e-08    7.131955e-10    2.306993e-08   -2.789976e+00
    2.970080e+00    3.076901e+01    2.901895e+00    5.701958e+07    2.405725e-08    6.877720e-10    2.305817e-08   -2.784976e+00
    2.998142e+00    3.242415e+01    2.858919e+00    5.676756e+07    2.403112e-08    6.632215e-10    2.304602e-08   -2.779976e+00
    3.026468e+00    3.415904e+01    2.816183e+00    5.650774e+07    2.400541e-08    6.395200e-10    2.303351e-08   -2.774976e+00
    3.055070e+00    3.597587e+01    2.773690e+00    5.624035e+07    2.398011e-08    6.166435e-10    2.302064e-08   -2.769976e+00
    3.083962e+00    3.787684e+01    2.731446e+00    5.596573e+07    2.395519e-08    5.945680e-10    2.300741e-08   -2.764976e+00
    3.113161e+00    3.986410e+01    2.689455e+00    5.568415e+07    2.393064e-08    5.732695e-10    2.299382e-08   -2.759976e+00
    3.142681e+00    4.193978e+01    2.647720e+00    5.539589e+07    2.390644e-08    5.527245e-10    2.297987e-08   -2.754976e+00
    3.172538e+00    4.410594e+01    2.606246e+00    5.510121e+07    2.388258e-08    5.329105e-10    2.296557e-08   -2.749976e+00
    3.202745e+00    4.636462e+01    2.565037e+00    5.480034e+07    2.385904e-08    5.138035e-10    2.295092e-08   -2.744976e+00
    3.233323e+00    4.871787e+01    2.524096e+00    5.449361e+07    2.383578e-08    4.953819e-10    2.293592e-08   -2.739976e+00
    3.264281e+00    5.116761e+01    2.483426e+00    5.418116e+07    2.381281e-08    4.776231e-10    2.292057e-08   -2.734976e+00
    3.295642e+00    5.371584e+01    2.443031e+00    5.386331e+07    2.379009e-08    4.605054e-10    2.290487e-08   -2.729976e+00
    3.327421e+00    5.636450e+01    2.402914e+00    5.354025e+07    2.376762e-08    4.440077e-10    2.288882e-08   -2.724976e+00
    3.359637e+00    5.911549e+01    2.363077e+00    5.321224e+07    2.374536e-08    4.281090e-10    2.287242e-08   -2.719976e+00
    3.392305e+00    6.197068e+01    2.323524e+00    5.287944e+07    2.372331e-08    4.127890e-10    2.285566e-08   -2.714976e+00
    3.425443e+00    6.493191e+01    2.284257e+00    5.254205e+07    2.370144e-08    3.980278e-10    2.283855e-08   -2.709976e+00
    3.459072e+00    6.800114e+01    2.245278e+00    5.220030e+07    2.367974e-08    3.838061e-10    2.282109e-08   -2.704976e+00
    3.493207e+00    7.118008e+01    2.206592e+00    5.185431e+07    2.365819e-08    3.701048e-10    2.280327e-08   -2.699976e+00
    3.527869e+00    7.447073e+01    2.168198e+00    5.150431e+07    2.363676e-08    3.569058e-10    2.278508e-08   -2.694976e+00
    3.563080e+00    7.787491e+01    2.130101e+00    5.115046e+07    2.361545e-08    3.441910e-10    2.276653e-08   -2.689976e+00
    3.598854e+00    8.139445e+01    2.092302e+00    5.079288e+07    2.359424e-08    3.319431e-10    2.274762e-08   -2.684976e+00
    3.635215e+00    8.503119e+01    2.054803e+00    5.043172e+07    2.357309e-08    3.201453e-10    2.272832e-08   -2.679976e+00
    3.672184e+00    8.878713e+01    2.017606e+00    5.006717e+07    2.355200e-08    3.087814e-10    2.270865e-08   -2.674976e+00
    3.709782e+00    9.266418e+01    1.980714e+00    4.969934e+07    2.353095e-08    2.978354e-10    2.268859e-08   -2.669976e+00
    3.748030e+00    9.666428e+01    1.944127e+00    4.932833e+07    2.350993e-08    2.872919e-10    2.266814e-08   -2.664976e+00
    3.786948e+00    1.007893e+02    1.907848e+00    4.895426e+07    2.348890e-08    2.771361e-10    2.264729e-08   -2.659976e+00
    3.826563e+00    1.050415e+02    1.871878e+00    4.857728e+07    2.346786e-08    2.673538e-10    2.262603e-08   -2.654976e+00
    3.866899e+00    1.094228e+02    1.836219e+00    4.819749e+07    2.344678e-08    2.579310e-10    2.260436e-08   -2.649976e+00
    3.907976e+00    1.139355e+02    1.800874e+00    4.781495e+07    2.342564e-08    2.488543e-10    2.258227e-08   -2.644976e+00
    3.949821e+00    1.185815e+02    1.765842e+00    4.742979e+07    2.340444e-08    2.401107e-10    2.255974e-08   -2.639976e+00
    3.992461e+00    1.233634e+02    1.731127e+00    4.704211e+07    2.338314e-08    2.316878e-10    2.253677e-08   -2.634976e+00
    4.035921e+00    1.282833e+02    1.696728e+00    4.665196e+07    2.336174e-08    2.235735e-10    2.251335e-08   -2.629976e+00
    4.080228e+00    1.333438e+02    1.662648e+00    4.625945e+07    2.334020e-08    2.157561e-10    2.248946e-08   -2.624976e+00
    4.125411e+00    1.385472e+02    1.628888e+00    4.586463e+07    2.331852e-08    2.082244e-10    2.246510e-08   -2.619976e+00
    4.171499e+00    1.438963e+02    1.595451e+00    4.546758e+07    2.329667e-08    2.009677e-10    2.244025e-08   -2.614976e+00
    4.218522e+00    1.493936e+02    1.562335e+00    4.506837e+07    2.327463e-08    1.939755e-10    2.241490e-08   -2.609976e+00
    4.266512e+00    1.550420e+02    1.529543e+00    4.466706e+07    2.325238e-08    1.872377e-10    2.238904e-08   -2.604976e+00
    4.315503e+00    1.608444e+02    1.497077e+00    4.426373e+07    2.322992e-08    1.807448e-10    2.236264e-08   -2.599976e+00
    4.365524e+00    1.668038e+02    1.464938e+00    4.385840e+07    2.320721e-08    1.744874e-10    2.233571e-08   -2.594976e+00
    4.416609e+00    1.729232e+02    1.433126e+00    4.345110e+07    2.318422e-08    1.684566e-10    2.230820e-08   -2.589976e+00
    4.468800e+00    1.792061e+02    1.401643e+00    4.304194e+07    2.316096e-08    1.626437e-10    2.228013e-08   -2.584976e+00
    4.522134e+00    1.856558e+02    1.370489e+00    4.263094e+07    2.313738e-08    1.570404e-10    2.225146e-08   -2.579976e+00
    4.576639e+00    1.922756e+02    1.339668e+00    4.221809e+07    2.311348e-08    1.516390e-10    2.222217e-08   -2.574976e+00
    4.632369e+00    1.990695e+02    1.309178e+00    4.180350e+07    2.308922e-08    1.464315e-10    2.219227e-08   -2.569976e+00
    4.689356e+00    2.060412e+02    1.279022e+00    4.138716e+07    2.306459e-08    1.414108e-10    2.216170e-08   -2.564976e+00
    4.747645e+00    2.131945e+02    1.249200e+00    4.096908e+07    2.303957e-08    1.365696e-10    2.213046e-08   -2.559976e+00
    4.807285e+00    2.205339e+02    1.219715e+00    4.054934e+07    2.301412e-08    1.319012e-10    2.209854e-08   -2.554976e+00
    4.868317e+00    2.280634e+02    1.190566e+00    4.012792e+07    2.298824e-08    1.273990e-10    2.206589e-08   -2.549976e+00
    4.930792e+00    2.357877e+02    1.161755e+00    3.970487e+07    2.296188e-08    1.230568e-10    2.203251e-08   -2.544976e+00
    4.994763e+00    2.437114e+02    1.133282e+00    3.928018e+07    2.293504e-08    1.188686e-10    2.199837e-08   -2.539976e+00
    5.060277e+00    2.518393e+02    1.105150e+00    3.885389e+07    2.290768e-08    1.148284e-10    2.196343e-08   -2.534976e+00
    5.127390e+00    2.601764e+02    1.077359e+00    3.842599e+07    2.287978e-08    1.109308e-10    2.192769e-08   -2.529976e+00
    5.196164e+00    2.687283e+02    1.049910e+00    3.799653e+07    2.285131e-08    1.071703e-10    2.189110e-08   -2.524976e+00
    5.266649e+00    2.774999e+02    1.022804e+00    3.756543e+07    2.282225e-08    1.035419e-10    2.185365e-08   -2.519976e+00
    5.338906e+00    2.864970e+02    9.960430e-01    3.713275e+07    2.279258e-08    1.000406e-10    2.181530e-08   -2.514976e+00
    5.413007e+00    2.957256e+02    9.696265e-01    3.669848e+07    2.276225e-08    9.666155e-11    2.177603e-08   -2.509976e+00
    5.489011e+00    3.051917e+02    9.435570e-01    3.626263e+07    2.273124e-08    9.340025e-11    2.173580e-08   -2.504976e+00
    5.566986e+00    3.149014e+02    9.178350e-01    3.582515e+07    2.269953e-08    9.025240e-11    2.169457e-08   -2.499976e+00
    5.647002e+00    3.248614e+02    8.924620e-01    3.538606e+07    2.266708e-08    8.721370e-11    2.165233e-08   -2.494976e+00
    5.729141e+00    3.350781e+02    8.674380e-01    3.494535e+07    2.263386e-08    8.428010e-11    2.160903e-08   -2.489976e+00
    5.813468e+00    3.455586e+02    8.427655e-01    3.450297e+07    2.259986e-08    8.144780e-11    2.156464e-08   -2.484976e+00
    5.900072e+00    3.563099e+02    8.184445e-01    3.405894e+07    2.256501e-08    7.871295e-11    2.151912e-08   -2.479976e+00
    5.989027e+00    3.673393e+02    7.944770e-01    3.361320e+07    2.252931e-08    7.607200e-11    2.147244e-08   -2.474976e+00
    6.080424e+00    3.786544e+02    7.708635e-01    3.316575e+07    2.249271e-08    7.352155e-11    2.142455e-08   -2.469976e+00
    6.174349e+00    3.902626e+02    7.476055e-01    3.271654e+07    2.245517e-08    7.105830e-11    2.137541e-08   -2.464976e+00
    6.270893e+00    4.021720e+02    7.247040e-01    3.226555e+07    2.241667e-08    6.867900e-11    2.132500e-08   -2.459976e+00
    6.370150e+00    4.143904e+02    7.021605e-01    3.181274e+07    2.237717e-08    6.638060e-11    2.127325e-08   -2.454976e+00
    6.472218e+00    4.269263e+02    6.799760e-01    3.135806e+07    2.233663e-08    6.416025e-11    2.122014e-08   -2.449976e+00
    6.577199e+00    4.397875e+02    6.581515e-01    3.090148e+07    2.229502e-08    6.201500e-11    2.116561e-08   -2.444976e+00
    6.685195e+00    4.529828e+02    6.366885e-01    3.044295e+07    2.225228e-08    5.994225e-11    2.110962e-08   -2.439976e+00
    6.796317e+00    4.665206e+02    6.155880e-01    2.998242e+07    2.220839e-08    5.793940e-11    2.105212e-08   -2.434976e+00
    6.910669e+00    4.804088e+02    5.948515e-01    2.951984e+07    2.216332e-08    5.600385e-11    2.099307e-08   -2.429976e+00
    7.028370e+00    4.946568e+02    5.744800e-01    2.905516e+07    2.211701e-08    5.413325e-11    2.093242e-08   -2.424976e+00
    7.149524e+00    5.092719e+02    5.544755e-01    2.858833e+07    2.206942e-08    5.232530e-11    2.087011e-08   -2.419976e+00
    7.274260e+00    5.242632e+02    5.348385e-01    2.811929e+07    2.202051e-08    5.057775e-11    2.080610e-08   -2.414976e+00
    7.402704e+00    5.396385e+02    5.155700e-01    2.764798e+07    2.197024e-08    4.888846e-11    2.074032e-08   -2.409976e+00
    7.534959e+00    5.554058e+02    4.966726e-01    2.717435e+07    2.191856e-08    4.725540e-11    2.067274e-08   -2.404976e+00
    7.671163e+00    5.715725e+02    4.781466e-01    2.669834e+07    2.186544e-08    4.567659e-11    2.060329e-08   -2.399976e+00
    7.811437e+00    5.881451e+02    4.599936e-01    2.621989e+07    2.181082e-08    4.415011e-11    2.053191e-08   -2.394976e+00
    7.955907e+00    6.051312e+02    4.422149e-01    2.573895e+07    2.175466e-08    4.267415e-11    2.045856e-08   -2.389976e+00
    8.104697e+00    6.225358e+02    4.248118e-01    2.525548e+07    2.169691e-08    4.124695e-11    2.038317e-08   -2.384976e+00
    8.257936e+00    6.403637e+02    4.077857e-01    2.476942e+07    2.163753e-08    3.986681e-11    2.030569e-08   -2.379976e+00
    8.415743e+00    6.586199e+02    3.911376e-01    2.428073e+07    2.157647e-08    3.853212e-11    2.022605e-08   -2.374976e+00
    8.578242e+00    6.773068e+02    3.748689e-01    2.378937e+07    2.151369e-08    3.724129e-11    2.014421e-08   -2.369976e+00
    8.745547e+00    6.964258e+02    3.589808e-01    2.329533e+07    2.144912e-08    3.599284e-11    2.006009e-08   -2.364976e+00
    8.917772e+00    7.159774e+02    3.434744e-01    2.279858e+07    2.138273e-08    3.478531e-11    1.997364e-08   -2.359976e+00
    9.095022e+00    7.359596e+02    3.283509e-01    2.229911e+07    2.131447e-08    3.361730e-11    1.988479e-08   -2.354976e+00
    9.277392e+00    7.563687e+02    3.136112e-01    2.179693e+07    2.124429e-08    3.248748e-11    1.979349e-08   -2.349976e+00
    9.464970e+00    7.771988e+02    2.992563e-01    2.129207e+07    2.117214e-08    3.139455e-11    1.969967e-08   -2.344976e+00
    9.657836e+00    7.984416e+02    2.852869e-01    2.078457e+07    2.109797e-08    3.033727e-11    1.960328e-08   -2.339976e+00
    9.856040e+00    8.200852e+02    2.717040e-01    2.027449e+07    2.102173e-08    2.931444e-11    1.950425e-08   -2.334976e+00
    1.005964e+01    8.421156e+02    2.585078e-01    1.976192e+07    2.094339e-08    2.832491e-11    1.940251e-08   -2.329976e+00
    1.026864e+01    8.645143e+02    2.456991e-01    1.924697e+07    2.086289e-08    2.736756e-11    1.929802e-08   -2.324976e+00
    1.048306e+01    8.872594e+02    2.332780e-01    1.872978e+07    2.078018e-08    2.644134e-11    1.919071e-08   -2.319976e+00
    1.070287e+01    9.103250e+02    2.212444e-01    1.821053e+07    2.069523e-08    2.554519e-11    1.908053e-08   -2.314976e+00
    1.092802e+01    9.336802e+02    2.095983e-01    1.768944e+07    2.060798e-08    2.467814e-11    1.896741e-08   -2.309976e+00
    1.115841e+01    9.572889e+02    1.983392e-01    1.716674e+07    2.051839e-08    2.383922e-11    1.885130e-08   -2.304976e+00
    1.139393e+01    9.811109e+02    1.874665e-01    1.664274e+07    2.042643e-08    2.302752e-11    1.873215e-08   -2.299976e+00
    1.163441e+01    1.005099e+03    1.769791e-01    1.611778e+07    2.033205e-08    2.224214e-11    1.860991e-08   -2.294976e+00
    1.187963e+01    1.029202e+03    1.668756e-01    1.559222e+07    2.023522e-08    2.148222e-11    1.848451e-08   -2.289976e+00
    1.212936e+01    1.053360e+03    1.571542e-01    1.506653e+07    2.013590e-08    2.074695e-11    1.835592e-08   -2.284976e+00
    1.238327e+01    1.077510e+03    1.478129e-01    1.454117e+07    2.003405e-08    2.003551e-11    1.822411e-08   -2.279976e+00
    1.264100e+01    1.101581e+03    1.388492e-01    1.401669e+07    1.992965e-08    1.934715e-11    1.808901e-08   -2.274976e+00
    1.290213e+01    1.125496e+03    1.302600e-01    1.349367e+07    1.982268e-08    1.868112e-11    1.795058e-08   -2.269976e+00
    1.316617e+01    1.149172e+03    1.220417e-01    1.297278e+07    1.971309e-08    1.803671e-11    1.780881e-08   -2.264976e+00
    1.343257e+01    1.172521e+03    1.141903e-01    1.245468e+07    1.960089e-08    1.741322e-11    1.766366e-08   -2.259976e+00
    1.370072e+01    1.195449e+03    1.067014e-01    1.194016e+07    1.948603e-08    1.680998e-11    1.751509e-08   -2.254976e+00
    1.396993e+01    1.217858e+03    9.956965e-02    1.142997e+07    1.936852e-08    1.622637e-11    1.736309e-08   -2.249976e+00
    1.423947e+01    1.239645e+03    9.278955e-02    1.092495e+07    1.924835e-08    1.566174e-11    1.720765e-08   -2.244976e+00
    1.450853e+01    1.260708e+03    8.635475e-02    1.042599e+07    1.912549e-08    1.511552e-11    1.704875e-08   -2.239976e+00
    1.477625e+01    1.280939e+03    8.025835e-02    9.933944e+06    1.899997e-08    1.458710e-11    1.688638e-08   -2.234976e+00
    1.504171e+01    1.300232e+03    7.449295e-02    9.449737e+06    1.887178e-08    1.407593e-11    1.672055e-08   -2.229976e+00
    1.530395e+01    1.318483e+03    6.905055e-02    8.974277e+06    1.874094e-08    1.358147e-11    1.655126e-08   -2.224976e+00
    1.556197e+01    1.335592e+03    6.392255e-02    8.508485e+06    1.860744e-08    1.310321e-11    1.637853e-08   -2.219976e+00
    1.581476e+01    1.351462e+03    5.909985e-02    8.053248e+06    1.847133e-08    1.264063e-11    1.620237e-08   -2.214976e+00
    1.606129e+01    1.366002e+03    5.457280e-02    7.609434e+06    1.833261e-08    1.219324e-11    1.602282e-08   -2.209976e+00
    1.630053e+01    1.379134e+03    5.033130e-02    7.177867e+06    1.819134e-08    1.176057e-11    1.583990e-08   -2.204976e+00
    1.653147e+01    1.390789e+03    4.636495e-02    6.759328e+06    1.804754e-08    1.134217e-11    1.565367e-08   -2.199976e+00
    1.675314e+01    1.400908e+03    4.266284e-02    6.354514e+06    1.790127e-08    1.093759e-11    1.546418e-08   -2.194976e+00
    1.696463e+01    1.409450e+03    3.921382e-02    5.964070e+06    1.775256e-08    1.054640e-11    1.527147e-08   -2.189976e+00
    1.716508e+01    1.416386e+03    3.600653e-02    5.588533e+06    1.760149e-08    1.016818e-11    1.507562e-08   -2.184976e+00
    1.735375e+01    1.421707e+03    3.302940e-02    5.228362e+06    1.744811e-08    9.802545e-12    1.487672e-08   -2.179976e+00
    1.752998e+01    1.425417e+03    3.027080e-02    4.883907e+06    1.729251e-08    9.449100e-12    1.467484e-08   -2.174976e+00
    1.769325e+01    1.427542e+03    2.771905e-02    4.555416e+06    1.713476e-08    9.107470e-12    1.447008e-08   -2.169976e+00
    1.784315e+01    1.428120e+03    2.536254e-02    4.243031e+06    1.697494e-08    8.777280e-12    1.426253e-08   -2.164976e+00
    1.797943e+01    1.427211e+03    2.318977e-02    3.946786e+06    1.681315e-08    8.458190e-12    1.405231e-08   -2.159976e+00
    1.810201e+01    1.424886e+03    2.118941e-02    3.666612e+06    1.664948e-08    8.149845e-12    1.383954e-08   -2.154976e+00
    1.821091e+01    1.421234e+03    1.935042e-02    3.402342e+06    1.648406e-08    7.851925e-12    1.362435e-08   -2.149976e+00
    1.830636e+01    1.416354e+03    1.766200e-02    3.153712e+06    1.631699e-08    7.564100e-12    1.340687e-08   -2.144976e+00
    1.838873e+01    1.410358e+03    1.611374e-02    2.920379e+06    1.614838e-08    7.286060e-12    1.318725e-08   -2.139976e+00
    1.845850e+01    1.403364e+03    1.469561e-02    2.701917e+06    1.597836e-08    7.017505e-12    1.296565e-08   -2.134976e+00
    1.851633e+01    1.395500e+03    1.339802e-02    2.497837e+06    1.580708e-08    6.758135e-12    1.274221e-08   -2.129976e+00
