# sky130 pfet_01v8 gm/ID Processed Lookup Table
# Corner: ss
# Temperature: 0C
# W = 2.0 um
# L = 1.8 um (1800 nm)
# Columns: gm/id [1/V]  gm/gds [V/V]  id/W [A/m]  ft [Hz]  Cgg/W [F/m]  Cgd/W [F/m]  Cgs/W [F/m]  Vov [V]
#         gm/id          gm/gds            id/W              ft           Cgg/W           Cgd/W           Cgs/W             Vov
    2.364811e+00    8.142646e+00    9.116815e+00    3.276906e+08    1.047118e-08    5.174520e-10    9.750840e-09   -2.878665e+00
    2.389228e+00    8.491123e+00    9.009105e+00    3.275919e+08    1.045746e-08    5.004995e-10    9.749160e-09   -2.873665e+00
    2.413838e+00    8.858468e+00    8.901570e+00    3.274376e+08    1.044399e-08    4.840180e-10    9.747290e-09   -2.868665e+00
    2.438631e+00    9.245560e+00    8.794240e+00    3.272264e+08    1.043077e-08    4.680015e-10    9.745235e-09   -2.863665e+00
    2.463608e+00    9.653300e+00    8.687120e+00    3.269583e+08    1.041778e-08    4.524440e-10    9.742995e-09   -2.858665e+00
    2.488764e+00    1.008259e+01    8.580230e+00    3.266322e+08    1.040504e-08    4.373389e-10    9.740575e-09   -2.853665e+00
    2.514097e+00    1.053433e+01    8.473585e+00    3.262478e+08    1.039254e-08    4.226791e-10    9.737975e-09   -2.848665e+00
    2.539607e+00    1.100943e+01    8.367200e+00    3.258055e+08    1.038027e-08    4.084572e-10    9.735205e-09   -2.843665e+00
    2.565291e+00    1.150880e+01    8.261095e+00    3.253044e+08    1.036823e-08    3.946656e-10    9.732255e-09   -2.838665e+00
    2.591150e+00    1.203335e+01    8.155285e+00    3.247452e+08    1.035641e-08    3.812961e-10    9.729140e-09   -2.833665e+00
    2.617184e+00    1.258395e+01    8.049785e+00    3.241280e+08    1.034480e-08    3.683406e-10    9.725855e-09   -2.828665e+00
    2.643397e+00    1.316149e+01    7.944610e+00    3.234532e+08    1.033341e-08    3.557904e-10    9.722410e-09   -2.823665e+00
    2.669789e+00    1.376683e+01    7.839780e+00    3.227213e+08    1.032223e-08    3.436369e-10    9.718800e-09   -2.818665e+00
    2.696365e+00    1.440083e+01    7.735310e+00    3.219330e+08    1.031125e-08    3.318712e-10    9.715030e-09   -2.813665e+00
    2.723129e+00    1.506429e+01    7.631215e+00    3.210890e+08    1.030046e-08    3.204844e-10    9.711105e-09   -2.808665e+00
    2.750087e+00    1.575804e+01    7.527510e+00    3.201904e+08    1.028987e-08    3.094674e-10    9.707020e-09   -2.803665e+00
    2.777247e+00    1.648285e+01    7.424205e+00    3.192381e+08    1.027945e-08    2.988110e-10    9.702785e-09   -2.798665e+00
    2.804613e+00    1.723947e+01    7.321325e+00    3.182330e+08    1.026922e-08    2.885061e-10    9.698400e-09   -2.793665e+00
    2.832195e+00    1.802865e+01    7.218875e+00    3.171766e+08    1.025915e-08    2.785435e-10    9.693870e-09   -2.788665e+00
    2.860000e+00    1.885106e+01    7.116875e+00    3.160700e+08    1.024926e-08    2.689141e-10    9.689190e-09   -2.783665e+00
    2.888039e+00    1.970741e+01    7.015340e+00    3.149144e+08    1.023952e-08    2.596085e-10    9.684365e-09   -2.778665e+00
    2.916324e+00    2.059833e+01    6.914275e+00    3.137111e+08    1.022993e-08    2.506179e-10    9.679400e-09   -2.773665e+00
    2.944863e+00    2.152447e+01    6.813700e+00    3.124616e+08    1.022049e-08    2.419331e-10    9.674290e-09   -2.768665e+00
    2.973668e+00    2.248642e+01    6.713625e+00    3.111672e+08    1.021118e-08    2.335454e-10    9.669040e-09   -2.763665e+00
    3.002752e+00    2.348476e+01    6.614065e+00    3.098292e+08    1.020201e-08    2.254456e-10    9.663650e-09   -2.758665e+00
    3.032130e+00    2.452006e+01    6.515025e+00    3.084493e+08    1.019296e-08    2.176254e-10    9.658125e-09   -2.753665e+00
    3.061814e+00    2.559287e+01    6.416520e+00    3.070284e+08    1.018403e-08    2.100760e-10    9.652460e-09   -2.748665e+00
    3.091814e+00    2.670370e+01    6.318565e+00    3.055681e+08    1.017522e-08    2.027890e-10    9.646660e-09   -2.743665e+00
    3.122146e+00    2.785310e+01    6.221170e+00    3.040699e+08    1.016651e-08    1.957561e-10    9.640725e-09   -2.738665e+00
    3.152829e+00    2.904154e+01    6.124335e+00    3.025351e+08    1.015790e-08    1.889692e-10    9.634655e-09   -2.733665e+00
    3.183874e+00    3.026954e+01    6.028080e+00    3.009648e+08    1.014938e-08    1.824203e-10    9.628450e-09   -2.728665e+00
    3.215298e+00    3.153758e+01    5.932410e+00    2.993602e+08    1.014095e-08    1.761016e-10    9.622105e-09   -2.723665e+00
    3.247113e+00    3.284617e+01    5.837340e+00    2.977228e+08    1.013259e-08    1.700056e-10    9.615630e-09   -2.718665e+00
    3.279342e+00    3.419579e+01    5.742870e+00    2.960538e+08    1.012430e-08    1.641248e-10    9.609015e-09   -2.713665e+00
    3.311996e+00    3.558694e+01    5.649015e+00    2.943540e+08    1.011609e-08    1.584518e-10    9.602265e-09   -2.708665e+00
    3.345096e+00    3.702011e+01    5.555780e+00    2.926250e+08    1.010793e-08    1.529797e-10    9.595380e-09   -2.703665e+00
    3.378658e+00    3.849585e+01    5.463170e+00    2.908676e+08    1.009983e-08    1.477017e-10    9.588355e-09   -2.698665e+00
    3.412698e+00    4.001466e+01    5.371200e+00    2.890828e+08    1.009177e-08    1.426109e-10    9.581190e-09   -2.693665e+00
    3.447238e+00    4.157709e+01    5.279870e+00    2.872718e+08    1.008374e-08    1.377009e-10    9.573890e-09   -2.688665e+00
    3.482295e+00    4.318369e+01    5.189190e+00    2.854353e+08    1.007576e-08    1.329653e-10    9.566445e-09   -2.683665e+00
    3.517885e+00    4.483506e+01    5.099170e+00    2.835745e+08    1.006779e-08    1.283981e-10    9.558855e-09   -2.678665e+00
    3.554034e+00    4.653181e+01    5.009810e+00    2.816900e+08    1.005985e-08    1.239934e-10    9.551125e-09   -2.673665e+00
    3.590756e+00    4.827456e+01    4.921120e+00    2.797828e+08    1.005192e-08    1.197451e-10    9.543240e-09   -2.668665e+00
    3.628075e+00    5.006399e+01    4.833107e+00    2.778538e+08    1.004399e-08    1.156480e-10    9.535210e-09   -2.663665e+00
    3.666011e+00    5.190078e+01    4.745774e+00    2.759035e+08    1.003607e-08    1.116964e-10    9.527030e-09   -2.658665e+00
    3.704586e+00    5.378567e+01    4.659128e+00    2.739328e+08    1.002814e-08    1.078852e-10    9.518690e-09   -2.653665e+00
    3.743822e+00    5.571943e+01    4.573174e+00    2.719424e+08    1.002020e-08    1.042093e-10    9.510200e-09   -2.648665e+00
    3.783741e+00    5.770286e+01    4.487918e+00    2.699329e+08    1.001223e-08    1.006639e-10    9.501540e-09   -2.643665e+00
    3.824369e+00    5.973682e+01    4.403364e+00    2.679049e+08    1.000424e-08    9.724410e-11    9.492725e-09   -2.638665e+00
    3.865728e+00    6.182221e+01    4.319519e+00    2.658590e+08    9.996210e-09    9.394545e-11    9.483735e-09   -2.633665e+00
    3.907843e+00    6.395993e+01    4.236385e+00    2.637959e+08    9.988140e-09    9.076350e-11    9.474575e-09   -2.628665e+00
    3.950741e+00    6.615100e+01    4.153969e+00    2.617160e+08    9.980025e-09    8.769400e-11    9.465240e-09   -2.623665e+00
    3.994448e+00    6.839646e+01    4.072274e+00    2.596198e+08    9.971855e-09    8.473285e-11    9.455725e-09   -2.618665e+00
    4.038991e+00    7.069740e+01    3.991306e+00    2.575079e+08    9.963625e-09    8.187600e-11    9.446025e-09   -2.613665e+00
    4.084398e+00    7.305496e+01    3.911067e+00    2.553807e+08    9.955325e-09    7.911975e-11    9.436135e-09   -2.608665e+00
    4.130698e+00    7.547035e+01    3.831564e+00    2.532384e+08    9.946950e-09    7.646035e-11    9.426055e-09   -2.603665e+00
    4.177923e+00    7.794484e+01    3.752798e+00    2.510818e+08    9.938490e-09    7.389420e-11    9.415770e-09   -2.598665e+00
    4.226103e+00    8.047979e+01    3.674775e+00    2.489112e+08    9.929940e-09    7.141795e-11    9.405280e-09   -2.593665e+00
    4.275270e+00    8.307654e+01    3.597500e+00    2.467267e+08    9.921290e-09    6.902825e-11    9.394580e-09   -2.588665e+00
    4.325458e+00    8.573660e+01    3.520974e+00    2.445290e+08    9.912535e-09    6.672195e-11    9.383660e-09   -2.583665e+00
    4.376700e+00    8.846149e+01    3.445203e+00    2.423179e+08    9.903670e-09    6.449600e-11    9.372515e-09   -2.578665e+00
    4.429036e+00    9.125285e+01    3.370189e+00    2.400943e+08    9.894680e-09    6.234735e-11    9.361145e-09   -2.573665e+00
    4.482499e+00    9.411229e+01    3.295937e+00    2.378581e+08    9.885560e-09    6.027330e-11    9.349530e-09   -2.568665e+00
    4.537130e+00    9.704166e+01    3.222450e+00    2.356096e+08    9.876305e-09    5.827105e-11    9.337670e-09   -2.563665e+00
    4.592969e+00    1.000428e+02    3.149732e+00    2.333493e+08    9.866900e-09    5.633790e-11    9.325560e-09   -2.558665e+00
    4.650058e+00    1.031176e+02    3.077785e+00    2.310772e+08    9.857340e-09    5.447145e-11    9.313190e-09   -2.553665e+00
    4.708439e+00    1.062682e+02    3.006614e+00    2.287935e+08    9.847615e-09    5.266920e-11    9.300545e-09   -2.548665e+00
    4.768157e+00    1.094965e+02    2.936222e+00    2.264983e+08    9.837720e-09    5.092875e-11    9.287625e-09   -2.543665e+00
    4.829262e+00    1.128049e+02    2.866611e+00    2.241920e+08    9.827645e-09    4.924793e-11    9.274415e-09   -2.538665e+00
    4.891796e+00    1.161956e+02    2.797786e+00    2.218746e+08    9.817375e-09    4.762453e-11    9.260905e-09   -2.533665e+00
    4.955816e+00    1.196712e+02    2.729751e+00    2.195464e+08    9.806905e-09    4.605646e-11    9.247095e-09   -2.528665e+00
    5.021371e+00    1.232340e+02    2.662506e+00    2.172072e+08    9.796225e-09    4.454172e-11    9.232960e-09   -2.523665e+00
    5.088515e+00    1.268867e+02    2.596057e+00    2.148573e+08    9.785325e-09    4.307836e-11    9.218500e-09   -2.518665e+00
    5.157308e+00    1.306321e+02    2.530406e+00    2.124968e+08    9.774195e-09    4.166454e-11    9.203700e-09   -2.513665e+00
    5.227805e+00    1.344730e+02    2.465558e+00    2.101258e+08    9.762820e-09    4.029846e-11    9.188555e-09   -2.508665e+00
    5.300071e+00    1.384125e+02    2.401513e+00    2.077443e+08    9.751190e-09    3.897840e-11    9.173040e-09   -2.503665e+00
    5.374168e+00    1.424535e+02    2.338277e+00    2.053523e+08    9.739300e-09    3.770271e-11    9.157155e-09   -2.498665e+00
    5.450161e+00    1.465994e+02    2.275851e+00    2.029497e+08    9.727135e-09    3.646979e-11    9.140880e-09   -2.493665e+00
    5.528120e+00    1.508535e+02    2.214240e+00    2.005367e+08    9.714680e-09    3.527811e-11    9.124200e-09   -2.488665e+00
    5.608117e+00    1.552194e+02    2.153447e+00    1.981131e+08    9.701930e-09    3.412620e-11    9.107110e-09   -2.483665e+00
    5.690225e+00    1.597004e+02    2.093473e+00    1.956790e+08    9.688865e-09    3.301264e-11    9.089590e-09   -2.478665e+00
    5.774523e+00    1.643006e+02    2.034324e+00    1.932342e+08    9.675475e-09    3.193607e-11    9.071630e-09   -2.473665e+00
    5.861090e+00    1.690240e+02    1.976002e+00    1.907788e+08    9.661750e-09    3.089518e-11    9.053205e-09   -2.468665e+00
    5.950011e+00    1.738745e+02    1.918510e+00    1.883126e+08    9.647675e-09    2.988870e-11    9.034310e-09   -2.463665e+00
    6.041371e+00    1.788562e+02    1.861851e+00    1.858354e+08    9.633235e-09    2.891542e-11    9.014925e-09   -2.458665e+00
    6.135260e+00    1.839735e+02    1.806030e+00    1.833473e+08    9.618415e-09    2.797417e-11    8.995035e-09   -2.453665e+00
    6.231768e+00    1.892313e+02    1.751048e+00    1.808478e+08    9.603205e-09    2.706383e-11    8.974615e-09   -2.448665e+00
    6.330995e+00    1.946336e+02    1.696910e+00    1.783369e+08    9.587590e-09    2.618333e-11    8.953660e-09   -2.443665e+00
    6.433042e+00    2.001857e+02    1.643617e+00    1.758147e+08    9.571545e-09    2.533161e-11    8.932140e-09   -2.438665e+00
    6.538004e+00    2.058924e+02    1.591176e+00    1.732805e+08    9.555070e-09    2.450767e-11    8.910045e-09   -2.433665e+00
    6.645998e+00    2.117587e+02    1.539588e+00    1.707345e+08    9.538135e-09    2.371057e-11    8.887355e-09   -2.428665e+00
    6.757124e+00    2.177899e+02    1.488856e+00    1.681761e+08    9.520735e-09    2.293937e-11    8.864045e-09   -2.423665e+00
    6.871500e+00    2.239913e+02    1.438985e+00    1.656053e+08    9.502845e-09    2.219316e-11    8.840095e-09   -2.418665e+00
    6.989243e+00    2.303685e+02    1.389978e+00    1.630219e+08    9.484450e-09    2.147111e-11    8.815490e-09   -2.413665e+00
    7.110466e+00    2.369268e+02    1.341838e+00    1.604253e+08    9.465535e-09    2.077238e-11    8.790205e-09   -2.408665e+00
    7.235298e+00    2.436721e+02    1.294568e+00    1.578155e+08    9.446085e-09    2.009616e-11    8.764220e-09   -2.403665e+00
    7.363862e+00    2.506098e+02    1.248172e+00    1.551920e+08    9.426080e-09    1.944172e-11    8.737510e-09   -2.398665e+00
    7.496285e+00    2.577460e+02    1.202655e+00    1.525547e+08    9.405495e-09    1.880829e-11    8.710055e-09   -2.393665e+00
    7.632691e+00    2.650862e+02    1.158019e+00    1.499032e+08    9.384320e-09    1.819517e-11    8.681835e-09   -2.388665e+00
    7.773221e+00    2.726363e+02    1.114268e+00    1.472373e+08    9.362530e-09    1.760168e-11    8.652815e-09   -2.383665e+00
    7.917997e+00    2.804019e+02    1.071406e+00    1.445565e+08    9.340110e-09    1.702716e-11    8.622985e-09   -2.378665e+00
    8.067159e+00    2.883885e+02    1.029436e+00    1.418606e+08    9.317040e-09    1.647097e-11    8.592310e-09   -2.373665e+00
    8.220837e+00    2.966019e+02    9.883610e-01    1.391496e+08    9.293300e-09    1.593251e-11    8.560770e-09   -2.368665e+00
    8.379167e+00    3.050470e+02    9.481850e-01    1.364229e+08    9.268870e-09    1.541119e-11    8.528340e-09   -2.363665e+00
    8.542268e+00    3.137289e+02    9.089120e-01    1.336805e+08    9.243730e-09    1.490642e-11    8.494990e-09   -2.358665e+00
    8.710278e+00    3.226521e+02    8.705445e-01    1.309222e+08    9.217855e-09    1.441768e-11    8.460700e-09   -2.353665e+00
    8.883315e+00    3.318210e+02    8.330860e-01    1.281479e+08    9.191230e-09    1.394444e-11    8.425440e-09   -2.348665e+00
    9.061497e+00    3.412393e+02    7.965400e-01    1.253576e+08    9.163830e-09    1.348618e-11    8.389185e-09   -2.343665e+00
    9.244929e+00    3.509097e+02    7.609090e-01    1.225512e+08    9.135640e-09    1.304242e-11    8.351905e-09   -2.338665e+00
    9.433720e+00    3.608347e+02    7.261955e-01    1.197288e+08    9.106635e-09    1.261268e-11    8.313580e-09   -2.333665e+00
    9.627955e+00    3.710157e+02    6.924025e-01    1.168908e+08    9.076795e-09    1.219652e-11    8.274185e-09   -2.328665e+00
    9.827711e+00    3.814530e+02    6.595320e-01    1.140373e+08    9.046105e-09    1.179348e-11    8.233680e-09   -2.323665e+00
    1.003306e+01    3.921461e+02    6.275860e-01    1.111689e+08    9.014535e-09    1.140317e-11    8.192050e-09   -2.318665e+00
    1.024401e+01    4.030924e+02    5.965665e-01    1.082862e+08    8.982065e-09    1.102515e-11    8.149270e-09   -2.313665e+00
    1.046062e+01    4.142884e+02    5.664740e-01    1.053897e+08    8.948685e-09    1.065904e-11    8.105305e-09   -2.308665e+00
    1.068286e+01    4.257286e+02    5.373100e-01    1.024807e+08    8.914365e-09    1.030446e-11    8.060135e-09   -2.303665e+00
    1.091069e+01    4.374055e+02    5.090740e-01    9.956001e+07    8.879090e-09    9.961055e-12    8.013730e-09   -2.298665e+00
    1.114407e+01    4.493102e+02    4.817660e-01    9.662915e+07    8.842845e-09    9.628455e-12    7.966070e-09   -2.293665e+00
    1.138287e+01    4.614301e+02    4.553851e-01    9.368964e+07    8.805605e-09    9.306325e-12    7.917130e-09   -2.288665e+00
    1.162697e+01    4.737518e+02    4.299294e-01    9.074348e+07    8.767350e-09    8.994335e-12    7.866885e-09   -2.283665e+00
    1.187616e+01    4.862572e+02    4.053964e-01    8.779253e+07    8.728075e-09    8.692170e-12    7.815315e-09   -2.278665e+00
    1.213021e+01    4.989269e+02    3.817826e-01    8.483935e+07    8.687750e-09    8.399520e-12    7.762390e-09   -2.273665e+00
    1.238884e+01    5.117370e+02    3.590837e-01    8.188655e+07    8.646370e-09    8.116095e-12    7.708100e-09   -2.268665e+00
    1.265169e+01    5.246611e+02    3.372943e-01    7.893715e+07    8.603915e-09    7.841605e-12    7.652420e-09   -2.263665e+00
    1.291835e+01    5.376694e+02    3.164079e-01    7.599441e+07    8.560375e-09    7.575770e-12    7.595330e-09   -2.258665e+00
    1.318835e+01    5.507282e+02    2.964169e-01    7.306199e+07    8.515735e-09    7.318330e-12    7.536820e-09   -2.253665e+00
    1.346116e+01    5.638005e+02    2.773122e-01    7.014373e+07    8.469990e-09    7.069025e-12    7.476865e-09   -2.248665e+00
    1.373617e+01    5.768451e+02    2.590838e-01    6.724390e+07    8.423125e-09    6.827605e-12    7.415460e-09   -2.243665e+00
    1.401270e+01    5.898189e+02    2.417200e-01    6.436696e+07    8.375130e-09    6.593830e-12    7.352595e-09   -2.238665e+00
    1.429002e+01    6.026739e+02    2.252077e-01    6.151756e+07    8.326010e-09    6.367465e-12    7.288250e-09   -2.233665e+00
    1.456729e+01    6.153600e+02    2.095327e-01    5.870071e+07    8.275750e-09    6.148290e-12    7.222430e-09   -2.228665e+00
    1.484366e+01    6.278248e+02    1.946790e-01    5.592144e+07    8.224355e-09    5.936080e-12    7.155120e-09   -2.223665e+00
    1.511820e+01    6.400136e+02    1.806292e-01    5.318498e+07    8.171825e-09    5.730625e-12    7.086330e-09   -2.218665e+00
    1.538991e+01    6.518703e+02    1.673646e-01    5.049664e+07    8.118155e-09    5.531730e-12    7.016045e-09   -2.213665e+00
    1.565779e+01    6.633383e+02    1.548650e-01    4.786167e+07    8.063355e-09    5.339185e-12    6.944280e-09   -2.208665e+00
    1.592077e+01    6.743611e+02    1.431088e-01    4.528527e+07    8.007435e-09    5.152805e-12    6.871040e-09   -2.203665e+00
    1.617779e+01    6.848834e+02    1.320731e-01    4.277255e+07    7.950395e-09    4.972410e-12    6.796330e-09   -2.198665e+00
    1.642779e+01    6.948517e+02    1.217340e-01    4.032830e+07    7.892255e-09    4.797814e-12    6.720160e-09   -2.193665e+00
    1.666969e+01    7.042163e+02    1.120664e-01    3.795713e+07    7.833025e-09    4.628846e-12    6.642555e-09   -2.188665e+00
    1.690249e+01    7.129312e+02    1.030441e-01    3.566322e+07    7.772725e-09    4.465337e-12    6.563530e-09   -2.183665e+00
    1.712522e+01    7.209553e+02    9.464025e-02    3.345034e+07    7.711370e-09    4.307124e-12    6.483105e-09   -2.178665e+00
    1.733698e+01    7.282551e+02    8.682745e-02    3.132178e+07    7.648990e-09    4.154050e-12    6.401310e-09   -2.173665e+00
    1.753695e+01    7.348026e+02    7.957765e-02    2.928028e+07    7.585605e-09    4.005962e-12    6.318175e-09   -2.168665e+00
    1.772447e+01    7.405788e+02    7.286250e-02    2.732800e+07    7.521245e-09    3.862711e-12    6.233730e-09   -2.163665e+00
    1.789895e+01    7.455728e+02    6.665365e-02    2.546648e+07    7.455945e-09    3.724154e-12    6.148015e-09   -2.158665e+00
    1.805996e+01    7.497824e+02    6.092275e-02    2.369668e+07    7.389735e-09    3.590150e-12    6.061075e-09   -2.153665e+00
    1.820723e+01    7.532150e+02    5.564170e-02    2.201891e+07    7.322655e-09    3.460563e-12    5.972950e-09   -2.148665e+00
    1.834062e+01    7.558866e+02    5.078280e-02    2.043282e+07    7.254750e-09    3.335263e-12    5.883695e-09   -2.143665e+00
    1.846021e+01    7.578229e+02    4.631891e-02    1.893758e+07    7.186055e-09    3.214121e-12    5.793355e-09   -2.138665e+00
    1.856619e+01    7.590567e+02    4.222357e-02    1.753169e+07    7.116625e-09    3.097013e-12    5.701995e-09   -2.133665e+00
    1.865898e+01    7.596303e+02    3.847122e-02    1.621326e+07    7.046500e-09    2.983820e-12    5.609670e-09   -2.128665e+00
    1.873908e+01    7.595908e+02    3.503719e-02    1.497983e+07    6.975745e-09    2.874423e-12    5.516440e-09   -2.123665e+00
