# sky130 pfet_01v8 gm/ID Processed Lookup Table
# Corner: ss
# Temperature: 0C
# W = 2.0 um
# L = 4.14 um (4140 nm)
# Columns: gm/id [1/V]  gm/gds [V/V]  id/W [A/m]  ft [Hz]  Cgg/W [F/m]  Cgd/W [F/m]  Cgs/W [F/m]  Vov [V]
#         gm/id          gm/gds            id/W              ft           Cgg/W           Cgd/W           Cgs/W             Vov
    2.444078e+00    1.068575e+01    3.969956e+00    6.521620e+07    2.367911e-08    1.324442e-09    2.225753e-08   -2.884811e+00
    2.468649e+00    1.121921e+01    3.921495e+00    6.516640e+07    2.364327e-08    1.280560e-09    2.225397e-08   -2.879811e+00
    2.493372e+00    1.178580e+01    3.873150e+00    6.510453e+07    2.360807e-08    1.237860e-09    2.224995e-08   -2.874811e+00
    2.518245e+00    1.238738e+01    3.824926e+00    6.503049e+07    2.357350e-08    1.196333e-09    2.224549e-08   -2.869811e+00
    2.543263e+00    1.302588e+01    3.776832e+00    6.494423e+07    2.353957e-08    1.155967e-09    2.224057e-08   -2.864811e+00
    2.568427e+00    1.370328e+01    3.728874e+00    6.484578e+07    2.350625e-08    1.116751e-09    2.223521e-08   -2.859811e+00
    2.593735e+00    1.442160e+01    3.681061e+00    6.473508e+07    2.347356e-08    1.078671e-09    2.222942e-08   -2.854811e+00
    2.619188e+00    1.518289e+01    3.633399e+00    6.461226e+07    2.344148e-08    1.041712e-09    2.222318e-08   -2.849811e+00
    2.644787e+00    1.598926e+01    3.585898e+00    6.447739e+07    2.340999e-08    1.005858e-09    2.221653e-08   -2.844811e+00
    2.670535e+00    1.684283e+01    3.538562e+00    6.433061e+07    2.337909e-08    9.710910e-10    2.220946e-08   -2.839811e+00
    2.696435e+00    1.774575e+01    3.491401e+00    6.417202e+07    2.334878e-08    9.373935e-10    2.220198e-08   -2.834811e+00
    2.722491e+00    1.870019e+01    3.444421e+00    6.400183e+07    2.331903e-08    9.047455e-10    2.219409e-08   -2.829811e+00
    2.748709e+00    1.970834e+01    3.397630e+00    6.382027e+07    2.328983e-08    8.731275e-10    2.218580e-08   -2.824811e+00
    2.775095e+00    2.077237e+01    3.351033e+00    6.362753e+07    2.326118e-08    8.425185e-10    2.217711e-08   -2.819811e+00
    2.801659e+00    2.189448e+01    3.304637e+00    6.342391e+07    2.323305e-08    8.128975e-10    2.216804e-08   -2.814811e+00
    2.828405e+00    2.307684e+01    3.258450e+00    6.320961e+07    2.320543e-08    7.842425e-10    2.215858e-08   -2.809811e+00
    2.855343e+00    2.432161e+01    3.212477e+00    6.298493e+07    2.317831e-08    7.565315e-10    2.214875e-08   -2.804811e+00
    2.882486e+00    2.563095e+01    3.166725e+00    6.275021e+07    2.315168e-08    7.297420e-10    2.213854e-08   -2.799811e+00
    2.909842e+00    2.700700e+01    3.121199e+00    6.250569e+07    2.312552e-08    7.038505e-10    2.212797e-08   -2.794811e+00
    2.937424e+00    2.845186e+01    3.075905e+00    6.225172e+07    2.309980e-08    6.788350e-10    2.211703e-08   -2.789811e+00
    2.965243e+00    2.996761e+01    3.030848e+00    6.198860e+07    2.307452e-08    6.546720e-10    2.210574e-08   -2.784811e+00
    2.993313e+00    3.155631e+01    2.986035e+00    6.171667e+07    2.304966e-08    6.313380e-10    2.209409e-08   -2.779811e+00
    3.021644e+00    3.321995e+01    2.941469e+00    6.143619e+07    2.302520e-08    6.088110e-10    2.208209e-08   -2.774811e+00
    3.050254e+00    3.496054e+01    2.897155e+00    6.114753e+07    2.300112e-08    5.870675e-10    2.206974e-08   -2.769811e+00
    3.079155e+00    3.678001e+01    2.853100e+00    6.085097e+07    2.297741e-08    5.660845e-10    2.205705e-08   -2.764811e+00
    3.108361e+00    3.868027e+01    2.809306e+00    6.054680e+07    2.295405e-08    5.458395e-10    2.204402e-08   -2.759811e+00
    3.137886e+00    4.066317e+01    2.765777e+00    6.023531e+07    2.293102e-08    5.263105e-10    2.203064e-08   -2.754811e+00
    3.167750e+00    4.273060e+01    2.722520e+00    5.991686e+07    2.290831e-08    5.074755e-10    2.201694e-08   -2.749811e+00
    3.197964e+00    4.488434e+01    2.679536e+00    5.959166e+07    2.288589e-08    4.893119e-10    2.200289e-08   -2.744811e+00
    3.228547e+00    4.712617e+01    2.636831e+00    5.926003e+07    2.286376e-08    4.717990e-10    2.198851e-08   -2.739811e+00
    3.259511e+00    4.945777e+01    2.594406e+00    5.892218e+07    2.284188e-08    4.549156e-10    2.197380e-08   -2.734811e+00
    3.290879e+00    5.188097e+01    2.552267e+00    5.857843e+07    2.282025e-08    4.386409e-10    2.195875e-08   -2.729811e+00
    3.322664e+00    5.439740e+01    2.510415e+00    5.822900e+07    2.279884e-08    4.229549e-10    2.194336e-08   -2.724811e+00
    3.354881e+00    5.700869e+01    2.468855e+00    5.787407e+07    2.277764e-08    4.078378e-10    2.192764e-08   -2.719811e+00
    3.387554e+00    5.971659e+01    2.427589e+00    5.751398e+07    2.275664e-08    3.932700e-10    2.191159e-08   -2.714811e+00
    3.420695e+00    6.252266e+01    2.386620e+00    5.714883e+07    2.273581e-08    3.792329e-10    2.189519e-08   -2.709811e+00
    3.454327e+00    6.542858e+01    2.345951e+00    5.677892e+07    2.271513e-08    3.657079e-10    2.187846e-08   -2.704811e+00
    3.488463e+00    6.843595e+01    2.305584e+00    5.640436e+07    2.269460e-08    3.526773e-10    2.186138e-08   -2.699811e+00
    3.523128e+00    7.154648e+01    2.265522e+00    5.602543e+07    2.267419e-08    3.401234e-10    2.184396e-08   -2.694811e+00
    3.558339e+00    7.476175e+01    2.225768e+00    5.564226e+07    2.265388e-08    3.280294e-10    2.182619e-08   -2.689811e+00
    3.594113e+00    7.808338e+01    2.186323e+00    5.525497e+07    2.263365e-08    3.163789e-10    2.180807e-08   -2.684811e+00
    3.630474e+00    8.151311e+01    2.147190e+00    5.486382e+07    2.261350e-08    3.051558e-10    2.178958e-08   -2.679811e+00
    3.667440e+00    8.505256e+01    2.108370e+00    5.446888e+07    2.259339e-08    2.943445e-10    2.177073e-08   -2.674811e+00
    3.705035e+00    8.870358e+01    2.069867e+00    5.407036e+07    2.257333e-08    2.839303e-10    2.175152e-08   -2.669811e+00
    3.743279e+00    9.246776e+01    2.031682e+00    5.366836e+07    2.255328e-08    2.738983e-10    2.173193e-08   -2.664811e+00
    3.782192e+00    9.634690e+01    1.993816e+00    5.326298e+07    2.253322e-08    2.642346e-10    2.171196e-08   -2.659811e+00
    3.821802e+00    1.003430e+02    1.956272e+00    5.285441e+07    2.251316e-08    2.549255e-10    2.169160e-08   -2.654811e+00
    3.862129e+00    1.044578e+02    1.919051e+00    5.244272e+07    2.249305e-08    2.459580e-10    2.167084e-08   -2.649811e+00
    3.903198e+00    1.086933e+02    1.882157e+00    5.202805e+07    2.247289e-08    2.373193e-10    2.164969e-08   -2.644811e+00
    3.945035e+00    1.130516e+02    1.845588e+00    5.161048e+07    2.245267e-08    2.289969e-10    2.162811e-08   -2.639811e+00
    3.987666e+00    1.175345e+02    1.809348e+00    5.119014e+07    2.243234e-08    2.209792e-10    2.160612e-08   -2.634811e+00
    4.031115e+00    1.221444e+02    1.773438e+00    5.076707e+07    2.241192e-08    2.132547e-10    2.158369e-08   -2.629811e+00
    4.075408e+00    1.268834e+02    1.737859e+00    5.034137e+07    2.239138e-08    2.058123e-10    2.156082e-08   -2.624811e+00
    4.120580e+00    1.317540e+02    1.702614e+00    4.991318e+07    2.237069e-08    1.986414e-10    2.153749e-08   -2.619811e+00
    4.166653e+00    1.367581e+02    1.667702e+00    4.948250e+07    2.234983e-08    1.917318e-10    2.151369e-08   -2.614811e+00
    4.213660e+00    1.418988e+02    1.633127e+00    4.904944e+07    2.232880e-08    1.850735e-10    2.148942e-08   -2.609811e+00
    4.261634e+00    1.471783e+02    1.598888e+00    4.861408e+07    2.230757e-08    1.786571e-10    2.146465e-08   -2.604811e+00
    4.310605e+00    1.525994e+02    1.564988e+00    4.817645e+07    2.228612e-08    1.724733e-10    2.143938e-08   -2.599811e+00
    4.360607e+00    1.581650e+02    1.531428e+00    4.773663e+07    2.226444e-08    1.665134e-10    2.141358e-08   -2.594811e+00
    4.411674e+00    1.638779e+02    1.498209e+00    4.729468e+07    2.224251e-08    1.607689e-10    2.138726e-08   -2.589811e+00
    4.463844e+00    1.697413e+02    1.465332e+00    4.685064e+07    2.222029e-08    1.552315e-10    2.136038e-08   -2.584811e+00
    4.517151e+00    1.757581e+02    1.432799e+00    4.640453e+07    2.219779e-08    1.498935e-10    2.133293e-08   -2.579811e+00
    4.571633e+00    1.819318e+02    1.400611e+00    4.595642e+07    2.217496e-08    1.447473e-10    2.130490e-08   -2.574811e+00
    4.627333e+00    1.882659e+02    1.368769e+00    4.550636e+07    2.215180e-08    1.397856e-10    2.127626e-08   -2.569811e+00
    4.684294e+00    1.947641e+02    1.337274e+00    4.505438e+07    2.212828e-08    1.350013e-10    2.124699e-08   -2.564811e+00
    4.742554e+00    2.014298e+02    1.306128e+00    4.460049e+07    2.210438e-08    1.303879e-10    2.121710e-08   -2.559811e+00
    4.802163e+00    2.082672e+02    1.275331e+00    4.414476e+07    2.208008e-08    1.259388e-10    2.118653e-08   -2.554811e+00
    4.863166e+00    2.152804e+02    1.244885e+00    4.368719e+07    2.205536e-08    1.216477e-10    2.115528e-08   -2.549811e+00
    4.925609e+00    2.224734e+02    1.214790e+00    4.322779e+07    2.203019e-08    1.175089e-10    2.112333e-08   -2.544811e+00
    4.989541e+00    2.298507e+02    1.185049e+00    4.276658e+07    2.200455e-08    1.135165e-10    2.109064e-08   -2.539811e+00
    5.055016e+00    2.374170e+02    1.155662e+00    4.230357e+07    2.197842e-08    1.096650e-10    2.105721e-08   -2.534811e+00
    5.122092e+00    2.451770e+02    1.126631e+00    4.183882e+07    2.195177e-08    1.059490e-10    2.102299e-08   -2.529811e+00
    5.190823e+00    2.531358e+02    1.097955e+00    4.137229e+07    2.192458e-08    1.023636e-10    2.098797e-08   -2.524811e+00
    5.261261e+00    2.612982e+02    1.069638e+00    4.090400e+07    2.189682e-08    9.890385e-11    2.095213e-08   -2.519811e+00
    5.333481e+00    2.696701e+02    1.041679e+00    4.043398e+07    2.186847e-08    9.556500e-11    2.091542e-08   -2.514811e+00
    5.407529e+00    2.782565e+02    1.014080e+00    3.996216e+07    2.183949e-08    9.234255e-11    2.087783e-08   -2.509811e+00
    5.483486e+00    2.870637e+02    9.868430e-01    3.948861e+07    2.180987e-08    8.923220e-11    2.083932e-08   -2.504811e+00
    5.561412e+00    2.960972e+02    9.599675e-01    3.901328e+07    2.177957e-08    8.622975e-11    2.079987e-08   -2.499811e+00
    5.641378e+00    3.053633e+02    9.334555e-01    3.853614e+07    2.174857e-08    8.333125e-11    2.075944e-08   -2.494811e+00
    5.723459e+00    3.148684e+02    9.073080e-01    3.805722e+07    2.171683e-08    8.053280e-11    2.071800e-08   -2.489811e+00
    5.807727e+00    3.246189e+02    8.815265e-01    3.757644e+07    2.168433e-08    7.783075e-11    2.067551e-08   -2.484811e+00
    5.894270e+00    3.346221e+02    8.561120e-01    3.709385e+07    2.165104e-08    7.522155e-11    2.063194e-08   -2.479811e+00
    5.983165e+00    3.448845e+02    8.310655e-01    3.660939e+07    2.161692e-08    7.270175e-11    2.058726e-08   -2.474811e+00
    6.074500e+00    3.554136e+02    8.063880e-01    3.612304e+07    2.158194e-08    7.026815e-11    2.054143e-08   -2.469811e+00
    6.168358e+00    3.662165e+02    7.820815e-01    3.563474e+07    2.154608e-08    6.791750e-11    2.049441e-08   -2.464811e+00
    6.264833e+00    3.773009e+02    7.581470e-01    3.514448e+07    2.150928e-08    6.564685e-11    2.044615e-08   -2.459811e+00
    6.364018e+00    3.886744e+02    7.345855e-01    3.465221e+07    2.147153e-08    6.345330e-11    2.039664e-08   -2.454811e+00
    6.466012e+00    4.003450e+02    7.113985e-01    3.415789e+07    2.143279e-08    6.133405e-11    2.034581e-08   -2.449811e+00
    6.570918e+00    4.123207e+02    6.885870e-01    3.366147e+07    2.139301e-08    5.928640e-11    2.029362e-08   -2.444811e+00
    6.678836e+00    4.246094e+02    6.661525e-01    3.316290e+07    2.135217e-08    5.730780e-11    2.024004e-08   -2.439811e+00
    6.789877e+00    4.372196e+02    6.440960e-01    3.266214e+07    2.131023e-08    5.539575e-11    2.018501e-08   -2.434811e+00
    6.904145e+00    4.501593e+02    6.224195e-01    3.215912e+07    2.126714e-08    5.354785e-11    2.012850e-08   -2.429811e+00
    7.021761e+00    4.634371e+02    6.011235e-01    3.165379e+07    2.122287e-08    5.176185e-11    2.007045e-08   -2.424811e+00
    7.142827e+00    4.770607e+02    5.802105e-01    3.114610e+07    2.117738e-08    5.003555e-11    2.001083e-08   -2.419811e+00
    7.267479e+00    4.910389e+02    5.596805e-01    3.063597e+07    2.113063e-08    4.836683e-11    1.994957e-08   -2.414811e+00
    7.395823e+00    5.053792e+02    5.395360e-01    3.012336e+07    2.108258e-08    4.675364e-11    1.988662e-08   -2.409811e+00
    7.527985e+00    5.200896e+02    5.197780e-01    2.960820e+07    2.103318e-08    4.519404e-11    1.982193e-08   -2.404811e+00
    7.664088e+00    5.351780e+02    5.004080e-01    2.909041e+07    2.098239e-08    4.368614e-11    1.975547e-08   -2.399811e+00
    7.804266e+00    5.506507e+02    4.814269e-01    2.856997e+07    2.093017e-08    4.222816e-11    1.968716e-08   -2.394811e+00
    7.948635e+00    5.665151e+02    4.628365e-01    2.804678e+07    2.087648e-08    4.081832e-11    1.961697e-08   -2.389811e+00
    8.097325e+00    5.827770e+02    4.446381e-01    2.752081e+07    2.082127e-08    3.945498e-11    1.954482e-08   -2.384811e+00
    8.250460e+00    5.994421e+02    4.268331e-01    2.699200e+07    2.076450e-08    3.813652e-11    1.947066e-08   -2.379811e+00
    8.408163e+00    6.165146e+02    4.094229e-01    2.646030e+07    2.070612e-08    3.686139e-11    1.939445e-08   -2.374811e+00
    8.570556e+00    6.339981e+02    3.924086e-01    2.592567e+07    2.064608e-08    3.562810e-11    1.931611e-08   -2.369811e+00
    8.737757e+00    6.518951e+02    3.757917e-01    2.538810e+07    2.058435e-08    3.443522e-11    1.923561e-08   -2.364811e+00
    8.909876e+00    6.702067e+02    3.595733e-01    2.484755e+07    2.052086e-08    3.328137e-11    1.915286e-08   -2.359811e+00
    9.087020e+00    6.889319e+02    3.437545e-01    2.430402e+07    2.045558e-08    3.216524e-11    1.906783e-08   -2.354811e+00
    9.269288e+00    7.080684e+02    3.283366e-01    2.375752e+07    2.038847e-08    3.108552e-11    1.898044e-08   -2.349811e+00
    9.456765e+00    7.276119e+02    3.133204e-01    2.320807e+07    2.031948e-08    3.004100e-11    1.889064e-08   -2.344811e+00
    9.649531e+00    7.475553e+02    2.987069e-01    2.265571e+07    2.024854e-08    2.903049e-11    1.879839e-08   -2.339811e+00
    9.847642e+00    7.678892e+02    2.844968e-01    2.210052e+07    2.017564e-08    2.805285e-11    1.870360e-08   -2.334811e+00
    1.005115e+01    7.886014e+02    2.706909e-01    2.154259e+07    2.010071e-08    2.710700e-11    1.860622e-08   -2.329811e+00
    1.026007e+01    8.096763e+02    2.572894e-01    2.098204e+07    2.002371e-08    2.619185e-11    1.850620e-08   -2.324811e+00
    1.047441e+01    8.310943e+02    2.442928e-01    2.041902e+07    1.994461e-08    2.530640e-11    1.840349e-08   -2.319811e+00
    1.069415e+01    8.528328e+02    2.317012e-01    1.985373e+07    1.986335e-08    2.444966e-11    1.829801e-08   -2.314811e+00
    1.091923e+01    8.748641e+02    2.195142e-01    1.928640e+07    1.977989e-08    2.362068e-11    1.818973e-08   -2.309811e+00
    1.114957e+01    8.971563e+02    2.077317e-01    1.871729e+07    1.969419e-08    2.281858e-11    1.807858e-08   -2.304811e+00
    1.138505e+01    9.196730e+02    1.963528e-01    1.814672e+07    1.960622e-08    2.204243e-11    1.796452e-08   -2.299811e+00
    1.162550e+01    9.423716e+02    1.853764e-01    1.757506e+07    1.951594e-08    2.129143e-11    1.784749e-08   -2.294811e+00
    1.187072e+01    9.652043e+02    1.748013e-01    1.700273e+07    1.942330e-08    2.056474e-11    1.772745e-08   -2.289811e+00
    1.212044e+01    9.881186e+02    1.646256e-01    1.643020e+07    1.932828e-08    1.986157e-11    1.760435e-08   -2.284811e+00
    1.237438e+01    1.011055e+03    1.548472e-01    1.585800e+07    1.923083e-08    1.918117e-11    1.747815e-08   -2.279811e+00
    1.263215e+01    1.033949e+03    1.454633e-01    1.528672e+07    1.913095e-08    1.852280e-11    1.734880e-08   -2.274811e+00
    1.289334e+01    1.056728e+03    1.364709e-01    1.471699e+07    1.902860e-08    1.788576e-11    1.721627e-08   -2.269811e+00
    1.315747e+01    1.079318e+03    1.278663e-01    1.414952e+07    1.892374e-08    1.726936e-11    1.708053e-08   -2.264811e+00
    1.342398e+01    1.101634e+03    1.196455e-01    1.358507e+07    1.881637e-08    1.667295e-11    1.694155e-08   -2.259811e+00
    1.369228e+01    1.123591e+03    1.118035e-01    1.302445e+07    1.870646e-08    1.609589e-11    1.679929e-08   -2.254811e+00
    1.396166e+01    1.145095e+03    1.043352e-01    1.246852e+07    1.859401e-08    1.553756e-11    1.665375e-08   -2.249811e+00
    1.423140e+01    1.166052e+03    9.723450e-02    1.191817e+07    1.847900e-08    1.499738e-11    1.650490e-08   -2.244811e+00
    1.450070e+01    1.186363e+03    9.049500e-02    1.137436e+07    1.836143e-08    1.447477e-11    1.635273e-08   -2.239811e+00
    1.476868e+01    1.205927e+03    8.410960e-02    1.083806e+07    1.824130e-08    1.396917e-11    1.619724e-08   -2.234811e+00
    1.503443e+01    1.224643e+03    7.807045e-02    1.031025e+07    1.811860e-08    1.348007e-11    1.603843e-08   -2.229811e+00
    1.529699e+01    1.242413e+03    7.236925e-02    9.791927e+06    1.799336e-08    1.300693e-11    1.587630e-08   -2.224811e+00
    1.555538e+01    1.259138e+03    6.699705e-02    9.284091e+06    1.786557e-08    1.254926e-11    1.571087e-08   -2.219811e+00
    1.580856e+01    1.274725e+03    6.194435e-02    8.787718e+06    1.773528e-08    1.210658e-11    1.554215e-08   -2.214811e+00
    1.605551e+01    1.289089e+03    5.720110e-02    8.303754e+06    1.760250e-08    1.167841e-11    1.537017e-08   -2.209811e+00
    1.629519e+01    1.302150e+03    5.275685e-02    7.833105e+06    1.746725e-08    1.126433e-11    1.519497e-08   -2.204811e+00
    1.652660e+01    1.313840e+03    4.860058e-02    7.376615e+06    1.732958e-08    1.086387e-11    1.501658e-08   -2.199811e+00
    1.674877e+01    1.324100e+03    4.472098e-02    6.935061e+06    1.718954e-08    1.047662e-11    1.483506e-08   -2.194811e+00
    1.696078e+01    1.332887e+03    4.110643e-02    6.509142e+06    1.704716e-08    1.010218e-11    1.465045e-08   -2.189811e+00
    1.716175e+01    1.340167e+03    3.774502e-02    6.099444e+06    1.690251e-08    9.740145e-12    1.446284e-08   -2.184811e+00
    1.735095e+01    1.345928e+03    3.462468e-02    5.706475e+06    1.675565e-08    9.390135e-12    1.427229e-08   -2.179811e+00
    1.752772e+01    1.350172e+03    3.173324e-02    5.330627e+06    1.660664e-08    9.051780e-12    1.407887e-08   -2.174811e+00
    1.769152e+01    1.352913e+03    2.905851e-02    4.972165e+06    1.645557e-08    8.724720e-12    1.388268e-08   -2.169811e+00
    1.784195e+01    1.354188e+03    2.658832e-02    4.631255e+06    1.630252e-08    8.408605e-12    1.368382e-08   -2.164811e+00
    1.797876e+01    1.354044e+03    2.431065e-02    4.307936e+06    1.614757e-08    8.103095e-12    1.348239e-08   -2.159811e+00
    1.810183e+01    1.352548e+03    2.221365e-02    4.002136e+06    1.599082e-08    7.807875e-12    1.327852e-08   -2.154811e+00
    1.821121e+01    1.349778e+03    2.028575e-02    3.713677e+06    1.583237e-08    7.522615e-12    1.307231e-08   -2.149811e+00
    1.830712e+01    1.345824e+03    1.851567e-02    3.442276e+06    1.567234e-08    7.247015e-12    1.286390e-08   -2.144811e+00
    1.838989e+01    1.340789e+03    1.689250e-02    3.187558e+06    1.551083e-08    6.980770e-12    1.265343e-08   -2.139811e+00
    1.846005e+01    1.334784e+03    1.540573e-02    2.949065e+06    1.534797e-08    6.723600e-12    1.244104e-08   -2.134811e+00
    1.851821e+01    1.327925e+03    1.404532e-02    2.726265e+06    1.518388e-08    6.475220e-12    1.222690e-08   -2.129811e+00
