# sky130 nfet_01v8 gm/ID Processed Lookup Table
# Corner: sf
# Temperature: 0C
# W = 2.0 um
# L = 1.98 um (1980 nm)
# Columns: gm/id [1/V]  gm/gds [V/V]  id/W [A/m]  ft [Hz]  Cgg/W [F/m]  Cgd/W [F/m]  Cgs/W [F/m]  Vov [V]
#         gm/id          gm/gds            id/W              ft           Cgg/W           Cgd/W           Cgs/W             Vov
    2.973846e+01    1.468948e+02    1.523121e-08    1.648832e+01    4.372166e-09    5.991230e-14    1.768892e-10   -5.546923e-01
    2.973802e+01    1.468926e+02    1.767300e-08    1.916780e+01    4.363854e-09    6.227145e-14    1.839826e-10   -5.496923e-01
    2.973753e+01    1.468902e+02    2.050619e-08    2.228053e+01    4.355966e-09    6.472935e-14    1.914418e-10   -5.446923e-01
    2.973703e+01    1.468877e+02    2.379352e-08    2.589615e+01    4.348518e-09    6.729065e-14    1.992881e-10   -5.396923e-01
    2.973647e+01    1.468851e+02    2.760777e-08    3.009530e+01    4.341523e-09    6.996015e-14    2.075433e-10   -5.346923e-01
    2.973587e+01    1.468821e+02    3.203337e-08    3.497150e+01    4.335001e-09    7.274295e-14    2.162306e-10   -5.296923e-01
    2.973523e+01    1.468789e+02    3.716828e-08    4.063308e+01    4.328966e-09    7.564440e-14    2.253752e-10   -5.246923e-01
    2.973453e+01    1.468754e+02    4.312618e-08    4.720552e+01    4.323439e-09    7.867010e-14    2.350031e-10   -5.196923e-01
    2.973380e+01    1.468718e+02    5.003890e-08    5.483419e+01    4.318439e-09    8.182600e-14    2.451417e-10   -5.146923e-01
    2.973299e+01    1.468678e+02    5.805945e-08    6.368729e+01    4.313987e-09    8.511820e-14    2.558194e-10   -5.096923e-01
    2.973211e+01    1.468635e+02    6.736535e-08    7.395961e+01    4.310105e-09    8.855330e-14    2.670664e-10   -5.046923e-01
    2.973119e+01    1.468589e+02    7.816240e-08    8.587645e+01    4.306815e-09    9.213805e-14    2.789140e-10   -4.996923e-01
    2.973018e+01    1.468540e+02    9.068955e-08    9.969840e+01    4.304143e-09    9.587970e-14    2.913954e-10   -4.946923e-01
    2.972910e+01    1.468486e+02    1.052239e-07    1.157269e+02    4.302114e-09    9.978570e-14    3.045449e-10   -4.896923e-01
    2.972793e+01    1.468429e+02    1.220869e-07    1.343103e+02    4.300755e-09    1.038641e-13    3.183986e-10   -4.846923e-01
    2.972667e+01    1.468367e+02    1.416515e-07    1.558511e+02    4.300094e-09    1.081230e-13    3.329941e-10   -4.796923e-01
    2.972533e+01    1.468301e+02    1.643502e-07    1.808142e+02    4.300160e-09    1.125713e-13    3.483704e-10   -4.746923e-01
    2.972386e+01    1.468229e+02    1.906850e-07    2.097365e+02    4.300984e-09    1.172180e-13    3.645687e-10   -4.696923e-01
    2.972231e+01    1.468152e+02    2.212378e-07    2.432379e+02    4.302600e-09    1.220728e-13    3.816312e-10   -4.646923e-01
    2.972063e+01    1.468070e+02    2.566840e-07    2.820330e+02    4.305039e-09    1.271457e-13    3.996019e-10   -4.596923e-01
    2.971881e+01    1.467980e+02    2.978067e-07    3.269462e+02    4.308337e-09    1.324473e-13    4.185266e-10   -4.546923e-01
    2.971687e+01    1.467884e+02    3.455142e-07    3.789282e+02    4.312530e-09    1.379885e-13    4.384527e-10   -4.496923e-01
    2.971477e+01    1.467781e+02    4.008603e-07    4.390737e+02    4.317656e-09    1.437810e-13    4.594289e-10   -4.446923e-01
    2.971251e+01    1.467670e+02    4.650668e-07    5.086441e+02    4.323754e-09    1.498369e-13    4.815058e-10   -4.396923e-01
    2.971010e+01    1.467551e+02    5.395510e-07    5.890910e+02    4.330863e-09    1.561689e-13    5.047355e-10   -4.346923e-01
    2.970747e+01    1.467422e+02    6.259570e-07    6.820846e+02    4.339025e-09    1.627904e-13    5.291710e-10   -4.296923e-01
    2.970464e+01    1.467283e+02    7.261905e-07    7.895457e+02    4.348283e-09    1.697151e-13    5.548675e-10   -4.246923e-01
    2.970162e+01    1.467134e+02    8.424615e-07    9.136826e+02    4.358680e-09    1.769576e-13    5.818815e-10   -4.196923e-01
    2.969836e+01    1.466974e+02    9.773335e-07    1.057032e+03    4.370261e-09    1.845333e-13    6.102700e-10   -4.146923e-01
    2.969485e+01    1.466802e+02    1.133778e-06    1.222506e+03    4.383072e-09    1.924579e-13    6.400910e-10   -4.096923e-01
    2.969107e+01    1.466617e+02    1.315242e-06    1.413447e+03    4.397159e-09    2.007481e-13    6.714050e-10   -4.046923e-01
    2.968701e+01    1.466418e+02    1.525720e-06    1.633690e+03    4.412570e-09    2.094212e-13    7.042720e-10   -3.996923e-01
    2.968262e+01    1.466203e+02    1.769842e-06    1.887628e+03    4.429354e-09    2.184953e-13    7.387525e-10   -3.946923e-01
    2.967792e+01    1.465973e+02    2.052979e-06    2.180301e+03    4.447557e-09    2.279893e-13    7.749085e-10   -3.896923e-01
    2.967287e+01    1.465726e+02    2.381354e-06    2.517475e+03    4.467231e-09    2.379230e-13    8.128020e-10   -3.846923e-01
    2.966741e+01    1.465459e+02    2.762179e-06    2.905748e+03    4.488422e-09    2.483168e-13    8.524945e-10   -3.796923e-01
    2.966157e+01    1.465173e+02    3.203816e-06    3.352676e+03    4.511181e-09    2.591921e-13    8.940480e-10   -3.746923e-01
    2.965526e+01    1.464865e+02    3.715952e-06    3.866885e+03    4.535557e-09    2.705712e-13    9.375245e-10   -3.696923e-01
    2.964849e+01    1.464535e+02    4.309812e-06    4.458246e+03    4.561598e-09    2.824771e-13    9.829835e-10   -3.646923e-01
    2.964121e+01    1.464181e+02    4.998405e-06    5.138024e+03    4.589351e-09    2.949341e-13    1.030486e-09   -3.596923e-01
    2.963338e+01    1.463800e+02    5.796795e-06    5.919078e+03    4.618865e-09    3.079670e-13    1.080091e-09   -3.546923e-01
    2.962497e+01    1.463391e+02    6.722440e-06    6.816079e+03    4.650185e-09    3.216019e-13    1.131854e-09   -3.496923e-01
    2.961591e+01    1.462951e+02    7.795555e-06    7.845759e+03    4.683357e-09    3.358658e-13    1.185831e-09   -3.446923e-01
    2.960618e+01    1.462480e+02    9.039550e-06    9.027187e+03    4.718423e-09    3.507866e-13    1.242075e-09   -3.396923e-01
    2.959572e+01    1.461974e+02    1.048153e-05    1.038209e+04    4.755423e-09    3.663935e-13    1.300637e-09   -3.346923e-01
    2.958450e+01    1.461432e+02    1.215287e-05    1.193519e+04    4.794398e-09    3.827164e-13    1.361564e-09   -3.296923e-01
    2.957244e+01    1.460850e+02    1.408990e-05    1.371463e+04    4.835384e-09    3.997864e-13    1.424901e-09   -3.246923e-01
    2.955950e+01    1.460227e+02    1.633465e-05    1.575245e+04    4.878415e-09    4.176357e-13    1.490688e-09   -3.196923e-01
    2.954560e+01    1.459560e+02    1.893575e-05    1.808504e+04    4.923521e-09    4.362978e-13    1.558962e-09   -3.146923e-01
    2.953068e+01    1.458844e+02    2.194946e-05    2.075378e+04    4.970730e-09    4.558070e-13    1.629755e-09   -3.096923e-01
    2.951467e+01    1.458079e+02    2.544086e-05    2.380567e+04    5.020065e-09    4.761989e-13    1.703095e-09   -3.046923e-01
    2.949749e+01    1.457260e+02    2.948517e-05    2.729406e+04    5.071550e-09    4.975102e-13    1.779004e-09   -2.996923e-01
    2.947909e+01    1.456385e+02    3.416936e-05    3.127959e+04    5.125190e-09    5.197790e-13    1.857499e-09   -2.946923e-01
    2.945935e+01    1.455448e+02    3.959394e-05    3.583088e+04    5.181010e-09    5.430440e-13    1.938592e-09   -2.896923e-01
    2.943820e+01    1.454450e+02    4.587501e-05    4.102595e+04    5.239005e-09    5.673455e-13    2.022288e-09   -2.846923e-01
    2.941555e+01    1.453382e+02    5.314665e-05    4.695306e+04    5.299185e-09    5.927250e-13    2.108587e-09   -2.796923e-01
    2.939127e+01    1.452244e+02    6.156375e-05    5.371229e+04    5.361545e-09    6.192255e-13    2.197479e-09   -2.746923e-01
    2.936532e+01    1.451033e+02    7.130490e-05    6.141704e+04    5.426070e-09    6.468905e-13    2.288953e-09   -2.696923e-01
    2.933755e+01    1.449742e+02    8.257635e-05    7.019564e+04    5.492745e-09    6.757650e-13    2.382985e-09   -2.646923e-01
    2.930786e+01    1.448369e+02    9.561575e-05    8.019311e+04    5.561560e-09    7.058960e-13    2.479547e-09   -2.596923e-01
    2.927614e+01    1.446910e+02    1.106972e-04    9.157373e+04    5.632480e-09    7.373305e-13    2.578605e-09   -2.546923e-01
    2.924227e+01    1.445361e+02    1.281364e-04    1.045229e+05    5.705480e-09    7.701175e-13    2.680114e-09   -2.496923e-01
    2.920612e+01    1.443720e+02    1.482971e-04    1.192505e+05    5.780515e-09    8.043070e-13    2.784025e-09   -2.446923e-01
    2.916758e+01    1.441982e+02    1.715977e-04    1.359929e+05    5.857545e-09    8.399510e-13    2.890280e-09   -2.396923e-01
    2.912651e+01    1.440144e+02    1.985199e-04    1.550174e+05    5.936520e-09    8.771020e-13    2.998814e-09   -2.346923e-01
    2.908280e+01    1.438206e+02    2.296172e-04    1.766251e+05    6.017390e-09    9.158140e-13    3.109554e-09   -2.296923e-01
    2.903630e+01    1.436163e+02    2.655259e-04    2.011557e+05    6.100085e-09    9.561425e-13    3.222422e-09   -2.246923e-01
    2.898688e+01    1.434013e+02    3.069766e-04    2.289914e+05    6.184545e-09    9.981435e-13    3.337333e-09   -2.196923e-01
    2.893443e+01    1.431759e+02    3.548077e-04    2.605628e+05    6.270695e-09    1.041876e-12    3.454192e-09   -2.146923e-01
    2.887882e+01    1.429398e+02    4.099810e-04    2.963543e+05    6.358460e-09    1.087399e-12    3.572902e-09   -2.096923e-01
    2.881992e+01    1.426931e+02    4.735980e-04    3.369100e+05    6.447760e-09    1.134773e-12    3.693359e-09   -2.046923e-01
    2.875761e+01    1.424364e+02    5.469210e-04    3.828418e+05    6.538500e-09    1.184060e-12    3.815451e-09   -1.996923e-01
    2.869180e+01    1.421697e+02    6.313935e-04    4.348357e+05    6.630600e-09    1.235324e-12    3.939063e-09   -1.946923e-01
    2.862240e+01    1.418939e+02    7.286665e-04    4.936622e+05    6.723960e-09    1.288630e-12    4.064076e-09   -1.896923e-01
    2.854931e+01    1.416096e+02    8.406260e-04    5.601844e+05    6.818480e-09    1.344044e-12    4.190365e-09   -1.846923e-01
    2.847247e+01    1.413179e+02    9.694250e-04    6.353695e+05    6.914060e-09    1.401635e-12    4.317801e-09   -1.796923e-01
    2.839184e+01    1.410201e+02    1.117518e-03    7.202994e+05    7.010600e-09    1.461471e-12    4.446256e-09   -1.746923e-01
    2.830740e+01    1.407177e+02    1.287703e-03    8.161856e+05    7.107990e-09    1.523624e-12    4.575594e-09   -1.696923e-01
    2.821913e+01    1.404127e+02    1.483164e-03    9.243814e+05    7.206125e-09    1.588165e-12    4.705681e-09   -1.646923e-01
    2.812708e+01    1.401073e+02    1.707525e-03    1.046402e+06    7.304885e-09    1.655170e-12    4.836378e-09   -1.596923e-01
    2.803130e+01    1.398041e+02    1.964902e-03    1.183935e+06    7.404170e-09    1.724714e-12    4.967547e-09   -1.546923e-01
    2.793189e+01    1.395065e+02    2.259971e-03    1.338869e+06    7.503865e-09    1.796873e-12    5.099050e-09   -1.496923e-01
    2.782896e+01    1.392177e+02    2.598035e-03    1.513310e+06    7.603860e-09    1.871728e-12    5.230750e-09   -1.446923e-01
    2.772269e+01    1.389419e+02    2.985108e-03    1.709608e+06    7.704045e-09    1.949359e-12    5.362510e-09   -1.396923e-01
    2.761328e+01    1.386838e+02    3.428000e-03    1.930388e+06    7.804305e-09    2.029849e-12    5.494195e-09   -1.346923e-01
    2.750095e+01    1.384484e+02    3.934420e-03    2.178574e+06    7.904535e-09    2.113282e-12    5.625670e-09   -1.296923e-01
    2.738600e+01    1.382416e+02    4.513090e-03    2.457432e+06    8.004630e-09    2.199746e-12    5.756800e-09   -1.246923e-01
    2.726871e+01    1.380692e+02    5.173865e-03    2.770603e+06    8.104485e-09    2.289326e-12    5.887460e-09   -1.196923e-01
    2.714943e+01    1.379384e+02    5.927875e-03    3.122157e+06    8.203990e-09    2.382116e-12    6.017525e-09   -1.146923e-01
    2.702846e+01    1.378563e+02    6.787695e-03    3.516623e+06    8.303055e-09    2.478207e-12    6.146875e-09   -1.096923e-01
    2.690617e+01    1.378307e+02    7.767500e-03    3.959063e+06    8.401580e-09    2.577695e-12    6.275390e-09   -1.046923e-01
    2.678289e+01    1.378696e+02    8.883285e-03    4.455119e+06    8.499470e-09    2.680676e-12    6.402955e-09   -9.969230e-02
    2.665892e+01    1.379816e+02    1.015307e-02    5.011082e+06    8.596635e-09    2.787249e-12    6.529470e-09   -9.469230e-02
    2.653452e+01    1.381753e+02    1.159715e-02    5.633955e+06    8.692995e-09    2.897516e-12    6.654825e-09   -8.969230e-02
    2.640987e+01    1.384593e+02    1.323839e-02    6.331529e+06    8.788465e-09    3.011583e-12    6.778925e-09   -8.469230e-02
    2.628510e+01    1.388422e+02    1.510247e-02    7.112455e+06    8.882970e-09    3.129555e-12    6.901675e-09   -7.969230e-02
    2.616017e+01    1.393323e+02    1.721828e-02    7.986314e+06    8.976440e-09    3.251542e-12    7.022995e-09   -7.469230e-02
    2.603496e+01    1.399372e+02    1.961824e-02    8.963697e+06    9.068800e-09    3.377657e-12    7.142800e-09   -6.969230e-02
    2.590915e+01    1.406640e+02    2.233869e-02    1.005625e+07    9.159990e-09    3.508016e-12    7.261015e-09   -6.469230e-02
    2.578228e+01    1.415185e+02    2.542033e-02    1.127673e+07    9.249950e-09    3.642736e-12    7.377575e-09   -5.969230e-02
    2.565366e+01    1.425055e+02    2.890863e-02    1.263903e+07    9.338630e-09    3.781939e-12    7.492415e-09   -5.469230e-02
    2.552249e+01    1.436279e+02    3.285427e-02    1.415822e+07    9.425975e-09    3.925752e-12    7.605475e-09   -4.969230e-02
    2.538770e+01    1.448872e+02    3.731363e-02    1.585046e+07    9.511945e-09    4.074300e-12    7.716710e-09   -4.469230e-02
    2.524810e+01    1.462828e+02    4.234925e-02    1.773298e+07    9.596500e-09    4.227718e-12    7.826070e-09   -3.969230e-02
    2.510232e+01    1.478115e+02    4.803018e-02    1.982398e+07    9.679600e-09    4.386139e-12    7.933515e-09   -3.469230e-02
    2.494890e+01    1.494682e+02    5.443250e-02    2.214245e+07    9.761220e-09    4.549704e-12    8.039010e-09   -2.969230e-02
    2.478631e+01    1.512451e+02    6.163950e-02    2.470798e+07    9.841330e-09    4.718555e-12    8.142530e-09   -2.469230e-02
    2.461291e+01    1.531316e+02    6.974225e-02    2.754048e+07    9.919905e-09    4.892842e-12    8.244050e-09   -1.969230e-02
    2.442720e+01    1.551151e+02    7.883930e-02    3.065985e+07    9.996930e-09    5.072715e-12    8.343550e-09   -1.469230e-02
    2.422770e+01    1.571802e+02    8.903725e-02    3.408565e+07    1.007239e-08    5.258330e-12    8.441020e-09   -9.692300e-03
    2.401307e+01    1.593092e+02    1.004504e-01    3.783664e+07    1.014628e-08    5.449845e-12    8.536445e-09   -4.692300e-03
    2.378218e+01    1.614826e+02    1.132003e-01    4.193040e+07    1.021858e-08    5.647430e-12    8.629825e-09    3.077000e-04
    2.353413e+01    1.636792e+02    1.274160e-01    4.638277e+07    1.028929e-08    5.851255e-12    8.721155e-09    5.307700e-03
    2.326830e+01    1.658765e+02    1.432327e-01    5.120749e+07    1.035841e-08    6.061500e-12    8.810440e-09    1.030770e-02
    2.298433e+01    1.680507e+02    1.607917e-01    5.641569e+07    1.042595e-08    6.278335e-12    8.897685e-09    1.530770e-02
    2.268223e+01    1.701782e+02    1.802390e-01    6.201546e+07    1.049191e-08    6.501960e-12    8.982905e-09    2.030770e-02
    2.236228e+01    1.722349e+02    2.017243e-01    6.801158e+07    1.055630e-08    6.732555e-12    9.066110e-09    2.530770e-02
    2.202506e+01    1.741978e+02    2.254002e-01    7.440514e+07    1.061912e-08    6.970330e-12    9.147315e-09    3.030770e-02
    2.167146e+01    1.760442e+02    2.514201e-01    8.119344e+07    1.068040e-08    7.215480e-12    9.226545e-09    3.530770e-02
    2.130261e+01    1.777536e+02    2.799376e-01    8.836989e+07    1.074014e-08    7.468225e-12    9.303815e-09    4.030770e-02
    2.091984e+01    1.793068e+02    3.111042e-01    9.592384e+07    1.079836e-08    7.728780e-12    9.379155e-09    4.530770e-02
    2.052465e+01    1.806868e+02    3.450689e-01    1.038409e+08    1.085509e-08    7.997370e-12    9.452585e-09    5.030770e-02
    2.011872e+01    1.818791e+02    3.819756e-01    1.121033e+08    1.091033e-08    8.274225e-12    9.524135e-09    5.530770e-02
    1.970378e+01    1.828720e+02    4.219624e-01    1.206896e+08    1.096412e-08    8.559590e-12    9.593835e-09    6.030770e-02
    1.928162e+01    1.836562e+02    4.651605e-01    1.295758e+08    1.101648e-08    8.853715e-12    9.661720e-09    6.530770e-02
    1.885403e+01    1.842251e+02    5.116925e-01    1.387353e+08    1.106742e-08    9.156850e-12    9.727815e-09    7.030770e-02
    1.842281e+01    1.845751e+02    5.616715e-01    1.481397e+08    1.111698e-08    9.469260e-12    9.792160e-09    7.530770e-02
    1.798968e+01    1.847049e+02    6.152005e-01    1.577591e+08    1.116519e-08    9.791220e-12    9.854790e-09    8.030770e-02
    1.755627e+01    1.846159e+02    6.723730e-01    1.675627e+08    1.121206e-08    1.012302e-11    9.915730e-09    8.530770e-02
    1.712415e+01    1.843116e+02    7.332695e-01    1.775194e+08    1.125763e-08    1.046493e-11    9.975030e-09    9.030770e-02
    1.669475e+01    1.837978e+02    7.979605e-01    1.875986e+08    1.130192e-08    1.081728e-11    1.003271e-08    9.530770e-02
    1.626941e+01    1.830817e+02    8.665045e-01    1.977698e+08    1.134496e-08    1.118036e-11    1.008883e-08    1.003077e-01
    1.584930e+01    1.821724e+02    9.389495e-01    2.080039e+08    1.138678e-08    1.155451e-11    1.014341e-08    1.053077e-01
    1.543547e+01    1.810798e+02    1.015332e+00    2.182730e+08    1.142742e-08    1.194004e-11    1.019648e-08    1.103077e-01
    1.502886e+01    1.798154e+02    1.095678e+00    2.285512e+08    1.146689e-08    1.233732e-11    1.024810e-08    1.153077e-01
    1.463026e+01    1.783907e+02    1.180004e+00    2.388143e+08    1.150523e-08    1.274669e-11    1.029829e-08    1.203077e-01
    1.424035e+01    1.768183e+02    1.268317e+00    2.490402e+08    1.154247e-08    1.316854e-11    1.034710e-08    1.253077e-01
    1.385967e+01    1.751108e+02    1.360615e+00    2.592094e+08    1.157864e-08    1.360322e-11    1.039455e-08    1.303077e-01
    1.348868e+01    1.732807e+02    1.456889e+00    2.693044e+08    1.161375e-08    1.405115e-11    1.044069e-08    1.353077e-01
    1.312771e+01    1.713408e+02    1.557123e+00    2.793097e+08    1.164785e-08    1.451273e-11    1.048555e-08    1.403077e-01
    1.277701e+01    1.693033e+02    1.661295e+00    2.892125e+08    1.168097e-08    1.498838e-11    1.052917e-08    1.453077e-01
    1.243674e+01    1.671802e+02    1.769377e+00    2.990022e+08    1.171313e-08    1.547853e-11    1.057158e-08    1.503077e-01
    1.210700e+01    1.649829e+02    1.881336e+00    3.086699e+08    1.174435e-08    1.598366e-11    1.061282e-08    1.553077e-01
    1.178781e+01    1.627222e+02    1.997138e+00    3.182090e+08    1.177467e-08    1.650422e-11    1.065293e-08    1.603077e-01
    1.147911e+01    1.604085e+02    2.116742e+00    3.276145e+08    1.180411e-08    1.704068e-11    1.069193e-08    1.653077e-01
    1.118084e+01    1.580512e+02    2.240107e+00    3.368832e+08    1.183270e-08    1.759357e-11    1.072987e-08    1.703077e-01
    1.089284e+01    1.556595e+02    2.367190e+00    3.460132e+08    1.186046e-08    1.816340e-11    1.076676e-08    1.753077e-01
    1.061495e+01    1.532413e+02    2.497946e+00    3.550040e+08    1.188743e-08    1.875070e-11    1.080265e-08    1.803077e-01
    1.034697e+01    1.508044e+02    2.632331e+00    3.638562e+08    1.191363e-08    1.935604e-11    1.083757e-08    1.853077e-01
    1.008866e+01    1.483554e+02    2.770297e+00    3.725716e+08    1.193907e-08    1.998000e-11    1.087154e-08    1.903077e-01
    9.839788e+00    1.459007e+02    2.911802e+00    3.811527e+08    1.196379e-08    2.062316e-11    1.090460e-08    1.953077e-01
    9.600077e+00    1.434457e+02    3.056798e+00    3.896027e+08    1.198780e-08    2.128615e-11    1.093677e-08    2.003077e-01
