# sky130 nfet_01v8 gm/ID Processed Lookup Table
# Corner: sf
# Temperature: 0C
# W = 2.0 um
# L = 5.04 um (5040 nm)
# Columns: gm/id [1/V]  gm/gds [V/V]  id/W [A/m]  ft [Hz]  Cgg/W [F/m]  Cgd/W [F/m]  Cgs/W [F/m]  Vov [V]
#         gm/id          gm/gds            id/W              ft           Cgg/W           Cgd/W           Cgs/W             Vov
    2.885217e+01    2.276044e+02    1.713602e-08    7.103632e+00    1.107715e-08    2.144862e-13    5.502240e-10   -5.351803e-01
    2.885145e+01    2.275987e+02    1.979525e-08    8.218310e+00    1.106028e-08    2.228044e-13    5.733145e-10   -5.301803e-01
    2.885068e+01    2.275927e+02    2.286706e-08    9.506754e+00    1.104471e-08    2.314717e-13    5.976220e-10   -5.251803e-01
    2.884986e+01    2.275862e+02    2.641544e-08    1.099581e+01    1.103047e-08    2.405043e-13    6.232140e-10   -5.201803e-01
    2.884896e+01    2.275792e+02    3.051431e-08    1.271643e+01    1.101764e-08    2.499192e-13    6.501620e-10   -5.151803e-01
    2.884800e+01    2.275716e+02    3.524903e-08    1.470427e+01    1.100625e-08    2.597345e-13    6.785375e-10   -5.101803e-01
    2.884697e+01    2.275634e+02    4.071822e-08    1.700042e+01    1.099637e-08    2.699692e-13    7.084205e-10   -5.051803e-01
    2.884586e+01    2.275547e+02    4.703574e-08    1.965219e+01    1.098805e-08    2.806429e-13    7.398925e-10   -5.001803e-01
    2.884467e+01    2.275453e+02    5.433310e-08    2.271405e+01    1.098135e-08    2.917765e-13    7.730380e-10   -4.951803e-01
    2.884340e+01    2.275353e+02    6.276225e-08    2.624866e+01    1.097635e-08    3.033917e-13    8.079465e-10   -4.901803e-01
    2.884201e+01    2.275244e+02    7.249865e-08    3.032817e+01    1.097310e-08    3.155114e-13    8.447095e-10   -4.851803e-01
    2.884054e+01    2.275129e+02    8.374480e-08    3.503547e+01    1.097169e-08    3.281595e-13    8.834230e-10   -4.801803e-01
    2.883895e+01    2.275004e+02    9.673475e-08    4.046592e+01    1.097218e-08    3.413613e-13    9.241870e-10   -4.751803e-01
    2.883724e+01    2.274870e+02    1.117387e-07    4.672907e+01    1.097465e-08    3.551430e-13    9.671045e-10   -4.701803e-01
    2.883541e+01    2.274726e+02    1.290688e-07    5.395075e+01    1.097918e-08    3.695324e-13    1.012284e-09   -4.651803e-01
    2.883345e+01    2.274572e+02    1.490851e-07    6.227546e+01    1.098586e-08    3.845582e-13    1.059835e-09   -4.601803e-01
    2.883134e+01    2.274406e+02    1.722039e-07    7.186904e+01    1.099477e-08    4.002508e-13    1.109874e-09   -4.551803e-01
    2.882908e+01    2.274229e+02    1.989056e-07    8.292170e+01    1.100601e-08    4.166421e-13    1.162518e-09   -4.501803e-01
    2.882664e+01    2.274038e+02    2.297450e-07    9.565153e+01    1.101966e-08    4.337651e-13    1.217889e-09   -4.451803e-01
    2.882403e+01    2.273833e+02    2.653624e-07    1.103087e+02    1.103582e-08    4.516547e-13    1.276112e-09   -4.401803e-01
    2.882121e+01    2.273612e+02    3.064976e-07    1.271793e+02    1.105460e-08    4.703472e-13    1.337317e-09   -4.351803e-01
    2.881820e+01    2.273376e+02    3.540041e-07    1.465916e+02    1.107608e-08    4.898808e-13    1.401635e-09   -4.301803e-01
    2.881496e+01    2.273123e+02    4.088676e-07    1.689208e+02    1.110038e-08    5.102950e-13    1.469199e-09   -4.251803e-01
    2.881148e+01    2.272850e+02    4.722260e-07    1.945961e+02    1.112760e-08    5.316315e-13    1.540149e-09   -4.201803e-01
    2.880776e+01    2.272558e+02    5.453925e-07    2.241085e+02    1.115784e-08    5.539340e-13    1.614622e-09   -4.151803e-01
    2.880375e+01    2.272245e+02    6.298835e-07    2.580188e+02    1.119123e-08    5.772475e-13    1.692761e-09   -4.101803e-01
    2.879945e+01    2.271909e+02    7.274480e-07    2.969674e+02    1.122788e-08    6.016200e-13    1.774709e-09   -4.051803e-01
    2.879483e+01    2.271549e+02    8.401065e-07    3.416859e+02    1.126788e-08    6.270995e-13    1.860611e-09   -4.001803e-01
    2.878988e+01    2.271162e+02    9.701885e-07    3.930081e+02    1.131136e-08    6.537390e-13    1.950613e-09   -3.951803e-01
    2.878456e+01    2.270747e+02    1.120384e-06    4.518853e+02    1.135843e-08    6.815910e-13    2.044859e-09   -3.901803e-01
    2.877884e+01    2.270303e+02    1.293795e-06    5.194021e+02    1.140921e-08    7.107125e-13    2.143497e-09   -3.851803e-01
    2.877272e+01    2.269826e+02    1.494003e-06    5.967928e+02    1.146381e-08    7.411610e-13    2.246672e-09   -3.801803e-01
    2.876615e+01    2.269316e+02    1.725137e-06    6.854638e+02    1.152235e-08    7.729970e-13    2.354528e-09   -3.751803e-01
    2.875909e+01    2.268768e+02    1.991962e-06    7.870146e+02    1.158493e-08    8.062845e-13    2.467208e-09   -3.701803e-01
    2.875153e+01    2.268182e+02    2.299971e-06    9.032646e+02    1.165168e-08    8.410880e-13    2.584852e-09   -3.651803e-01
    2.874342e+01    2.267554e+02    2.655504e-06    1.036282e+03    1.172270e-08    8.774765e-13    2.707597e-09   -3.601803e-01
    2.873471e+01    2.266881e+02    3.065865e-06    1.188415e+03    1.179809e-08    9.155205e-13    2.835577e-09   -3.551803e-01
    2.872538e+01    2.266161e+02    3.539481e-06    1.362333e+03    1.187798e-08    9.552940e-13    2.968919e-09   -3.501803e-01
    2.871537e+01    2.265389e+02    4.086066e-06    1.561063e+03    1.196243e-08    9.968725e-13    3.107750e-09   -3.451803e-01
    2.870466e+01    2.264566e+02    4.716811e-06    1.788041e+03    1.205157e-08    1.040336e-12    3.252185e-09   -3.401803e-01
    2.869317e+01    2.263684e+02    5.444620e-06    2.047160e+03    1.214547e-08    1.085765e-12    3.402335e-09   -3.351803e-01
    2.868087e+01    2.262742e+02    6.284355e-06    2.342835e+03    1.224423e-08    1.133247e-12    3.558304e-09   -3.301803e-01
    2.866768e+01    2.261734e+02    7.253145e-06    2.680066e+03    1.234792e-08    1.182868e-12    3.720187e-09   -3.251803e-01
    2.865356e+01    2.260658e+02    8.370710e-06    3.064512e+03    1.245661e-08    1.234721e-12    3.888070e-09   -3.201803e-01
    2.863846e+01    2.259509e+02    9.659760e-06    3.502581e+03    1.257036e-08    1.288898e-12    4.062027e-09   -3.151803e-01
    2.862227e+01    2.258283e+02    1.114646e-05    4.001524e+03    1.268924e-08    1.345498e-12    4.242125e-09   -3.101803e-01
    2.860497e+01    2.256976e+02    1.286088e-05    4.569531e+03    1.281329e-08    1.404621e-12    4.428415e-09   -3.051803e-01
    2.858647e+01    2.255581e+02    1.483767e-05    5.215866e+03    1.294255e-08    1.466372e-12    4.620940e-09   -3.001803e-01
    2.856668e+01    2.254097e+02    1.711666e-05    5.950995e+03    1.307704e-08    1.530858e-12    4.819727e-09   -2.951803e-01
    2.854553e+01    2.252516e+02    1.974369e-05    6.786734e+03    1.321678e-08    1.598189e-12    5.024790e-09   -2.901803e-01
    2.852295e+01    2.250835e+02    2.277140e-05    7.736419e+03    1.336178e-08    1.668482e-12    5.236135e-09   -2.851803e-01
    2.849881e+01    2.249047e+02    2.626036e-05    8.815094e+03    1.351203e-08    1.741852e-12    5.453735e-09   -2.801803e-01
    2.847307e+01    2.247150e+02    3.028011e-05    1.003973e+04    1.366751e-08    1.818423e-12    5.677570e-09   -2.751803e-01
    2.844560e+01    2.245137e+02    3.491052e-05    1.142946e+04    1.382821e-08    1.898318e-12    5.907595e-09   -2.701803e-01
    2.841632e+01    2.243003e+02    4.024332e-05    1.300583e+04    1.399406e-08    1.981667e-12    6.143745e-09   -2.651803e-01
    2.838512e+01    2.240744e+02    4.638372e-05    1.479311e+04    1.416501e-08    2.068604e-12    6.385940e-09   -2.601803e-01
    2.835192e+01    2.238358e+02    5.345240e-05    1.681862e+04    1.434100e-08    2.159263e-12    6.634090e-09   -2.551803e-01
    2.831657e+01    2.235837e+02    6.158780e-05    1.911308e+04    1.452195e-08    2.253787e-12    6.888080e-09   -2.501803e-01
    2.827899e+01    2.233180e+02    7.094845e-05    2.171104e+04    1.470776e-08    2.352319e-12    7.147780e-09   -2.451803e-01
    2.823906e+01    2.230384e+02    8.171600e-05    2.465134e+04    1.489831e-08    2.455008e-12    7.413055e-09   -2.401803e-01
    2.819667e+01    2.227445e+02    9.409835e-05    2.797758e+04    1.509350e-08    2.562007e-12    7.683735e-09   -2.351803e-01
    2.815173e+01    2.224364e+02    1.083333e-04    3.173873e+04    1.529317e-08    2.673473e-12    7.959650e-09   -2.301803e-01
    2.810412e+01    2.221140e+02    1.246928e-04    3.598970e+04    1.549720e-08    2.789566e-12    8.240605e-09   -2.251803e-01
    2.805373e+01    2.217774e+02    1.434876e-04    4.079207e+04    1.570542e-08    2.910452e-12    8.526395e-09   -2.201803e-01
    2.800047e+01    2.214270e+02    1.650726e-04    4.621485e+04    1.591765e-08    3.036301e-12    8.816795e-09   -2.151803e-01
    2.794424e+01    2.210631e+02    1.898527e-04    5.233530e+04    1.613372e-08    3.167288e-12    9.111565e-09   -2.101803e-01
    2.788495e+01    2.206865e+02    2.182897e-04    5.923990e+04    1.635343e-08    3.303590e-12    9.410465e-09   -2.051803e-01
    2.782252e+01    2.202983e+02    2.509097e-04    6.702539e+04    1.657657e-08    3.445394e-12    9.713230e-09   -2.001803e-01
    2.775689e+01    2.198994e+02    2.883118e-04    7.579981e+04    1.680294e-08    3.592885e-12    1.001959e-08   -1.951803e-01
    2.768800e+01    2.194917e+02    3.311782e-04    8.568402e+04    1.703231e-08    3.746260e-12    1.032926e-08   -1.901803e-01
    2.761582e+01    2.190769e+02    3.802836e-04    9.681285e+04    1.726445e-08    3.905714e-12    1.064194e-08   -1.851803e-01
    2.754035e+01    2.186576e+02    4.365090e-04    1.093368e+05    1.749913e-08    4.071452e-12    1.095736e-08   -1.801803e-01
    2.746154e+01    2.182363e+02    5.008545e-04    1.234237e+05    1.773610e-08    4.243684e-12    1.127517e-08   -1.751803e-01
    2.737948e+01    2.178167e+02    5.744535e-04    1.392607e+05    1.797512e-08    4.422622e-12    1.159510e-08   -1.701803e-01
    2.729418e+01    2.174025e+02    6.585925e-04    1.570564e+05    1.821593e-08    4.608488e-12    1.191679e-08   -1.651803e-01
    2.720575e+01    2.169985e+02    7.547270e-04    1.770433e+05    1.845828e-08    4.801507e-12    1.223997e-08   -1.601803e-01
    2.711431e+01    2.166095e+02    8.645050e-04    1.994804e+05    1.870191e-08    5.001910e-12    1.256427e-08   -1.551803e-01
    2.701995e+01    2.162417e+02    9.897915e-04    2.246559e+05    1.894657e-08    5.209935e-12    1.288940e-08   -1.501803e-01
    2.692291e+01    2.159019e+02    1.132692e-03    2.528914e+05    1.919199e-08    5.425825e-12    1.321503e-08   -1.451803e-01
    2.682337e+01    2.155973e+02    1.295587e-03    2.845446e+05    1.943792e-08    5.649835e-12    1.354083e-08   -1.401803e-01
    2.672159e+01    2.153364e+02    1.481162e-03    3.200143e+05    1.968410e-08    5.882215e-12    1.386649e-08   -1.351803e-01
    2.661782e+01    2.151285e+02    1.692448e-03    3.597449e+05    1.993028e-08    6.123235e-12    1.419171e-08   -1.301803e-01
    2.651237e+01    2.149835e+02    1.932864e-03    4.042317e+05    2.017621e-08    6.373160e-12    1.451615e-08   -1.251803e-01
    2.640555e+01    2.149122e+02    2.206258e-03    4.540261e+05    2.042165e-08    6.632275e-12    1.483954e-08   -1.201803e-01
    2.629768e+01    2.149264e+02    2.516971e-03    5.097437e+05    2.066635e-08    6.900860e-12    1.516159e-08   -1.151803e-01
    2.618910e+01    2.150386e+02    2.869889e-03    5.720709e+05    2.091009e-08    7.179210e-12    1.548199e-08   -1.101803e-01
    2.608011e+01    2.152619e+02    3.270512e-03    6.417720e+05    2.115264e-08    7.467630e-12    1.580047e-08   -1.051803e-01
    2.597100e+01    2.156098e+02    3.725028e-03    7.196992e+05    2.139377e-08    7.766425e-12    1.611677e-08   -1.001803e-01
    2.586200e+01    2.160962e+02    4.240397e-03    8.068009e+05    2.163328e-08    8.075925e-12    1.643064e-08   -9.518030e-02
    2.575330e+01    2.167356e+02    4.824441e-03    9.041324e+05    2.187097e-08    8.396445e-12    1.674183e-08   -9.018030e-02
    2.564499e+01    2.175420e+02    5.485950e-03    1.012866e+06    2.210664e-08    8.728330e-12    1.705011e-08   -8.518030e-02
    2.553705e+01    2.185296e+02    6.234795e-03    1.134299e+06    2.234011e-08    9.071930e-12    1.735525e-08   -8.018030e-02
    2.542936e+01    2.197114e+02    7.082035e-03    1.269869e+06    2.257120e-08    9.427595e-12    1.765705e-08   -7.518030e-02
    2.532161e+01    2.211001e+02    8.040080e-03    1.421155e+06    2.279977e-08    9.795700e-12    1.795532e-08   -7.018030e-02
    2.521339e+01    2.227068e+02    9.122800e-03    1.589893e+06    2.302564e-08    1.017663e-11    1.824988e-08   -6.518030e-02
    2.510409e+01    2.245413e+02    1.034570e-02    1.777978e+06    2.324867e-08    1.057075e-11    1.854055e-08   -6.018030e-02
    2.499292e+01    2.266111e+02    1.172607e-02    1.987467e+06    2.346874e-08    1.097849e-11    1.882718e-08   -5.518030e-02
    2.487893e+01    2.289217e+02    1.328314e-02    2.220579e+06    2.368571e-08    1.140025e-11    1.910963e-08   -5.018030e-02
    2.476100e+01    2.314756e+02    1.503826e-02    2.479688e+06    2.389950e-08    1.183647e-11    1.938779e-08   -4.518030e-02
    2.463787e+01    2.342724e+02    1.701502e-02    2.767317e+06    2.410998e-08    1.228758e-11    1.966152e-08   -4.018030e-02
    2.450813e+01    2.373086e+02    1.923949e-02    3.086118e+06    2.431708e-08    1.275403e-11    1.993072e-08   -3.518030e-02
    2.437034e+01    2.405767e+02    2.174024e-02    3.438850e+06    2.452070e-08    1.323630e-11    2.019532e-08   -3.018030e-02
    2.422299e+01    2.440661e+02    2.454854e-02    3.828348e+06    2.472078e-08    1.373488e-11    2.045522e-08   -2.518030e-02
    2.406455e+01    2.477618e+02    2.769844e-02    4.257483e+06    2.491726e-08    1.425025e-11    2.071037e-08   -2.018030e-02
    2.389357e+01    2.516454e+02    3.122681e-02    4.729123e+06    2.511009e-08    1.478293e-11    2.096072e-08   -1.518030e-02
    2.370873e+01    2.556952e+02    3.517335e-02    5.246082e+06    2.529922e-08    1.533347e-11    2.120621e-08   -1.018030e-02
    2.350879e+01    2.598851e+02    3.958060e-02    5.811049e+06    2.548462e-08    1.590240e-11    2.144683e-08   -5.180300e-03
    2.329278e+01    2.641869e+02    4.449381e-02    6.426555e+06    2.566628e-08    1.649030e-11    2.168255e-08   -1.803000e-04
    2.305993e+01    2.685692e+02    4.996081e-02    7.094883e+06    2.584416e-08    1.709775e-11    2.191335e-08    4.819700e-03
    2.280973e+01    2.729983e+02    5.603185e-02    7.818025e+06    2.601826e-08    1.772536e-11    2.213925e-08    9.819700e-03
    2.254194e+01    2.774389e+02    6.275930e-02    8.597606e+06    2.618859e-08    1.837376e-11    2.236023e-08    1.481970e-02
    2.225663e+01    2.818548e+02    7.019735e-02    9.434852e+06    2.635513e-08    1.904360e-11    2.257633e-08    1.981970e-02
    2.195415e+01    2.862094e+02    7.840160e-02    1.033052e+07    2.651792e-08    1.973553e-11    2.278757e-08    2.481970e-02
    2.163509e+01    2.904659e+02    8.742875e-02    1.128488e+07    2.667695e-08    2.045027e-11    2.299396e-08    2.981970e-02
    2.130031e+01    2.945885e+02    9.733600e-02    1.229765e+07    2.683226e-08    2.118852e-11    2.319556e-08    3.481970e-02
    2.095090e+01    2.985432e+02    1.081807e-01    1.336805e+07    2.698388e-08    2.195103e-11    2.339241e-08    3.981970e-02
    2.058813e+01    3.022977e+02    1.200197e-01    1.449474e+07    2.713184e-08    2.273857e-11    2.358455e-08    4.481970e-02
    2.021343e+01    3.058224e+02    1.329089e-01    1.567585e+07    2.727617e-08    2.355193e-11    2.377204e-08    4.981970e-02
    1.982832e+01    3.090904e+02    1.469031e-01    1.690901e+07    2.741692e-08    2.439193e-11    2.395494e-08    5.481970e-02
    1.943443e+01    3.120784e+02    1.620546e-01    1.819141e+07    2.755413e-08    2.525943e-11    2.413331e-08    5.981970e-02
    1.903339e+01    3.147661e+02    1.784138e-01    1.951980e+07    2.768786e-08    2.615531e-11    2.430723e-08    6.481970e-02
    1.862690e+01    3.171374e+02    1.960281e-01    2.089059e+07    2.781816e-08    2.708048e-11    2.447677e-08    6.981970e-02
    1.821658e+01    3.191798e+02    2.149419e-01    2.229990e+07    2.794507e-08    2.803590e-11    2.464199e-08    7.481970e-02
    1.780403e+01    3.208845e+02    2.351962e-01    2.374362e+07    2.806867e-08    2.902253e-11    2.480298e-08    7.981970e-02
    1.739079e+01    3.222462e+02    2.568281e-01    2.521751e+07    2.818900e-08    3.004139e-11    2.495981e-08    8.481970e-02
    1.697829e+01    3.232629e+02    2.798711e-01    2.671724e+07    2.830613e-08    3.109355e-11    2.511256e-08    8.981970e-02
    1.656788e+01    3.239364e+02    3.043546e-01    2.823845e+07    2.842013e-08    3.218010e-11    2.526133e-08    9.481970e-02
    1.616079e+01    3.242709e+02    3.303040e-01    2.977686e+07    2.853105e-08    3.330216e-11    2.540619e-08    9.981970e-02
    1.575816e+01    3.242734e+02    3.577408e-01    3.132829e+07    2.863897e-08    3.446090e-11    2.554723e-08    1.048197e-01
    1.536097e+01    3.239534e+02    3.866826e-01    3.288873e+07    2.874394e-08    3.565755e-11    2.568454e-08    1.098197e-01
    1.497011e+01    3.233219e+02    4.171430e-01    3.445432e+07    2.884604e-08    3.689336e-11    2.581819e-08    1.148197e-01
    1.458635e+01    3.223922e+02    4.491321e-01    3.602154e+07    2.894534e-08    3.816966e-11    2.594829e-08    1.198197e-01
    1.421036e+01    3.211786e+02    4.826567e-01    3.758707e+07    2.904190e-08    3.948778e-11    2.607492e-08    1.248197e-01
    1.384269e+01    3.196966e+02    5.177200e-01    3.914792e+07    2.913578e-08    4.084914e-11    2.619815e-08    1.298197e-01
    1.348377e+01    3.179617e+02    5.543225e-01    4.070133e+07    2.922707e-08    4.225520e-11    2.631809e-08    1.348197e-01
    1.313396e+01    3.159909e+02    5.924625e-01    4.224494e+07    2.931582e-08    4.370749e-11    2.643481e-08    1.398197e-01
    1.279356e+01    3.138008e+02    6.321345e-01    4.377666e+07    2.940210e-08    4.520756e-11    2.654840e-08    1.448197e-01
    1.246273e+01    3.114080e+02    6.733325e-01    4.529469e+07    2.948598e-08    4.675706e-11    2.665895e-08    1.498197e-01
    1.214161e+01    3.088290e+02    7.160470e-01    4.679752e+07    2.956752e-08    4.835767e-11    2.676653e-08    1.548197e-01
    1.183024e+01    3.060799e+02    7.602680e-01    4.828393e+07    2.964681e-08    5.001115e-11    2.687123e-08    1.598197e-01
    1.152863e+01    3.031763e+02    8.059845e-01    4.975297e+07    2.972388e-08    5.171935e-11    2.697314e-08    1.648197e-01
    1.123673e+01    3.001333e+02    8.531825e-01    5.120393e+07    2.979881e-08    5.348420e-11    2.707234e-08    1.698197e-01
    1.095446e+01    2.969653e+02    9.018495e-01    5.263632e+07    2.987167e-08    5.530755e-11    2.716889e-08    1.748197e-01
    1.068167e+01    2.936856e+02    9.519705e-01    5.404984e+07    2.994251e-08    5.719155e-11    2.726288e-08    1.798197e-01
    1.041820e+01    2.903071e+02    1.003531e+00    5.544435e+07    3.001140e-08    5.913830e-11    2.735438e-08    1.848197e-01
    1.016388e+01    2.868418e+02    1.056516e+00    5.681994e+07    3.007840e-08    6.115000e-11    2.744348e-08    1.898197e-01
    9.918495e+00    2.833007e+02    1.110909e+00    5.817678e+07    3.014356e-08    6.322895e-11    2.753023e-08    1.948197e-01
    9.681815e+00    2.796942e+02    1.166696e+00    5.951516e+07    3.020694e-08    6.537750e-11    2.761471e-08    1.998197e-01
    9.453602e+00    2.760316e+02    1.223861e+00    6.083549e+07    3.026861e-08    6.759815e-11    2.769700e-08    2.048197e-01
    9.233614e+00    2.723217e+02    1.282390e+00    6.213827e+07    3.032862e-08    6.989350e-11    2.777715e-08    2.098197e-01
    9.021584e+00    2.685724e+02    1.342267e+00    6.342402e+07    3.038702e-08    7.226620e-11    2.785524e-08    2.148197e-01
    8.817264e+00    2.647910e+02    1.403479e+00    6.469340e+07    3.044386e-08    7.471900e-11    2.793133e-08    2.198197e-01
