# sky130 nfet_01v8 gm/ID Processed Lookup Table
# Corner: sf
# Temperature: 0C
# W = 2.0 um
# L = 1.26 um (1260 nm)
# Columns: gm/id [1/V]  gm/gds [V/V]  id/W [A/m]  ft [Hz]  Cgg/W [F/m]  Cgd/W [F/m]  Cgs/W [F/m]  Vov [V]
#         gm/id          gm/gds            id/W              ft           Cgg/W           Cgd/W           Cgs/W             Vov
    3.079836e+01    1.600725e+02    1.268822e-08    2.331551e+01    2.667494e-09    2.701481e-14    7.804685e-11   -5.798687e-01
    3.079798e+01    1.600705e+02    1.480055e-08    2.726899e+01    2.660427e-09    2.808570e-14    8.092555e-11   -5.748687e-01
    3.079755e+01    1.600683e+02    1.726452e-08    3.189037e+01    2.653575e-09    2.920077e-14    8.394845e-11   -5.698687e-01
    3.079709e+01    1.600659e+02    2.013864e-08    3.729197e+01    2.646944e-09    3.036208e-14    8.712455e-11   -5.648687e-01
    3.079661e+01    1.600634e+02    2.349117e-08    4.360490e+01    2.640539e-09    3.157179e-14    9.046350e-11   -5.598687e-01
    3.079608e+01    1.600606e+02    2.740174e-08    5.098207e+01    2.634367e-09    3.283217e-14    9.397550e-11   -5.548687e-01
    3.079550e+01    1.600577e+02    3.196321e-08    5.960197e+01    2.628434e-09    3.414561e-14    9.767145e-11   -5.498687e-01
    3.079490e+01    1.600545e+02    3.728389e-08    6.967277e+01    2.622751e-09    3.551466e-14    1.015628e-10   -5.448687e-01
    3.079423e+01    1.600510e+02    4.349014e-08    8.143723e+01    2.617323e-09    3.694196e-14    1.056620e-10   -5.398687e-01
    3.079351e+01    1.600473e+02    5.072930e-08    9.517839e+01    2.612160e-09    3.843032e-14    1.099818e-10   -5.348687e-01
    3.079272e+01    1.600433e+02    5.917325e-08    1.112262e+02    2.607272e-09    3.998270e-14    1.145362e-10   -5.298687e-01
    3.079189e+01    1.600389e+02    6.902240e-08    1.299653e+02    2.602669e-09    4.160221e-14    1.193397e-10   -5.248687e-01
    3.079099e+01    1.600343e+02    8.051055e-08    1.518437e+02    2.598362e-09    4.329211e-14    1.244078e-10   -5.198687e-01
    3.079001e+01    1.600291e+02    9.391035e-08    1.773833e+02    2.594363e-09    4.505588e-14    1.297569e-10   -5.148687e-01
    3.078896e+01    1.600237e+02    1.095398e-07    2.071919e+02    2.590683e-09    4.689715e-14    1.354043e-10   -5.098687e-01
    3.078781e+01    1.600178e+02    1.277698e-07    2.419770e+02    2.587338e-09    4.881976e-14    1.413679e-10   -5.048687e-01
    3.078658e+01    1.600113e+02    1.490328e-07    2.825621e+02    2.584339e-09    5.082775e-14    1.476670e-10   -4.998687e-01
    3.078525e+01    1.600044e+02    1.738331e-07    3.299051e+02    2.581703e-09    5.292535e-14    1.543223e-10   -4.948687e-01
    3.078380e+01    1.599969e+02    2.027590e-07    3.851204e+02    2.579445e-09    5.511710e-14    1.613551e-10   -4.898687e-01
    3.078225e+01    1.599889e+02    2.364965e-07    4.495031e+02    2.577583e-09    5.740770e-14    1.687880e-10   -4.848687e-01
    3.078057e+01    1.599801e+02    2.758454e-07    5.245590e+02    2.576133e-09    5.980210e-14    1.766445e-10   -4.798687e-01
    3.077875e+01    1.599708e+02    3.217385e-07    6.120368e+02    2.575115e-09    6.230560e-14    1.849495e-10   -4.748687e-01
    3.077680e+01    1.599606e+02    3.752634e-07    7.139679e+02    2.574548e-09    6.492365e-14    1.937290e-10   -4.698687e-01
    3.077469e+01    1.599497e+02    4.376882e-07    8.327096e+02    2.574454e-09    6.766210e-14    2.030102e-10   -4.648687e-01
    3.077240e+01    1.599379e+02    5.104920e-07    9.709971e+02    2.574854e-09    7.052705e-14    2.128215e-10   -4.598687e-01
    3.076994e+01    1.599251e+02    5.953985e-07    1.132003e+03    2.575770e-09    7.352495e-14    2.231926e-10   -4.548687e-01
    3.076729e+01    1.599113e+02    6.944180e-07    1.319404e+03    2.577226e-09    7.666250e-14    2.341544e-10   -4.498687e-01
    3.076443e+01    1.598965e+02    8.098940e-07    1.537462e+03    2.579247e-09    7.994685e-14    2.457391e-10   -4.448687e-01
    3.076135e+01    1.598805e+02    9.445585e-07    1.791108e+03    2.581858e-09    8.338550e-14    2.579800e-10   -4.398687e-01
    3.075800e+01    1.598632e+02    1.101597e-06    2.086054e+03    2.585089e-09    8.698625e-14    2.709119e-10   -4.348687e-01
    3.075441e+01    1.598446e+02    1.284722e-06    2.428905e+03    2.588964e-09    9.075740e-14    2.845704e-10   -4.298687e-01
    3.075052e+01    1.598245e+02    1.498260e-06    2.827297e+03    2.593513e-09    9.470755e-14    2.989926e-10   -4.248687e-01
    3.074632e+01    1.598027e+02    1.747256e-06    3.290051e+03    2.598767e-09    9.884590e-14    3.142166e-10   -4.198687e-01
    3.074180e+01    1.597794e+02    2.037589e-06    3.827358e+03    2.604755e-09    1.031819e-13    3.302815e-10   -4.148687e-01
    3.073691e+01    1.597541e+02    2.376109e-06    4.450974e+03    2.611510e-09    1.077255e-13    3.472275e-10   -4.098687e-01
    3.073166e+01    1.597270e+02    2.770799e-06    5.174461e+03    2.619064e-09    1.124873e-13    3.650957e-10   -4.048687e-01
    3.072598e+01    1.596976e+02    3.230962e-06    6.013449e+03    2.627448e-09    1.174782e-13    3.839280e-10   -3.998687e-01
    3.071985e+01    1.596660e+02    3.767437e-06    6.985937e+03    2.636699e-09    1.227098e-13    4.037670e-10   -3.948687e-01
    3.071324e+01    1.596318e+02    4.392848e-06    8.112651e+03    2.646849e-09    1.281939e-13    4.246561e-10   -3.898687e-01
    3.070611e+01    1.595951e+02    5.121905e-06    9.417428e+03    2.657934e-09    1.339434e-13    4.466390e-10   -3.848687e-01
    3.069842e+01    1.595555e+02    5.971740e-06    1.092768e+04    2.669988e-09    1.399712e-13    4.697598e-10   -3.798687e-01
    3.069014e+01    1.595129e+02    6.962300e-06    1.267487e+04    2.683048e-09    1.462912e-13    4.940630e-10   -3.748687e-01
    3.068121e+01    1.594669e+02    8.116820e-06    1.469515e+04    2.697147e-09    1.529177e-13    5.195925e-10   -3.698687e-01
    3.067158e+01    1.594174e+02    9.462350e-06    1.702997e+04    2.712322e-09    1.598655e-13    5.463930e-10   -3.648687e-01
    3.066121e+01    1.593641e+02    1.103038e-05    1.972688e+04    2.728609e-09    1.671504e-13    5.745080e-10   -3.598687e-01
    3.065002e+01    1.593067e+02    1.285755e-05    2.284032e+04    2.746040e-09    1.747886e-13    6.039805e-10   -3.548687e-01
    3.063796e+01    1.592449e+02    1.498653e-05    2.643264e+04    2.764652e-09    1.827970e-13    6.348530e-10   -3.498687e-01
    3.062499e+01    1.591784e+02    1.746693e-05    3.057518e+04    2.784477e-09    1.911932e-13    6.671675e-10   -3.448687e-01
    3.061100e+01    1.591069e+02    2.035649e-05    3.534946e+04    2.805548e-09    1.999956e-13    7.009630e-10   -3.398687e-01
    3.059594e+01    1.590300e+02    2.372235e-05    4.084868e+04    2.827896e-09    2.092232e-13    7.362790e-10   -3.348687e-01
    3.057973e+01    1.589473e+02    2.764258e-05    4.717924e+04    2.851553e-09    2.188956e-13    7.731520e-10   -3.298687e-01
    3.056228e+01    1.588584e+02    3.220794e-05    5.446252e+04    2.876545e-09    2.290335e-13    8.116160e-10   -3.248687e-01
    3.054351e+01    1.587630e+02    3.752390e-05    6.283695e+04    2.902899e-09    2.396582e-13    8.517040e-10   -3.198687e-01
    3.052332e+01    1.586605e+02    4.371300e-05    7.246027e+04    2.930641e-09    2.507915e-13    8.934460e-10   -3.148687e-01
    3.050160e+01    1.585506e+02    5.091760e-05    8.351210e+04    2.959793e-09    2.624563e-13    9.368675e-10   -3.098687e-01
    3.047826e+01    1.584326e+02    5.930295e-05    9.619687e+04    2.990375e-09    2.746763e-13    9.819930e-10   -3.048687e-01
    3.045319e+01    1.583061e+02    6.906085e-05    1.107471e+05    3.022403e-09    2.874758e-13    1.028843e-09   -2.998687e-01
    3.042624e+01    1.581706e+02    8.041395e-05    1.274271e+05    3.055893e-09    3.008801e-13    1.077433e-09   -2.948687e-01
    3.039732e+01    1.580255e+02    9.362030e-05    1.465368e+05    3.090856e-09    3.149151e-13    1.127776e-09   -2.898687e-01
    3.036628e+01    1.578703e+02    1.089792e-04    1.684170e+05    3.127299e-09    3.296077e-13    1.179880e-09   -2.848687e-01
    3.033297e+01    1.577043e+02    1.268375e-04    1.934540e+05    3.165228e-09    3.449857e-13    1.233748e-09   -2.798687e-01
    3.029728e+01    1.575270e+02    1.475966e-04    2.220857e+05    3.204642e-09    3.610776e-13    1.289381e-09   -2.748687e-01
    3.025903e+01    1.573377e+02    1.717217e-04    2.548081e+05    3.245539e-09    3.779128e-13    1.346772e-09   -2.698687e-01
    3.021808e+01    1.571359e+02    1.997504e-04    2.921828e+05    3.287912e-09    3.955214e-13    1.405911e-09   -2.648687e-01
    3.017426e+01    1.569209e+02    2.323049e-04    3.348443e+05    3.331749e-09    4.139347e-13    1.466782e-09   -2.598687e-01
    3.012742e+01    1.566923e+02    2.701038e-04    3.835103e+05    3.377036e-09    4.331846e-13    1.529364e-09   -2.548687e-01
    3.007735e+01    1.564492e+02    3.139770e-04    4.389905e+05    3.423753e-09    4.533041e-13    1.593630e-09   -2.498687e-01
    3.002392e+01    1.561913e+02    3.648821e-04    5.021991e+05    3.471875e-09    4.743268e-13    1.659550e-09   -2.448687e-01
    2.996692e+01    1.559179e+02    4.239234e-04    5.741659e+05    3.521375e-09    4.962873e-13    1.727085e-09   -2.398687e-01
    2.990620e+01    1.556288e+02    4.923734e-04    6.560509e+05    3.572221e-09    5.192210e-13    1.796195e-09   -2.348687e-01
    2.984157e+01    1.553235e+02    5.716965e-04    7.491593e+05    3.624375e-09    5.431650e-13    1.866831e-09   -2.298687e-01
    2.977284e+01    1.550016e+02    6.635780e-04    8.549577e+05    3.677796e-09    5.681560e-13    1.938940e-09   -2.248687e-01
    2.969988e+01    1.546630e+02    7.699530e-04    9.750930e+05    3.732441e-09    5.942320e-13    2.012466e-09   -2.198687e-01
    2.962248e+01    1.543077e+02    8.930455e-04    1.111413e+06    3.788259e-09    6.214330e-13    2.087345e-09   -2.148687e-01
    2.954052e+01    1.539356e+02    1.035404e-03    1.265988e+06    3.845197e-09    6.497985e-13    2.163509e-09   -2.098687e-01
    2.945384e+01    1.535471e+02    1.199950e-03    1.441134e+06    3.903201e-09    6.793695e-13    2.240889e-09   -2.048687e-01
    2.936233e+01    1.531427e+02    1.390025e-03    1.639442e+06    3.962208e-09    7.101885e-13    2.319408e-09   -1.998687e-01
    2.926587e+01    1.527231e+02    1.609454e-03    1.863807e+06    4.022156e-09    7.422980e-13    2.398986e-09   -1.948687e-01
    2.916440e+01    1.522893e+02    1.862598e-03    2.117459e+06    4.082980e-09    7.757425e-13    2.479541e-09   -1.898687e-01
    2.905781e+01    1.518425e+02    2.154438e-03    2.403993e+06    4.144610e-09    8.105660e-13    2.560986e-09   -1.848687e-01
    2.894613e+01    1.513846e+02    2.490646e-03    2.727423e+06    4.206977e-09    8.468150e-13    2.643233e-09   -1.798687e-01
    2.882932e+01    1.509174e+02    2.877675e-03    3.092202e+06    4.270005e-09    8.845365e-13    2.726190e-09   -1.748687e-01
    2.870746e+01    1.504435e+02    3.322863e-03    3.503292e+06    4.333621e-09    9.237785e-13    2.809764e-09   -1.698687e-01
    2.858063e+01    1.499658e+02    3.834538e-03    3.966199e+06    4.397749e-09    9.645900e-13    2.893862e-09   -1.648687e-01
    2.844894e+01    1.494876e+02    4.422145e-03    4.487034e+06    4.462311e-09    1.007021e-12    2.978385e-09   -1.598687e-01
    2.831258e+01    1.490129e+02    5.096380e-03    5.072579e+06    4.527230e-09    1.051122e-12    3.063240e-09   -1.548687e-01
    2.817176e+01    1.485461e+02    5.869345e-03    5.730354e+06    4.592427e-09    1.096948e-12    3.148329e-09   -1.498687e-01
    2.802675e+01    1.480923e+02    6.754715e-03    6.468697e+06    4.657824e-09    1.144550e-12    3.233556e-09   -1.448687e-01
    2.787783e+01    1.476566e+02    7.767935e-03    7.296845e+06    4.723344e-09    1.193984e-12    3.318825e-09   -1.398687e-01
    2.772538e+01    1.472453e+02    8.926405e-03    8.225036e+06    4.788908e-09    1.245306e-12    3.404040e-09   -1.348687e-01
    2.756976e+01    1.468647e+02    1.024975e-02    9.264604e+06    4.854442e-09    1.298573e-12    3.489111e-09   -1.298687e-01
    2.741136e+01    1.465217e+02    1.176003e-02    1.042811e+07    4.919870e-09    1.353844e-12    3.573944e-09   -1.248687e-01
    2.725058e+01    1.462234e+02    1.348209e-02    1.172945e+07    4.985119e-09    1.411178e-12    3.658451e-09   -1.198687e-01
    2.708780e+01    1.459773e+02    1.544382e-02    1.318399e+07    5.050120e-09    1.470638e-12    3.742546e-09   -1.148687e-01
    2.692340e+01    1.457909e+02    1.767653e-02    1.480876e+07    5.114795e-09    1.532286e-12    3.826143e-09   -1.098687e-01
    2.675770e+01    1.456716e+02    2.021532e-02    1.662249e+07    5.179090e-09    1.596186e-12    3.909163e-09   -1.048687e-01
    2.659094e+01    1.456266e+02    2.309954e-02    1.864589e+07    5.242930e-09    1.662406e-12    3.991527e-09   -9.986870e-02
    2.642331e+01    1.456627e+02    2.637321e-02    2.090171e+07    5.306260e-09    1.731011e-12    4.073162e-09   -9.486870e-02
    2.625484e+01    1.457861e+02    3.008554e-02    2.341490e+07    5.369020e-09    1.802072e-12    4.153998e-09   -8.986870e-02
    2.608548e+01    1.460020e+02    3.429144e-02    2.621274e+07    5.431155e-09    1.875660e-12    4.233968e-09   -8.486870e-02
    2.591498e+01    1.463146e+02    3.905213e-02    2.932495e+07    5.492605e-09    1.951847e-12    4.313011e-09   -7.986870e-02
    2.574296e+01    1.467266e+02    4.443569e-02    3.278360e+07    5.553335e-09    2.030710e-12    4.391067e-09   -7.486870e-02
    2.556887e+01    1.472392e+02    5.051770e-02    3.662336e+07    5.613285e-09    2.112323e-12    4.468084e-09   -6.986870e-02
    2.539199e+01    1.478518e+02    5.738180e-02    4.088107e+07    5.672425e-09    2.196767e-12    4.544011e-09   -6.486870e-02
    2.521144e+01    1.485617e+02    6.512035e-02    4.559598e+07    5.730705e-09    2.284121e-12    4.618803e-09   -5.986870e-02
    2.502619e+01    1.493643e+02    7.383505e-02    5.080913e+07    5.788095e-09    2.374471e-12    4.692419e-09   -5.486870e-02
    2.483512e+01    1.502527e+02    8.363730e-02    5.656323e+07    5.844565e-09    2.467900e-12    4.764822e-09   -4.986870e-02
    2.463702e+01    1.512176e+02    9.464880e-02    6.290209e+07    5.900085e-09    2.564496e-12    4.835979e-09   -4.486870e-02
    2.443062e+01    1.522478e+02    1.070019e-01    6.987012e+07    5.954625e-09    2.664352e-12    4.905861e-09   -3.986870e-02
    2.421470e+01    1.533298e+02    1.208396e-01    7.751151e+07    6.008170e-09    2.767560e-12    4.974444e-09   -3.486870e-02
    2.398809e+01    1.544483e+02    1.363159e-01    8.586974e+07    6.060690e-09    2.874214e-12    5.041705e-09   -2.986870e-02
    2.374966e+01    1.555864e+02    1.535958e-01    9.498625e+07    6.112180e-09    2.984414e-12    5.107635e-09   -2.486870e-02
    2.349850e+01    1.567258e+02    1.728546e-01    1.048999e+08    6.162625e-09    3.098263e-12    5.172210e-09   -1.986870e-02
    2.323386e+01    1.578473e+02    1.942774e-01    1.156463e+08    6.212005e-09    3.215864e-12    5.235420e-09   -1.486870e-02
    2.295519e+01    1.589309e+02    2.180590e-01    1.272559e+08    6.260325e-09    3.337324e-12    5.297270e-09   -9.868700e-03
    2.266222e+01    1.599569e+02    2.444022e-01    1.397543e+08    6.307575e-09    3.462757e-12    5.357745e-09   -4.868700e-03
    2.235488e+01    1.609055e+02    2.735170e-01    1.531605e+08    6.353750e-09    3.592275e-12    5.416850e-09    1.313000e-04
    2.203339e+01    1.617577e+02    3.056194e-01    1.674866e+08    6.398855e-09    3.725997e-12    5.474585e-09    5.131300e-03
    2.169823e+01    1.624960e+02    3.409293e-01    1.827377e+08    6.442885e-09    3.864045e-12    5.530955e-09    1.013130e-02
    2.135005e+01    1.631038e+02    3.796694e-01    1.989105e+08    6.485850e-09    4.006546e-12    5.585970e-09    1.513130e-02
    2.098976e+01    1.635669e+02    4.220633e-01    2.159938e+08    6.527755e-09    4.153628e-12    5.639635e-09    2.013130e-02
    2.061844e+01    1.638729e+02    4.683333e-01    2.339687e+08    6.568605e-09    4.305425e-12    5.691965e-09    2.513130e-02
    2.023732e+01    1.640115e+02    5.186985e-01    2.528081e+08    6.608410e-09    4.462077e-12    5.742970e-09    3.013130e-02
    1.984770e+01    1.639753e+02    5.733745e-01    2.724777e+08    6.647185e-09    4.623727e-12    5.792670e-09    3.513130e-02
    1.945103e+01    1.637588e+02    6.325685e-01    2.929361e+08    6.684940e-09    4.790521e-12    5.841085e-09    4.013130e-02
    1.904877e+01    1.633596e+02    6.964805e-01    3.141362e+08    6.721685e-09    4.962612e-12    5.888220e-09    4.513130e-02
    1.864238e+01    1.627767e+02    7.653010e-01    3.360253e+08    6.757435e-09    5.140160e-12    5.934110e-09    5.013130e-02
    1.823335e+01    1.620122e+02    8.392085e-01    3.585461e+08    6.792215e-09    5.323320e-12    5.978765e-09    5.513130e-02
    1.782307e+01    1.610699e+02    9.183705e-01    3.816387e+08    6.826030e-09    5.512270e-12    6.022215e-09    6.013130e-02
    1.741295e+01    1.599555e+02    1.002940e+00    4.052404e+08    6.858900e-09    5.707185e-12    6.064480e-09    6.513130e-02
    1.700425e+01    1.586761e+02    1.093056e+00    4.292869e+08    6.890845e-09    5.908235e-12    6.105575e-09    7.013130e-02
    1.659820e+01    1.572406e+02    1.188845e+00    4.537137e+08    6.921885e-09    6.115610e-12    6.145540e-09    7.513130e-02
    1.619589e+01    1.556585e+02    1.290417e+00    4.784569e+08    6.952040e-09    6.329510e-12    6.184385e-09    8.013130e-02
    1.579834e+01    1.539406e+02    1.397869e+00    5.034544e+08    6.981325e-09    6.550125e-12    6.222145e-09    8.513130e-02
    1.540643e+01    1.520980e+02    1.511282e+00    5.286456e+08    7.009760e-09    6.777660e-12    6.258840e-09    9.013130e-02
    1.502097e+01    1.501423e+02    1.630724e+00    5.539728e+08    7.037365e-09    7.012340e-12    6.294500e-09    9.513130e-02
    1.464264e+01    1.480855e+02    1.756249e+00    5.793815e+08    7.064165e-09    7.254375e-12    6.329145e-09    1.001313e-01
    1.427202e+01    1.459392e+02    1.887897e+00    6.048211e+08    7.090175e-09    7.504000e-12    6.362805e-09    1.051313e-01
    1.390961e+01    1.437150e+02    2.025697e+00    6.302449e+08    7.115415e-09    7.761445e-12    6.395505e-09    1.101313e-01
    1.355579e+01    1.414244e+02    2.169667e+00    6.556096e+08    7.139910e-09    8.026960e-12    6.427270e-09    1.151313e-01
    1.321088e+01    1.390783e+02    2.319813e+00    6.808770e+08    7.163680e-09    8.300795e-12    6.458125e-09    1.201313e-01
    1.287510e+01    1.366869e+02    2.476132e+00    7.060130e+08    7.186740e-09    8.583215e-12    6.488100e-09    1.251313e-01
    1.254862e+01    1.342603e+02    2.638613e+00    7.309873e+08    7.209115e-09    8.874490e-12    6.517215e-09    1.301313e-01
    1.223153e+01    1.318075e+02    2.807234e+00    7.557741e+08    7.230820e-09    9.174910e-12    6.545495e-09    1.351313e-01
    1.192387e+01    1.293371e+02    2.981970e+00    7.803510e+08    7.251880e-09    9.484755e-12    6.572970e-09    1.401313e-01
    1.162562e+01    1.268570e+02    3.162788e+00    8.046998e+08    7.272310e-09    9.804330e-12    6.599655e-09    1.451313e-01
    1.133672e+01    1.243744e+02    3.349650e+00    8.288052e+08    7.292130e-09    1.013395e-11    6.625585e-09    1.501313e-01
    1.105707e+01    1.218957e+02    3.542514e+00    8.526554e+08    7.311360e-09    1.047395e-11    6.650775e-09    1.551313e-01
    1.078654e+01    1.194269e+02    3.741332e+00    8.762410e+08    7.330020e-09    1.082464e-11    6.675245e-09    1.601313e-01
    1.052498e+01    1.169732e+02    3.946057e+00    8.995553e+08    7.348130e-09    1.118640e-11    6.699030e-09    1.651313e-01
    1.027219e+01    1.145391e+02    4.156637e+00    9.225952e+08    7.365700e-09    1.155957e-11    6.722140e-09    1.701313e-01
    1.002798e+01    1.121288e+02    4.373017e+00    9.453584e+08    7.382750e-09    1.194452e-11    6.744605e-09    1.751313e-01
