# sky130 nfet_01v8 gm/ID Processed Lookup Table
# Corner: sf
# Temperature: 0C
# W = 2.0 um
# L = 3.06 um (3060 nm)
# Columns: gm/id [1/V]  gm/gds [V/V]  id/W [A/m]  ft [Hz]  Cgg/W [F/m]  Cgd/W [F/m]  Cgs/W [F/m]  Vov [V]
#         gm/id          gm/gds            id/W              ft           Cgg/W           Cgd/W           Cgs/W             Vov
    2.888023e+01    1.763266e+02    2.165539e-08    1.476908e+01    6.739585e-09    1.195363e-13    3.178877e-10   -5.426215e-01
    2.887963e+01    1.763229e+02    2.501946e-08    1.709096e+01    6.728575e-09    1.241609e-13    3.310126e-10   -5.376215e-01
    2.887897e+01    1.763189e+02    2.890603e-08    1.977564e+01    6.718305e-09    1.289784e-13    3.448219e-10   -5.326215e-01
    2.887826e+01    1.763145e+02    3.339625e-08    2.287933e+01    6.708810e-09    1.339975e-13    3.593534e-10   -5.276215e-01
    2.887751e+01    1.763100e+02    3.858382e-08    2.646686e+01    6.700120e-09    1.392277e-13    3.746471e-10   -5.226215e-01
    2.887668e+01    1.763050e+02    4.457701e-08    3.061300e+01    6.692255e-09    1.446788e-13    3.907437e-10   -5.176215e-01
    2.887581e+01    1.762996e+02    5.150090e-08    3.540390e+01    6.685255e-09    1.503613e-13    4.076885e-10   -5.126215e-01
    2.887484e+01    1.762937e+02    5.950000e-08    4.093884e+01    6.679150e-09    1.562859e-13    4.255275e-10   -5.076215e-01
    2.887383e+01    1.762876e+02    6.874115e-08    4.733220e+01    6.673975e-09    1.624641e-13    4.443088e-10   -5.026215e-01
    2.887273e+01    1.762809e+02    7.941715e-08    5.471567e+01    6.669765e-09    1.689077e-13    4.640826e-10   -4.976215e-01
    2.887155e+01    1.762737e+02    9.175070e-08    6.324082e+01    6.666565e-09    1.756294e-13    4.849014e-10   -4.926215e-01
    2.887029e+01    1.762660e+02    1.059990e-07    7.308210e+01    6.664415e-09    1.826423e-13    5.068200e-10   -4.876215e-01
    2.886893e+01    1.762577e+02    1.224592e-07    8.444026e+01    6.663350e-09    1.899601e-13    5.298945e-10   -4.826215e-01
    2.886747e+01    1.762489e+02    1.414744e-07    9.754603e+01    6.663420e-09    1.975974e-13    5.541850e-10   -4.776215e-01
    2.886590e+01    1.762393e+02    1.634411e-07    1.126648e+02    6.664665e-09    2.055692e-13    5.797525e-10   -4.726215e-01
    2.886421e+01    1.762290e+02    1.888169e-07    1.301010e+02    6.667145e-09    2.138914e-13    6.066610e-10   -4.676215e-01
    2.886242e+01    1.762181e+02    2.181307e-07    1.502054e+02    6.670895e-09    2.225807e-13    6.349760e-10   -4.626215e-01
    2.886048e+01    1.762063e+02    2.519931e-07    1.733794e+02    6.675975e-09    2.316545e-13    6.647655e-10   -4.576215e-01
    2.885839e+01    1.761936e+02    2.911093e-07    2.000844e+02    6.682440e-09    2.411311e-13    6.961005e-10   -4.526215e-01
    2.885614e+01    1.761799e+02    3.362938e-07    2.308495e+02    6.690340e-09    2.510294e-13    7.290535e-10   -4.476215e-01
    2.885374e+01    1.761654e+02    3.884871e-07    2.662816e+02    6.699735e-09    2.613695e-13    7.636990e-10   -4.426215e-01
    2.885116e+01    1.761496e+02    4.487753e-07    3.070757e+02    6.710685e-09    2.721723e-13    8.001130e-10   -4.376215e-01
    2.884837e+01    1.761328e+02    5.184125e-07    3.540280e+02    6.723250e-09    2.834597e-13    8.383755e-10   -4.326215e-01
    2.884541e+01    1.761148e+02    5.988465e-07    4.080507e+02    6.737490e-09    2.952544e-13    8.785660e-10   -4.276215e-01
    2.884220e+01    1.760953e+02    6.917500e-07    4.701871e+02    6.753470e-09    3.075805e-13    9.207665e-10   -4.226215e-01
    2.883875e+01    1.760744e+02    7.990530e-07    5.416303e+02    6.771255e-09    3.204628e-13    9.650610e-10   -4.176215e-01
    2.883506e+01    1.760521e+02    9.229840e-07    6.237452e+02    6.790910e-09    3.339272e-13    1.011535e-09   -4.126215e-01
    2.883110e+01    1.760281e+02    1.066116e-06    7.180901e+02    6.812505e-09    3.480012e-13    1.060272e-09   -4.076215e-01
    2.882684e+01    1.760024e+02    1.231419e-06    8.264463e+02    6.836100e-09    3.627129e-13    1.111363e-09   -4.026215e-01
    2.882227e+01    1.759748e+02    1.422321e-06    9.508445e+02    6.861775e-09    3.780921e-13    1.164893e-09   -3.976215e-01
    2.881737e+01    1.759452e+02    1.642779e-06    1.093604e+03    6.889595e-09    3.941694e-13    1.220951e-09   -3.926215e-01
    2.881209e+01    1.759133e+02    1.897360e-06    1.257367e+03    6.919625e-09    4.109770e-13    1.279625e-09   -3.876215e-01
    2.880645e+01    1.758793e+02    2.191332e-06    1.445147e+03    6.951940e-09    4.285484e-13    1.341004e-09   -3.826215e-01
    2.880039e+01    1.758427e+02    2.530779e-06    1.660375e+03    6.986610e-09    4.469184e-13    1.405175e-09   -3.776215e-01
    2.879390e+01    1.758037e+02    2.922715e-06    1.906958e+03    7.023700e-09    4.661232e-13    1.472224e-09   -3.726215e-01
    2.878691e+01    1.757618e+02    3.375235e-06    2.189338e+03    7.063280e-09    4.862005e-13    1.542238e-09   -3.676215e-01
    2.877943e+01    1.757168e+02    3.897679e-06    2.512572e+03    7.105420e-09    5.071895e-13    1.615301e-09   -3.626215e-01
    2.877139e+01    1.756686e+02    4.500814e-06    2.882406e+03    7.150180e-09    5.291305e-13    1.691494e-09   -3.576215e-01
    2.876277e+01    1.756170e+02    5.197065e-06    3.305366e+03    7.197630e-09    5.520665e-13    1.770897e-09   -3.526215e-01
    2.875353e+01    1.755618e+02    6.000755e-06    3.788868e+03    7.247825e-09    5.760405e-13    1.853587e-09   -3.476215e-01
    2.874363e+01    1.755026e+02    6.928395e-06    4.341324e+03    7.300830e-09    6.010980e-13    1.939636e-09   -3.426215e-01
    2.873302e+01    1.754393e+02    7.999030e-06    4.972277e+03    7.356705e-09    6.272870e-13    2.029114e-09   -3.376215e-01
    2.872163e+01    1.753717e+02    9.234600e-06    5.692555e+03    7.415495e-09    6.546550e-13    2.122085e-09   -3.326215e-01
    2.870945e+01    1.752993e+02    1.066039e-05    6.514423e+03    7.477255e-09    6.832535e-13    2.218611e-09   -3.276215e-01
    2.869639e+01    1.752220e+02    1.230554e-05    7.451785e+03    7.542025e-09    7.131345e-13    2.318746e-09   -3.226215e-01
    2.868240e+01    1.751393e+02    1.420363e-05    8.520372e+03    7.609855e-09    7.443525e-13    2.422538e-09   -3.176215e-01
    2.866743e+01    1.750510e+02    1.639330e-05    9.738007e+03    7.680775e-09    7.769625e-13    2.530031e-09   -3.126215e-01
    2.865140e+01    1.749568e+02    1.891906e-05    1.112484e+04    7.754820e-09    8.110230e-13    2.641261e-09   -3.076215e-01
    2.863424e+01    1.748562e+02    2.183217e-05    1.270367e+04    7.832015e-09    8.465935e-13    2.756256e-09   -3.026215e-01
    2.861589e+01    1.747491e+02    2.519160e-05    1.450027e+04    7.912380e-09    8.837355e-13    2.875038e-09   -2.976215e-01
    2.859628e+01    1.746349e+02    2.906520e-05    1.654376e+04    7.995925e-09    9.225125e-13    2.997619e-09   -2.926215e-01
    2.857530e+01    1.745133e+02    3.353102e-05    1.886702e+04    8.082660e-09    9.629905e-13    3.124005e-09   -2.876215e-01
    2.855290e+01    1.743839e+02    3.867882e-05    2.150720e+04    8.172590e-09    1.005237e-12    3.254191e-09   -2.826215e-01
    2.852898e+01    1.742463e+02    4.461176e-05    2.450621e+04    8.265700e-09    1.049321e-12    3.388163e-09   -2.776215e-01
    2.850343e+01    1.741001e+02    5.144840e-05    2.791130e+04    8.361980e-09    1.095314e-12    3.525900e-09   -2.726215e-01
    2.847619e+01    1.739451e+02    5.932490e-05    3.177580e+04    8.461405e-09    1.143291e-12    3.667367e-09   -2.676215e-01
    2.844715e+01    1.737806e+02    6.839760e-05    3.615976e+04    8.563950e-09    1.193327e-12    3.812526e-09   -2.626215e-01
    2.841617e+01    1.736065e+02    7.884605e-05    4.113086e+04    8.669575e-09    1.245501e-12    3.961321e-09   -2.576215e-01
    2.838319e+01    1.734223e+02    9.087605e-05    4.676529e+04    8.778235e-09    1.299892e-12    4.113691e-09   -2.526215e-01
    2.834811e+01    1.732277e+02    1.047237e-04    5.314883e+04    8.889870e-09    1.356584e-12    4.269564e-09   -2.476215e-01
    2.831078e+01    1.730223e+02    1.206597e-04    6.037788e+04    9.004430e-09    1.415660e-12    4.428857e-09   -2.426215e-01
    2.827112e+01    1.728062e+02    1.389939e-04    6.856091e+04    9.121835e-09    1.477208e-12    4.591478e-09   -2.376215e-01
    2.822903e+01    1.725788e+02    1.600812e-04    7.781971e+04    9.242015e-09    1.541318e-12    4.757325e-09   -2.326215e-01
    2.818436e+01    1.723402e+02    1.843278e-04    8.829113e+04    9.364875e-09    1.608081e-12    4.926285e-09   -2.276215e-01
    2.813706e+01    1.720905e+02    2.121981e-04    1.001288e+05    9.490330e-09    1.677591e-12    5.098240e-09   -2.226215e-01
    2.808696e+01    1.718294e+02    2.442229e-04    1.135048e+05    9.618275e-09    1.749945e-12    5.273055e-09   -2.176215e-01
    2.803399e+01    1.715572e+02    2.810085e-04    1.286122e+05    9.748605e-09    1.825242e-12    5.450595e-09   -2.126215e-01
    2.797806e+01    1.712743e+02    3.232469e-04    1.456673e+05    9.881205e-09    1.903584e-12    5.630710e-09   -2.076215e-01
    2.791906e+01    1.709812e+02    3.717273e-04    1.649123e+05    1.001596e-08    1.985075e-12    5.813245e-09   -2.026215e-01
    2.785693e+01    1.706784e+02    4.273493e-04    1.866180e+05    1.015273e-08    2.069821e-12    5.998040e-09   -1.976215e-01
    2.779159e+01    1.703669e+02    4.911377e-04    2.110876e+05    1.029139e-08    2.157933e-12    6.184930e-09   -1.926215e-01
    2.772299e+01    1.700478e+02    5.642585e-04    2.386596e+05    1.043180e-08    2.249522e-12    6.373735e-09   -1.876215e-01
    2.765109e+01    1.697226e+02    6.480375e-04    2.697121e+05    1.057383e-08    2.344704e-12    6.564275e-09   -1.826215e-01
    2.757586e+01    1.693928e+02    7.439825e-04    3.046673e+05    1.071732e-08    2.443596e-12    6.756370e-09   -1.776215e-01
    2.749731e+01    1.690607e+02    8.538040e-04    3.439964e+05    1.086212e-08    2.546320e-12    6.949830e-09   -1.726215e-01
    2.741544e+01    1.687285e+02    9.794440e-04    3.882247e+05    1.100809e-08    2.653000e-12    7.144460e-09   -1.676215e-01
    2.733034e+01    1.683992e+02    1.123103e-03    4.379380e+05    1.115507e-08    2.763761e-12    7.340075e-09   -1.626215e-01
    2.724205e+01    1.680763e+02    1.287276e-03    4.937893e+05    1.130289e-08    2.878736e-12    7.536470e-09   -1.576215e-01
    2.715070e+01    1.677634e+02    1.474783e-03    5.565061e+05    1.145142e-08    2.998056e-12    7.733455e-09   -1.526215e-01
    2.705642e+01    1.674650e+02    1.688820e-03    6.268990e+05    1.160049e-08    3.121859e-12    7.930840e-09   -1.476215e-01
    2.695938e+01    1.671860e+02    1.932995e-03    7.058710e+05    1.174994e-08    3.250285e-12    8.128420e-09   -1.426215e-01
    2.685981e+01    1.669320e+02    2.211386e-03    7.944285e+05    1.189961e-08    3.383478e-12    8.326000e-09   -1.376215e-01
    2.675790e+01    1.667091e+02    2.528597e-03    8.936923e+05    1.204936e-08    3.521586e-12    8.523400e-09   -1.326215e-01
    2.665396e+01    1.665243e+02    2.889822e-03    1.004912e+06    1.219902e-08    3.664759e-12    8.720425e-09   -1.276215e-01
    2.654825e+01    1.663848e+02    3.300920e-03    1.129480e+06    1.234845e-08    3.813154e-12    8.916890e-09   -1.226215e-01
    2.644109e+01    1.662989e+02    3.768493e-03    1.268948e+06    1.249750e-08    3.966928e-12    9.112615e-09   -1.176215e-01
    2.633281e+01    1.662750e+02    4.299979e-03    1.425048e+06    1.264603e-08    4.126246e-12    9.307425e-09   -1.126215e-01
    2.622372e+01    1.663225e+02    4.903758e-03    1.599708e+06    1.279390e-08    4.291276e-12    9.501145e-09   -1.076215e-01
    2.611414e+01    1.664509e+02    5.589260e-03    1.795078e+06    1.294097e-08    4.462189e-12    9.693620e-09   -1.026215e-01
    2.600436e+01    1.666704e+02    6.367090e-03    2.013554e+06    1.308712e-08    4.639163e-12    9.884680e-09   -9.762150e-02
    2.589459e+01    1.669912e+02    7.249195e-03    2.257807e+06    1.323220e-08    4.822380e-12    1.007419e-08   -9.262150e-02
    2.578505e+01    1.674239e+02    8.248975e-03    2.530802e+06    1.337611e-08    5.012025e-12    1.026198e-08   -8.762150e-02
    2.567579e+01    1.679786e+02    9.381515e-03    2.835834e+06    1.351874e-08    5.208290e-12    1.044794e-08   -8.262150e-02
    2.556684e+01    1.686655e+02    1.066373e-02    3.176557e+06    1.365996e-08    5.411375e-12    1.063192e-08   -7.762150e-02
    2.545807e+01    1.694942e+02    1.211458e-02    3.557008e+06    1.379968e-08    5.621485e-12    1.081381e-08   -7.262150e-02
    2.534919e+01    1.704736e+02    1.375536e-02    3.981633e+06    1.393782e-08    5.838820e-12    1.099349e-08   -6.762150e-02
    2.523978e+01    1.716114e+02    1.560983e-02    4.455314e+06    1.407426e-08    6.063600e-12    1.117086e-08   -6.262150e-02
    2.512925e+01    1.729142e+02    1.770459e-02    4.983381e+06    1.420893e-08    6.296050e-12    1.134581e-08   -5.762150e-02
    2.501680e+01    1.743867e+02    2.006928e-02    5.571615e+06    1.434176e-08    6.536390e-12    1.151826e-08   -5.262150e-02
    2.490150e+01    1.760321e+02    2.273686e-02    6.226266e+06    1.447267e-08    6.784860e-12    1.168814e-08   -4.762150e-02
    2.478225e+01    1.778513e+02    2.574393e-02    6.954012e+06    1.460159e-08    7.041695e-12    1.185535e-08   -4.262150e-02
    2.465778e+01    1.798425e+02    2.913095e-02    7.761949e+06    1.472848e-08    7.307145e-12    1.201985e-08   -3.762150e-02
    2.452668e+01    1.820016e+02    3.294256e-02    8.657532e+06    1.485327e-08    7.581475e-12    1.218156e-08   -3.262150e-02
    2.438750e+01    1.843216e+02    3.722776e-02    9.648516e+06    1.497593e-08    7.864935e-12    1.234044e-08   -2.762150e-02
    2.423874e+01    1.867926e+02    4.204013e-02    1.074288e+07    1.509641e-08    8.157810e-12    1.249646e-08   -2.262150e-02
    2.407887e+01    1.894020e+02    4.743799e-02    1.194868e+07    1.521467e-08    8.460370e-12    1.264956e-08   -1.762150e-02
    2.390640e+01    1.921334e+02    5.348450e-02    1.327395e+07    1.533070e-08    8.772910e-12    1.279974e-08   -1.262150e-02
    2.372000e+01    1.949689e+02    6.024770e-02    1.472659e+07    1.544447e-08    9.095730e-12    1.294695e-08   -7.621500e-03
    2.351846e+01    1.978871e+02    6.780030e-02    1.631413e+07    1.555596e-08    9.429130e-12    1.309119e-08   -2.621500e-03
    2.330073e+01    2.008645e+02    7.621985e-02    1.804360e+07    1.566515e-08    9.773435e-12    1.323244e-08    2.378500e-03
    2.306608e+01    2.038760e+02    8.558805e-02    1.992136e+07    1.577205e-08    1.012898e-11    1.337071e-08    7.378500e-03
    2.281393e+01    2.068943e+02    9.599090e-02    2.195289e+07    1.587664e-08    1.049608e-11    1.350600e-08    1.237850e-02
    2.254408e+01    2.098915e+02    1.075178e-01    2.414267e+07    1.597892e-08    1.087511e-11    1.363831e-08    1.737850e-02
    2.225658e+01    2.128391e+02    1.202610e-01    2.649395e+07    1.607892e-08    1.126642e-11    1.376765e-08    2.237850e-02
    2.195175e+01    2.157083e+02    1.343157e-01    2.900868e+07    1.617662e-08    1.167039e-11    1.389405e-08    2.737850e-02
    2.163020e+01    2.184712e+02    1.497780e-01    3.168738e+07    1.627205e-08    1.208740e-11    1.401752e-08    3.237850e-02
    2.129280e+01    2.211006e+02    1.667454e-01    3.452905e+07    1.636523e-08    1.251784e-11    1.413808e-08    3.737850e-02
    2.094063e+01    2.235709e+02    1.853151e-01    3.753117e+07    1.645616e-08    1.296215e-11    1.425578e-08    4.237850e-02
    2.057497e+01    2.258585e+02    2.055835e-01    4.068966e+07    1.654487e-08    1.342073e-11    1.437063e-08    4.737850e-02
    2.019726e+01    2.279421e+02    2.276450e-01    4.399893e+07    1.663139e-08    1.389404e-11    1.448268e-08    5.237850e-02
    1.980905e+01    2.298029e+02    2.515916e-01    4.745197e+07    1.671575e-08    1.438253e-11    1.459195e-08    5.737850e-02
    1.941197e+01    2.314252e+02    2.775117e-01    5.104046e+07    1.679796e-08    1.488666e-11    1.469851e-08    6.237850e-02
    1.900773e+01    2.327965e+02    3.054893e-01    5.475501e+07    1.687807e-08    1.540693e-11    1.480237e-08    6.737850e-02
    1.859797e+01    2.339067e+02    3.356038e-01    5.858502e+07    1.695610e-08    1.594385e-11    1.490360e-08    7.237850e-02
    1.818438e+01    2.347494e+02    3.679284e-01    6.251927e+07    1.703210e-08    1.649793e-11    1.500222e-08    7.737850e-02
    1.776857e+01    2.353212e+02    4.025307e-01    6.654583e+07    1.710609e-08    1.706972e-11    1.509830e-08    8.237850e-02
    1.735210e+01    2.356214e+02    4.394715e-01    7.065249e+07    1.717812e-08    1.765978e-11    1.519189e-08    8.737850e-02
    1.693643e+01    2.356522e+02    4.788051e-01    7.482673e+07    1.724821e-08    1.826869e-11    1.528302e-08    9.237850e-02
    1.652294e+01    2.354183e+02    5.205785e-01    7.905614e+07    1.731642e-08    1.889705e-11    1.537177e-08    9.737850e-02
    1.611284e+01    2.349263e+02    5.648320e-01    8.332832e+07    1.738277e-08    1.954549e-11    1.545816e-08    1.023785e-01
    1.570730e+01    2.341852e+02    6.115990e-01    8.763140e+07    1.744732e-08    2.021464e-11    1.554226e-08    1.073785e-01
    1.530733e+01    2.332055e+02    6.609055e-01    9.195397e+07    1.751010e-08    2.090518e-11    1.562412e-08    1.123785e-01
    1.491383e+01    2.319989e+02    7.127715e-01    9.628518e+07    1.757115e-08    2.161780e-11    1.570380e-08    1.173785e-01
    1.452756e+01    2.305785e+02    7.672105e-01    1.006150e+08    1.763051e-08    2.235322e-11    1.578134e-08    1.223785e-01
    1.414921e+01    2.289578e+02    8.242300e-01    1.049341e+08    1.768822e-08    2.311218e-11    1.585680e-08    1.273785e-01
    1.377932e+01    2.271514e+02    8.838325e-01    1.092341e+08    1.774433e-08    2.389544e-11    1.593022e-08    1.323785e-01
    1.341835e+01    2.251735e+02    9.460145e-01    1.135075e+08    1.779888e-08    2.470382e-11    1.600168e-08    1.373785e-01
    1.306666e+01    2.230391e+02    1.010768e+00    1.177476e+08    1.785190e-08    2.553813e-11    1.607120e-08    1.423785e-01
    1.272451e+01    2.207625e+02    1.078083e+00    1.219487e+08    1.790344e-08    2.639924e-11    1.613886e-08    1.473785e-01
    1.239210e+01    2.183582e+02    1.147944e+00    1.261060e+08    1.795354e-08    2.728804e-11    1.620470e-08    1.523785e-01
    1.206954e+01    2.158399e+02    1.220331e+00    1.302153e+08    1.800224e-08    2.820544e-11    1.626876e-08    1.573785e-01
    1.175690e+01    2.132213e+02    1.295225e+00    1.342737e+08    1.804957e-08    2.915241e-11    1.633110e-08    1.623785e-01
    1.145415e+01    2.105148e+02    1.372602e+00    1.382785e+08    1.809559e-08    3.012994e-11    1.639177e-08    1.673785e-01
    1.116125e+01    2.077328e+02    1.452436e+00    1.422280e+08    1.814033e-08    3.113906e-11    1.645082e-08    1.723785e-01
    1.087811e+01    2.048866e+02    1.534703e+00    1.461211e+08    1.818381e-08    3.218084e-11    1.650828e-08    1.773785e-01
    1.060458e+01    2.019867e+02    1.619374e+00    1.499572e+08    1.822609e-08    3.325639e-11    1.656422e-08    1.823785e-01
    1.034051e+01    1.990433e+02    1.706421e+00    1.537363e+08    1.826719e-08    3.436686e-11    1.661867e-08    1.873785e-01
    1.008568e+01    1.960651e+02    1.795816e+00    1.574586e+08    1.830716e-08    3.551344e-11    1.667169e-08    1.923785e-01
    9.839897e+00    1.930608e+02    1.887532e+00    1.611250e+08    1.834603e-08    3.669737e-11    1.672330e-08    1.973785e-01
    9.602920e+00    1.900376e+02    1.981539e+00    1.647365e+08    1.838384e-08    3.791994e-11    1.677356e-08    2.023785e-01
    9.374507e+00    1.870029e+02    2.077808e+00    1.682945e+08    1.842061e-08    3.918249e-11    1.682251e-08    2.073785e-01
    9.154400e+00    1.839625e+02    2.176314e+00    1.718006e+08    1.845639e-08    4.048639e-11    1.687019e-08    2.123785e-01
