# sky130 nfet_01v8 gm/ID Processed Lookup Table
# Corner: sf
# Temperature: 0C
# W = 2.0 um
# L = 0.72 um (720 nm)
# Columns: gm/id [1/V]  gm/gds [V/V]  id/W [A/m]  ft [Hz]  Cgg/W [F/m]  Cgd/W [F/m]  Cgs/W [F/m]  Vov [V]
#         gm/id          gm/gds            id/W              ft           Cgg/W           Cgd/W           Cgs/W             Vov
    3.103061e+01    1.773743e+02    1.295627e-08    4.261233e+01    1.501603e-09    2.549290e-15    3.571945e-11   -6.073843e-01
    3.103027e+01    1.773731e+02    1.513079e-08    4.991318e+01    1.497105e-09    2.670696e-15    3.695485e-11   -6.023843e-01
    3.102990e+01    1.773717e+02    1.767025e-08    5.846110e+01    1.492713e-09    2.795052e-15    3.824733e-11   -5.973843e-01
    3.102951e+01    1.773702e+02    2.063587e-08    6.846838e+01    1.488428e-09    2.922234e-15    3.960040e-11   -5.923843e-01
    3.102910e+01    1.773686e+02    2.409917e-08    8.018318e+01    1.484253e-09    3.052095e-15    4.101781e-11   -5.873843e-01
    3.102864e+01    1.773667e+02    2.814365e-08    9.389561e+01    1.480192e-09    3.184469e-15    4.250354e-11   -5.823843e-01
    3.102815e+01    1.773647e+02    3.286682e-08    1.099450e+02    1.476244e-09    3.319161e-15    4.406186e-11   -5.773843e-01
    3.102761e+01    1.773623e+02    3.838256e-08    1.287279e+02    1.472413e-09    3.455956e-15    4.569732e-11   -5.723843e-01
    3.102703e+01    1.773599e+02    4.482382e-08    1.507076e+02    1.468703e-09    3.594609e-15    4.741472e-11   -5.673843e-01
    3.102639e+01    1.773571e+02    5.234590e-08    1.764257e+02    1.465117e-09    3.734847e-15    4.921923e-11   -5.623843e-01
    3.102573e+01    1.773541e+02    6.113005e-08    2.065150e+02    1.461657e-09    3.876365e-15    5.111635e-11   -5.573843e-01
    3.102500e+01    1.773508e+02    7.138805e-08    2.417143e+02    1.458328e-09    4.018828e-15    5.311185e-11   -5.523843e-01
    3.102422e+01    1.773472e+02    8.336705e-08    2.828867e+02    1.455133e-09    4.161867e-15    5.521195e-11   -5.473843e-01
    3.102336e+01    1.773432e+02    9.735580e-08    3.310401e+02    1.452079e-09    4.305075e-15    5.742325e-11   -5.423843e-01
    3.102244e+01    1.773388e+02    1.136913e-07    3.873507e+02    1.449169e-09    4.448010e-15    5.975270e-11   -5.373843e-01
    3.102145e+01    1.773341e+02    1.327671e-07    4.531919e+02    1.446407e-09    4.590189e-15    6.220780e-11   -5.323843e-01
    3.102037e+01    1.773289e+02    1.550428e-07    5.301653e+02    1.443801e-09    4.731090e-15    6.479635e-11   -5.273843e-01
    3.101922e+01    1.773234e+02    1.810549e-07    6.201404e+02    1.441356e-09    4.870148e-15    6.752670e-11   -5.223843e-01
    3.101795e+01    1.773172e+02    2.114298e-07    7.252965e+02    1.439077e-09    5.006755e-15    7.040745e-11   -5.173843e-01
    3.101659e+01    1.773105e+02    2.468990e-07    8.481748e+02    1.436972e-09    5.140255e-15    7.344815e-11   -5.123843e-01
    3.101511e+01    1.773031e+02    2.883165e-07    9.917370e+02    1.435047e-09    5.269950e-15    7.665870e-11   -5.073843e-01
    3.101352e+01    1.772952e+02    3.366791e-07    1.159435e+03    1.433313e-09    5.395100e-15    8.004965e-11   -5.023843e-01
    3.101180e+01    1.772866e+02    3.931510e-07    1.355289e+03    1.431775e-09    5.514910e-15    8.363190e-11   -4.973843e-01
    3.100995e+01    1.772773e+02    4.590909e-07    1.583980e+03    1.430442e-09    5.628540e-15    8.741710e-11   -4.923843e-01
    3.100796e+01    1.772672e+02    5.360850e-07    1.850957e+03    1.429324e-09    5.735105e-15    9.141755e-11   -4.873843e-01
    3.100579e+01    1.772561e+02    6.259855e-07    2.162560e+03    1.428430e-09    5.833680e-15    9.564610e-11   -4.823843e-01
    3.100345e+01    1.772442e+02    7.309540e-07    2.526163e+03    1.427772e-09    5.923290e-15    1.001163e-10   -4.773843e-01
    3.100093e+01    1.772313e+02    8.535135e-07    2.950341e+03    1.427359e-09    6.002915e-15    1.048423e-10   -4.723843e-01
    3.099820e+01    1.772173e+02    9.966100e-07    3.445057e+03    1.427202e-09    6.071510e-15    1.098390e-10   -4.673843e-01
    3.099526e+01    1.772021e+02    1.163681e-06    4.021884e+03    1.427315e-09    6.127980e-15    1.151220e-10   -4.623843e-01
    3.099209e+01    1.771857e+02    1.358738e-06    4.694261e+03    1.427708e-09    6.171205e-15    1.207077e-10   -4.573843e-01
    3.098866e+01    1.771679e+02    1.586465e-06    5.477782e+03    1.428396e-09    6.200045e-15    1.266130e-10   -4.523843e-01
    3.098495e+01    1.771487e+02    1.852327e-06    6.390534e+03    1.429392e-09    6.213335e-15    1.328556e-10   -4.473843e-01
    3.098095e+01    1.771279e+02    2.162700e-06    7.453485e+03    1.430711e-09    6.209905e-15    1.394540e-10   -4.423843e-01
    3.097663e+01    1.771053e+02    2.525026e-06    8.690925e+03    1.432367e-09    6.188575e-15    1.464275e-10   -4.373843e-01
    3.097197e+01    1.770808e+02    2.947989e-06    1.013099e+04    1.434375e-09    6.148185e-15    1.537957e-10   -4.323843e-01
    3.096694e+01    1.770546e+02    3.441718e-06    1.180624e+04    1.436753e-09    6.087585e-15    1.615792e-10   -4.273843e-01
    3.096150e+01    1.770260e+02    4.018031e-06    1.375432e+04    1.439516e-09    6.005675e-15    1.697993e-10   -4.223843e-01
    3.095564e+01    1.769953e+02    4.690715e-06    1.601874e+04    1.442682e-09    5.901385e-15    1.784779e-10   -4.173843e-01
    3.094930e+01    1.769621e+02    5.475850e-06    1.864978e+04    1.446268e-09    5.773730e-15    1.876373e-10   -4.123843e-01
    3.094249e+01    1.769261e+02    6.392190e-06    2.170548e+04    1.450293e-09    5.621805e-15    1.973007e-10   -4.073843e-01
    3.093511e+01    1.768873e+02    7.461610e-06    2.525274e+04    1.454775e-09    5.444805e-15    2.074915e-10   -4.023843e-01
    3.092715e+01    1.768454e+02    8.709610e-06    2.936873e+04    1.459733e-09    5.242070e-15    2.182340e-10   -3.973843e-01
    3.091856e+01    1.768001e+02    1.016593e-05    3.414233e+04    1.465188e-09    5.013075e-15    2.295524e-10   -3.923843e-01
    3.090930e+01    1.767512e+02    1.186523e-05    3.967583e+04    1.471158e-09    4.757501e-15    2.414717e-10   -3.873843e-01
    3.089931e+01    1.766985e+02    1.384790e-05    4.608689e+04    1.477663e-09    4.475222e-15    2.540168e-10   -3.823843e-01
    3.088854e+01    1.766416e+02    1.616104e-05    5.351074e+04    1.484725e-09    4.166363e-15    2.672132e-10   -3.773843e-01
    3.087691e+01    1.765802e+02    1.885952e-05    6.210267e+04    1.492362e-09    3.831325e-15    2.810862e-10   -3.723843e-01
    3.086440e+01    1.765141e+02    2.200724e-05    7.204098e+04    1.500596e-09    3.470821e-15    2.956610e-10   -3.673843e-01
    3.085089e+01    1.764427e+02    2.567864e-05    8.352991e+04    1.509447e-09    3.085917e-15    3.109631e-10   -3.623843e-01
    3.083632e+01    1.763658e+02    2.996045e-05    9.680367e+04    1.518935e-09    2.678069e-15    3.270173e-10   -3.573843e-01
    3.082064e+01    1.762829e+02    3.495359e-05    1.121304e+05    1.529081e-09    2.249164e-15    3.438483e-10   -3.523843e-01
    3.080374e+01    1.761938e+02    4.077555e-05    1.298166e+05    1.539902e-09    1.801568e-15    3.614804e-10   -3.473843e-01
    3.078554e+01    1.760976e+02    4.756306e-05    1.502129e+05    1.551420e-09    1.338166e-15    3.799371e-10   -3.423843e-01
    3.076593e+01    1.759942e+02    5.547520e-05    1.737196e+05    1.563652e-09    8.624160e-16    3.992411e-10   -3.373843e-01
    3.074483e+01    1.758830e+02    6.469690e-05    2.007935e+05    1.576617e-09    3.783891e-16    4.194143e-10   -3.323843e-01
    3.072213e+01    1.757633e+02    7.544330e-05    2.319555e+05    1.590331e-09    1.091769e-16    4.404776e-10   -3.273843e-01
    3.069771e+01    1.756347e+02    8.796435e-05    2.677991e+05    1.604811e-09    5.948290e-16    4.624503e-10   -3.223843e-01
    3.067144e+01    1.754965e+02    1.025505e-04    3.089996e+05    1.620071e-09    1.072350e-15    4.853508e-10   -3.173843e-01
    3.064320e+01    1.753481e+02    1.195390e-04    3.563256e+05    1.636126e-09    1.534706e-15    5.091955e-10   -3.123843e-01
    3.061285e+01    1.751888e+02    1.393214e-04    4.106501e+05    1.652989e-09    1.974001e-15    5.339995e-10   -3.073843e-01
    3.058025e+01    1.750180e+02    1.623521e-04    4.729647e+05    1.670669e-09    2.381423e-15    5.597755e-10   -3.023843e-01
    3.054527e+01    1.748349e+02    1.891579e-04    5.443940e+05    1.689178e-09    2.747202e-15    5.865345e-10   -2.973843e-01
    3.050771e+01    1.746387e+02    2.203497e-04    6.262127e+05    1.708521e-09    3.060559e-15    6.142855e-10   -2.923843e-01
    3.046743e+01    1.744286e+02    2.566350e-04    7.198643e+05    1.728707e-09    3.309665e-15    6.430350e-10   -2.873843e-01
    3.042429e+01    1.742042e+02    2.988332e-04    8.269826e+05    1.749738e-09    3.481600e-15    6.727870e-10   -2.823843e-01
    3.037805e+01    1.739641e+02    3.478921e-04    9.494127e+05    1.771616e-09    3.562311e-15    7.035425e-10   -2.773843e-01
    3.032857e+01    1.737078e+02    4.049083e-04    1.089240e+06    1.794342e-09    3.536581e-15    7.353005e-10   -2.723843e-01
    3.027565e+01    1.734344e+02    4.711481e-04    1.248815e+06    1.817912e-09    3.387993e-15    7.680570e-10   -2.673843e-01
    3.021909e+01    1.731433e+02    5.480745e-04    1.430789e+06    1.842322e-09    3.098907e-15    8.018040e-10   -2.623843e-01
    3.015871e+01    1.728335e+02    6.373745e-04    1.638143e+06    1.867565e-09    2.650436e-15    8.365330e-10   -2.573843e-01
    3.009430e+01    1.725041e+02    7.409930e-04    1.874231e+06    1.893630e-09    2.022426e-15    8.722300e-10   -2.523843e-01
    3.002565e+01    1.721545e+02    8.611710e-04    2.142821e+06    1.920508e-09    1.193445e-15    9.088785e-10   -2.473843e-01
    2.995256e+01    1.717841e+02    1.000485e-03    2.448137e+06    1.948180e-09    1.407777e-16    9.464605e-10   -2.423843e-01
    2.987486e+01    1.713921e+02    1.161899e-03    2.794914e+06    1.976632e-09    1.159582e-15    9.849525e-10   -2.373843e-01
    2.979234e+01    1.709780e+02    1.348814e-03    3.188450e+06    2.005844e-09    2.732921e-15    1.024330e-09   -2.323843e-01
    2.970482e+01    1.705415e+02    1.565133e-03    3.634665e+06    2.035794e-09    4.605803e-15    1.064565e-09   -2.273843e-01
    2.961211e+01    1.700821e+02    1.815327e-03    4.140169e+06    2.066456e-09    6.806045e-15    1.105624e-09   -2.223843e-01
    2.951408e+01    1.695998e+02    2.104511e-03    4.712328e+06    2.097805e-09    9.362705e-15    1.147475e-09   -2.173843e-01
    2.941060e+01    1.690949e+02    2.438534e-03    5.359348e+06    2.129810e-09    1.230605e-14    1.190081e-09   -2.123843e-01
    2.930151e+01    1.685672e+02    2.824071e-03    6.090340e+06    2.162441e-09    1.566753e-14    1.233401e-09   -2.073843e-01
    2.918673e+01    1.680174e+02    3.268733e-03    6.915429e+06    2.195665e-09    1.947972e-14    1.277394e-09   -2.023843e-01
    2.906621e+01    1.674464e+02    3.781185e-03    7.845845e+06    2.229445e-09    2.377632e-14    1.322015e-09   -1.973843e-01
    2.893993e+01    1.668554e+02    4.371277e-03    8.894027e+06    2.263745e-09    2.859206e-14    1.367218e-09   -1.923843e-01
    2.880789e+01    1.662457e+02    5.050195e-03    1.007372e+07    2.298527e-09    3.396269e-14    1.412955e-09   -1.873843e-01
    2.867014e+01    1.656193e+02    5.830625e-03    1.140016e+07    2.333750e-09    3.992490e-14    1.459176e-09   -1.823843e-01
    2.852677e+01    1.649783e+02    6.726930e-03    1.289010e+07    2.369372e-09    4.651629e-14    1.505827e-09   -1.773843e-01
    2.837796e+01    1.643255e+02    7.755350e-03    1.456210e+07    2.405352e-09    5.377525e-14    1.552859e-09   -1.723843e-01
    2.822387e+01    1.636641e+02    8.934230e-03    1.643657e+07    2.441645e-09    6.174105e-14    1.600216e-09   -1.673843e-01
    2.806478e+01    1.629977e+02    1.028425e-02    1.853603e+07    2.478208e-09    7.045360e-14    1.647842e-09   -1.623843e-01
    2.790099e+01    1.623303e+02    1.182871e-02    2.088526e+07    2.514996e-09    7.995340e-14    1.695685e-09   -1.573843e-01
    2.773284e+01    1.616664e+02    1.359383e-02    2.351159e+07    2.551963e-09    9.028175e-14    1.743688e-09   -1.523843e-01
    2.756071e+01    1.610111e+02    1.560906e-02    2.644505e+07    2.589065e-09    1.014803e-13    1.791796e-09   -1.473843e-01
    2.738505e+01    1.603696e+02    1.790746e-02    2.971874e+07    2.626258e-09    1.135913e-13    1.839954e-09   -1.423843e-01
    2.720632e+01    1.597475e+02    2.052610e-02    3.336909e+07    2.663495e-09    1.266574e-13    1.888107e-09   -1.373843e-01
    2.702497e+01    1.591505e+02    2.350648e-02    3.743616e+07    2.700734e-09    1.407216e-13    1.936201e-09   -1.323843e-01
    2.684150e+01    1.585847e+02    2.689507e-02    4.196403e+07    2.737930e-09    1.558273e-13    1.984183e-09   -1.273843e-01
    2.665635e+01    1.580561e+02    3.074380e-02    4.700119e+07    2.775042e-09    1.720182e-13    2.032003e-09   -1.223843e-01
    2.646996e+01    1.575701e+02    3.511065e-02    5.260086e+07    2.812026e-09    1.893381e-13    2.079609e-09   -1.173843e-01
    2.628269e+01    1.571324e+02    4.006033e-02    5.882143e+07    2.848845e-09    2.078314e-13    2.126952e-09   -1.123843e-01
    2.609484e+01    1.567476e+02    4.566492e-02    6.572687e+07    2.885457e-09    2.275422e-13    2.173985e-09   -1.073843e-01
    2.590661e+01    1.564201e+02    5.200470e-02    7.338697e+07    2.921826e-09    2.485153e-13    2.220663e-09   -1.023843e-01
    2.571808e+01    1.561529e+02    5.916890e-02    8.187786e+07    2.957915e-09    2.707952e-13    2.266943e-09   -9.738430e-02
    2.552922e+01    1.559482e+02    6.725655e-02    9.128209e+07    2.993690e-09    2.944270e-13    2.312784e-09   -9.238430e-02
    2.533984e+01    1.558066e+02    7.637745e-02    1.016888e+08    3.029118e-09    3.194557e-13    2.358147e-09   -8.738430e-02
    2.514959e+01    1.557276e+02    8.665300e-02    1.131936e+08    3.064168e-09    3.459264e-13    2.402994e-09   -8.238430e-02
    2.495800e+01    1.557087e+02    9.821715e-02    1.258989e+08    3.098812e-09    3.738848e-13    2.447292e-09   -7.738430e-02
    2.476441e+01    1.557458e+02    1.112176e-01    1.399130e+08    3.133022e-09    4.033762e-13    2.491009e-09   -7.238430e-02
    2.456808e+01    1.558333e+02    1.258160e-01    1.553496e+08    3.166773e-09    4.344466e-13    2.534115e-09   -6.738430e-02
    2.436809e+01    1.559634e+02    1.421898e-01    1.723274e+08    3.200043e-09    4.671421e-13    2.576584e-09   -6.238430e-02
    2.416351e+01    1.561268e+02    1.605321e-01    1.909686e+08    3.232809e-09    5.015090e-13    2.618391e-09   -5.738430e-02
    2.395329e+01    1.563127e+02    1.810528e-01    2.113977e+08    3.265052e-09    5.375945e-13    2.659514e-09   -5.238430e-02
    2.373638e+01    1.565087e+02    2.039787e-01    2.337397e+08    3.296757e-09    5.754450e-13    2.699934e-09   -4.738430e-02
    2.351176e+01    1.567013e+02    2.295543e-01    2.581188e+08    3.327906e-09    6.151085e-13    2.739632e-09   -4.238430e-02
    2.327845e+01    1.568759e+02    2.580410e-01    2.846553e+08    3.358488e-09    6.566330e-13    2.778595e-09   -3.738430e-02
    2.303556e+01    1.570177e+02    2.897180e-01    3.134644e+08    3.388489e-09    7.000670e-13    2.816809e-09   -3.238430e-02
    2.278234e+01    1.571112e+02    3.248803e-01    3.446534e+08    3.417901e-09    7.454595e-13    2.854264e-09   -2.738430e-02
    2.251820e+01    1.571413e+02    3.638396e-01    3.783191e+08    3.446715e-09    7.928610e-13    2.890951e-09   -2.238430e-02
    2.224269e+01    1.570932e+02    4.069214e-01    4.145458e+08    3.474925e-09    8.423220e-13    2.926866e-09   -1.738430e-02
    2.195559e+01    1.569530e+02    4.544648e-01    4.534029e+08    3.502526e-09    8.938940e-13    2.962002e-09   -1.238430e-02
    2.165687e+01    1.567079e+02    5.068205e-01    4.949428e+08    3.529515e-09    9.476295e-13    2.996357e-09   -7.384300e-03
    2.134671e+01    1.563466e+02    5.643475e-01    5.391993e+08    3.555890e-09    1.003582e-12    3.029932e-09   -2.384300e-03
    2.102545e+01    1.558593e+02    6.274130e-01    5.861865e+08    3.581650e-09    1.061806e-12    3.062725e-09    2.615700e-03
    2.069362e+01    1.552378e+02    6.963880e-01    6.358961e+08    3.606798e-09    1.122357e-12    3.094741e-09    7.615700e-03
    2.035195e+01    1.544765e+02    7.716450e-01    6.882998e+08    3.631333e-09    1.185293e-12    3.125982e-09    1.261570e-02
    2.000125e+01    1.535711e+02    8.535565e-01    7.433466e+08    3.655260e-09    1.250672e-12    3.156454e-09    1.761570e-02
    1.964253e+01    1.525199e+02    9.424890e-01    8.009646e+08    3.678583e-09    1.318553e-12    3.186163e-09    2.261570e-02
    1.927682e+01    1.513228e+02    1.038804e+00    8.610612e+08    3.701307e-09    1.388998e-12    3.215118e-09    2.761570e-02
    1.890525e+01    1.499817e+02    1.142853e+00    9.235249e+08    3.723439e-09    1.462071e-12    3.243325e-09    3.261570e-02
    1.852899e+01    1.485002e+02    1.254974e+00    9.882266e+08    3.744984e-09    1.537836e-12    3.270796e-09    3.761570e-02
    1.814923e+01    1.468838e+02    1.375492e+00    1.055022e+09    3.765951e-09    1.616360e-12    3.297540e-09    4.261570e-02
    1.776715e+01    1.451388e+02    1.504714e+00    1.123754e+09    3.786349e-09    1.697712e-12    3.323569e-09    4.761570e-02
    1.738392e+01    1.432734e+02    1.642930e+00    1.194255e+09    3.806184e-09    1.781963e-12    3.348895e-09    5.261570e-02
    1.700068e+01    1.412961e+02    1.790406e+00    1.266348e+09    3.825468e-09    1.869185e-12    3.373529e-09    5.761570e-02
    1.661849e+01    1.392167e+02    1.947389e+00    1.339853e+09    3.844211e-09    1.959455e-12    3.397486e-09    6.261570e-02
    1.623837e+01    1.370452e+02    2.114103e+00    1.414585e+09    3.862422e-09    2.052849e-12    3.420778e-09    6.761570e-02
    1.586127e+01    1.347921e+02    2.290748e+00    1.490360e+09    3.880111e-09    2.149449e-12    3.443419e-09    7.261570e-02
    1.548805e+01    1.324680e+02    2.477499e+00    1.566995e+09    3.897291e-09    2.249337e-12    3.465423e-09    7.761570e-02
    1.511950e+01    1.300835e+02    2.674511e+00    1.644312e+09    3.913971e-09    2.352598e-12    3.486805e-09    8.261570e-02
    1.475633e+01    1.276490e+02    2.881911e+00    1.722139e+09    3.930164e-09    2.459322e-12    3.507579e-09    8.761570e-02
    1.439915e+01    1.251747e+02    3.099807e+00    1.800310e+09    3.945881e-09    2.569601e-12    3.527760e-09    9.261570e-02
    1.404850e+01    1.226703e+02    3.328281e+00    1.878670e+09    3.961134e-09    2.683530e-12    3.547363e-09    9.761570e-02
    1.370484e+01    1.201451e+02    3.567398e+00    1.957070e+09    3.975934e-09    2.801205e-12    3.566402e-09    1.026157e-01
    1.336856e+01    1.176079e+02    3.817198e+00    2.035376e+09    3.990293e-09    2.922729e-12    3.584893e-09    1.076157e-01
    1.303998e+01    1.150668e+02    4.077707e+00    2.113464e+09    4.004222e-09    3.048207e-12    3.602850e-09    1.126157e-01
    1.271933e+01    1.125292e+02    4.348929e+00    2.191217e+09    4.017734e-09    3.177748e-12    3.620287e-09    1.176157e-01
    1.240679e+01    1.100020e+02    4.630855e+00    2.268534e+09    4.030839e-09    3.311464e-12    3.637220e-09    1.226157e-01
    1.210251e+01    1.074915e+02    4.923459e+00    2.345325e+09    4.043550e-09    3.449473e-12    3.653662e-09    1.276157e-01
    1.180655e+01    1.050032e+02    5.226700e+00    2.421508e+09    4.055877e-09    3.591894e-12    3.669629e-09    1.326157e-01
    1.151893e+01    1.025421e+02    5.540535e+00    2.497014e+09    4.067832e-09    3.738853e-12    3.685134e-09    1.376157e-01
    1.123967e+01    1.001124e+02    5.864890e+00    2.571784e+09    4.079427e-09    3.890479e-12    3.700191e-09    1.426157e-01
    1.096870e+01    9.771794e+01    6.199700e+00    2.645765e+09    4.090672e-09    4.046907e-12    3.714814e-09    1.476157e-01
