# sky130 nfet_01v8 gm/ID Processed Lookup Table
# Corner: sf
# Temperature: 0C
# W = 2.0 um
# L = 2.34 um (2340 nm)
# Columns: gm/id [1/V]  gm/gds [V/V]  id/W [A/m]  ft [Hz]  Cgg/W [F/m]  Cgd/W [F/m]  Cgs/W [F/m]  Vov [V]
#         gm/id          gm/gds            id/W              ft           Cgg/W           Cgd/W           Cgs/W             Vov
    2.936071e+01    1.574745e+02    1.817695e-08    1.644986e+01    5.163515e-09    7.913230e-14    2.238471e-10   -5.493322e-01
    2.936021e+01    1.574718e+02    2.105118e-08    1.908473e+01    5.154300e-09    8.222380e-14    2.329403e-10   -5.443322e-01
    2.935967e+01    1.574689e+02    2.437983e-08    2.213931e+01    5.145620e-09    8.544445e-14    2.425052e-10   -5.393322e-01
    2.935907e+01    1.574656e+02    2.823473e-08    2.568001e+01    5.137490e-09    8.880025e-14    2.525685e-10   -5.343322e-01
    2.935843e+01    1.574622e+02    3.269907e-08    2.978361e+01    5.129925e-09    9.229760e-14    2.631580e-10   -5.293322e-01
    2.935775e+01    1.574586e+02    3.786917e-08    3.453887e+01    5.122955e-09    9.594305e-14    2.743031e-10   -5.243322e-01
    2.935701e+01    1.574546e+02    4.385655e-08    4.004841e+01    5.116595e-09    9.974365e-14    2.860357e-10   -5.193322e-01
    2.935621e+01    1.574504e+02    5.079040e-08    4.643088e+01    5.110870e-09    1.037066e-13    2.983883e-10   -5.143322e-01
    2.935536e+01    1.574458e+02    5.882025e-08    5.382323e+01    5.105810e-09    1.078397e-13    3.113953e-10   -5.093322e-01
    2.935444e+01    1.574409e+02    6.811930e-08    6.238373e+01    5.101440e-09    1.121509e-13    3.250928e-10   -5.043322e-01
    2.935344e+01    1.574355e+02    7.888810e-08    7.229523e+01    5.097780e-09    1.166488e-13    3.395182e-10   -4.993322e-01
    2.935238e+01    1.574299e+02    9.135885e-08    8.376862e+01    5.094865e-09    1.213422e-13    3.547109e-10   -4.943322e-01
    2.935125e+01    1.574237e+02    1.058004e-07    9.704732e+01    5.092725e-09    1.262404e-13    3.707118e-10   -4.893322e-01
    2.935000e+01    1.574171e+02    1.225241e-07    1.124120e+02    5.091395e-09    1.313532e-13    3.875640e-10   -4.843322e-01
    2.934868e+01    1.574101e+02    1.418903e-07    1.301866e+02    5.090905e-09    1.366908e-13    4.053120e-10   -4.793322e-01
    2.934726e+01    1.574024e+02    1.643164e-07    1.507444e+02    5.091285e-09    1.422641e-13    4.240022e-10   -4.743322e-01
    2.934572e+01    1.573942e+02    1.902857e-07    1.745151e+02    5.092580e-09    1.480843e-13    4.436832e-10   -4.693322e-01
    2.934408e+01    1.573854e+02    2.203574e-07    2.019942e+02    5.094825e-09    1.541632e-13    4.644048e-10   -4.643322e-01
    2.934230e+01    1.573759e+02    2.551794e-07    2.337520e+02    5.098055e-09    1.605133e-13    4.862191e-10   -4.593322e-01
    2.934040e+01    1.573658e+02    2.955014e-07    2.704444e+02    5.102320e-09    1.671475e-13    5.091800e-10   -4.543322e-01
    2.933835e+01    1.573549e+02    3.421916e-07    3.128268e+02    5.107650e-09    1.740795e-13    5.333430e-10   -4.493322e-01
    2.933614e+01    1.573430e+02    3.962546e-07    3.617660e+02    5.114105e-09    1.813235e-13    5.587660e-10   -4.443322e-01
    2.933377e+01    1.573304e+02    4.588539e-07    4.182607e+02    5.121715e-09    1.888944e-13    5.855070e-10   -4.393322e-01
    2.933122e+01    1.573168e+02    5.313360e-07    4.834559e+02    5.130535e-09    1.968079e-13    6.136280e-10   -4.343322e-01
    2.932848e+01    1.573022e+02    6.152595e-07    5.586669e+02    5.140615e-09    2.050802e-13    6.431905e-10   -4.293322e-01
    2.932555e+01    1.572865e+02    7.124280e-07    6.454036e+02    5.152000e-09    2.137285e-13    6.742590e-10   -4.243322e-01
    2.932238e+01    1.572696e+02    8.249300e-07    7.453976e+02    5.164740e-09    2.227706e-13    7.068985e-10   -4.193322e-01
    2.931896e+01    1.572515e+02    9.551825e-07    8.606338e+02    5.178890e-09    2.322253e-13    7.411750e-10   -4.143322e-01
    2.931531e+01    1.572320e+02    1.105981e-06    9.933871e+02    5.194500e-09    2.421120e-13    7.771570e-10   -4.093322e-01
    2.931137e+01    1.572110e+02    1.280562e-06    1.146261e+03    5.211630e-09    2.524510e-13    8.149130e-10   -4.043322e-01
    2.930714e+01    1.571885e+02    1.482672e-06    1.322239e+03    5.230325e-09    2.632636e-13    8.545125e-10   -3.993322e-01
    2.930261e+01    1.571644e+02    1.716643e-06    1.524731e+03    5.250650e-09    2.745720e-13    8.960255e-10   -3.943322e-01
    2.929769e+01    1.571383e+02    1.987488e-06    1.757636e+03    5.272650e-09    2.863993e-13    9.395225e-10   -3.893322e-01
    2.929246e+01    1.571106e+02    2.301007e-06    2.025415e+03    5.296390e-09    2.987696e-13    9.850740e-10   -3.843322e-01
    2.928679e+01    1.570805e+02    2.663910e-06    2.333151e+03    5.321925e-09    3.117079e-13    1.032751e-09   -3.793322e-01
    2.928074e+01    1.570485e+02    3.083959e-06    2.686664e+03    5.349305e-09    3.252404e-13    1.082624e-09   -3.743322e-01
    2.927422e+01    1.570140e+02    3.570129e-06    3.092580e+03    5.378590e-09    3.393942e-13    1.134762e-09   -3.693322e-01
    2.926722e+01    1.569769e+02    4.132802e-06    3.558460e+03    5.409835e-09    3.541976e-13    1.189233e-09   -3.643322e-01
    2.925969e+01    1.569372e+02    4.783981e-06    4.092925e+03    5.443090e-09    3.696800e-13    1.246107e-09   -3.593322e-01
    2.925163e+01    1.568947e+02    5.537545e-06    4.705794e+03    5.478410e-09    3.858718e-13    1.305447e-09   -3.543322e-01
    2.924294e+01    1.568490e+02    6.409545e-06    5.408240e+03    5.515850e-09    4.028048e-13    1.367319e-09   -3.493322e-01
    2.923364e+01    1.567999e+02    7.418520e-06    6.212990e+03    5.555455e-09    4.205119e-13    1.431782e-09   -3.443322e-01
    2.922364e+01    1.567474e+02    8.585915e-06    7.134506e+03    5.597280e-09    4.390270e-13    1.498898e-09   -3.393322e-01
    2.921290e+01    1.566911e+02    9.936500e-06    8.189256e+03    5.641360e-09    4.583856e-13    1.568720e-09   -3.343322e-01
    2.920139e+01    1.566309e+02    1.149890e-05    9.395927e+03    5.687745e-09    4.786243e-13    1.641301e-09   -3.293322e-01
    2.918903e+01    1.565663e+02    1.330617e-05    1.077575e+04    5.736475e-09    4.997809e-13    1.716690e-09   -3.243322e-01
    2.917578e+01    1.564972e+02    1.539650e-05    1.235285e+04    5.787585e-09    5.218945e-13    1.794929e-09   -3.193322e-01
    2.916156e+01    1.564233e+02    1.781398e-05    1.415458e+04    5.841105e-09    5.450060e-13    1.876060e-09   -3.143322e-01
    2.914634e+01    1.563443e+02    2.060954e-05    1.621198e+04    5.897070e-09    5.691570e-13    1.960114e-09   -3.093322e-01
    2.913000e+01    1.562597e+02    2.384192e-05    1.856024e+04    5.955500e-09    5.943910e-13    2.047121e-09   -3.043322e-01
    2.911252e+01    1.561694e+02    2.757892e-05    2.123925e+04    6.016420e-09    6.207520e-13    2.137104e-09   -2.993322e-01
    2.909378e+01    1.560731e+02    3.189879e-05    2.429419e+04    6.079840e-09    6.482870e-13    2.230078e-09   -2.943322e-01
    2.907371e+01    1.559702e+02    3.689173e-05    2.777621e+04    6.145775e-09    6.770430e-13    2.326054e-09   -2.893322e-01
    2.905224e+01    1.558604e+02    4.266176e-05    3.174326e+04    6.214225e-09    7.070695e-13    2.425034e-09   -2.843322e-01
    2.902927e+01    1.557435e+02    4.932876e-05    3.626083e+04    6.285195e-09    7.384160e-13    2.527013e-09   -2.793322e-01
    2.900470e+01    1.556190e+02    5.703090e-05    4.140306e+04    6.358670e-09    7.711350e-13    2.631981e-09   -2.743322e-01
    2.897845e+01    1.554866e+02    6.592725e-05    4.725368e+04    6.434645e-09    8.052800e-13    2.739916e-09   -2.693322e-01
    2.895041e+01    1.553458e+02    7.620100e-05    5.390732e+04    6.513100e-09    8.409055e-13    2.850792e-09   -2.643322e-01
    2.892046e+01    1.551963e+02    8.806300e-05    6.147085e+04    6.594010e-09    8.780685e-13    2.964573e-09   -2.593322e-01
    2.888851e+01    1.550377e+02    1.017558e-04    7.006496e+04    6.677340e-09    9.168270e-13    3.081215e-09   -2.543322e-01
    2.885444e+01    1.548697e+02    1.175582e-04    7.982579e+04    6.763050e-09    9.572400e-13    3.200666e-09   -2.493322e-01
    2.881812e+01    1.546919e+02    1.357909e-04    9.090685e+04    6.851095e-09    9.993695e-13    3.322865e-09   -2.443322e-01
    2.877946e+01    1.545041e+02    1.568220e-04    1.034810e+05    6.941430e-09    1.043278e-12    3.447744e-09   -2.393322e-01
    2.873833e+01    1.543060e+02    1.810742e-04    1.177434e+05    7.033990e-09    1.089029e-12    3.575227e-09   -2.343322e-01
    2.869459e+01    1.540972e+02    2.090326e-04    1.339131e+05    7.128715e-09    1.136690e-12    3.705228e-09   -2.293322e-01
    2.864814e+01    1.538778e+02    2.412535e-04    1.522371e+05    7.225530e-09    1.186328e-12    3.837655e-09   -2.243322e-01
    2.859888e+01    1.536477e+02    2.783744e-04    1.729932e+05    7.324355e-09    1.238012e-12    3.972408e-09   -2.193322e-01
    2.854664e+01    1.534068e+02    3.211255e-04    1.964929e+05    7.425115e-09    1.291815e-12    4.109380e-09   -2.143322e-01
    2.849134e+01    1.531551e+02    3.703425e-04    2.230864e+05    7.527720e-09    1.347807e-12    4.248457e-09   -2.093322e-01
    2.843287e+01    1.528932e+02    4.269813e-04    2.531673e+05    7.632065e-09    1.406064e-12    4.389517e-09   -2.043322e-01
    2.837113e+01    1.526210e+02    4.921343e-04    2.871759e+05    7.738065e-09    1.466663e-12    4.532434e-09   -1.993322e-01
    2.830603e+01    1.523395e+02    5.670490e-04    3.256066e+05    7.845605e-09    1.529681e-12    4.677075e-09   -1.943322e-01
    2.823748e+01    1.520493e+02    6.531495e-04    3.690128e+05    7.954580e-09    1.595199e-12    4.823301e-09   -1.893322e-01
    2.816542e+01    1.517513e+02    7.520590e-04    4.180136e+05    8.064880e-09    1.663297e-12    4.970973e-09   -1.843322e-01
    2.808981e+01    1.514468e+02    8.656270e-04    4.733021e+05    8.176385e-09    1.734062e-12    5.119940e-09   -1.793322e-01
    2.801060e+01    1.511373e+02    9.959600e-04    5.356527e+05    8.288980e-09    1.807576e-12    5.270060e-09   -1.743322e-01
    2.792780e+01    1.508248e+02    1.145452e-03    6.059311e+05    8.402540e-09    1.883929e-12    5.421170e-09   -1.693322e-01
    2.784143e+01    1.505113e+02    1.316825e-03    6.851034e+05    8.516945e-09    1.963210e-12    5.573125e-09   -1.643322e-01
    2.775154e+01    1.501996e+02    1.513171e-03    7.742490e+05    8.632065e-09    2.045512e-12    5.725765e-09   -1.593322e-01
    2.765820e+01    1.498927e+02    1.737997e-03    8.745711e+05    8.747780e-09    2.130927e-12    5.878930e-09   -1.543322e-01
    2.756151e+01    1.495940e+02    1.995279e-03    9.874133e+05    8.863960e-09    2.219553e-12    6.032465e-09   -1.493322e-01
    2.746161e+01    1.493076e+02    2.289522e-03    1.114272e+06    8.980480e-09    2.311487e-12    6.186210e-09   -1.443322e-01
    2.735870e+01    1.490381e+02    2.625825e-03    1.256819e+06    9.097215e-09    2.406831e-12    6.340015e-09   -1.393322e-01
    2.725298e+01    1.487904e+02    3.009956e-03    1.416917e+06    9.214035e-09    2.505687e-12    6.493720e-09   -1.343322e-01
    2.714469e+01    1.485704e+02    3.448435e-03    1.596640e+06    9.330825e-09    2.608161e-12    6.647175e-09   -1.293322e-01
    2.703413e+01    1.483843e+02    3.948629e-03    1.798308e+06    9.447455e-09    2.714361e-12    6.800235e-09   -1.243322e-01
    2.692158e+01    1.482389e+02    4.518854e-03    2.024501e+06    9.563810e-09    2.824397e-12    6.952745e-09   -1.193322e-01
    2.680738e+01    1.481415e+02    5.168495e-03    2.278104e+06    9.679770e-09    2.938385e-12    7.104570e-09   -1.143322e-01
    2.669185e+01    1.481002e+02    5.908135e-03    2.562328e+06    9.795225e-09    3.056438e-12    7.255565e-09   -1.093322e-01
    2.657535e+01    1.481233e+02    6.749700e-03    2.880759e+06    9.910070e-09    3.178678e-12    7.405605e-09   -1.043322e-01
    2.645815e+01    1.482195e+02    7.706640e-03    3.237392e+06    1.002419e-08    3.305225e-12    7.554550e-09   -9.933220e-02
    2.634056e+01    1.483981e+02    8.794085e-03    3.636684e+06    1.013749e-08    3.436205e-12    7.702290e-09   -9.433220e-02
    2.622282e+01    1.486683e+02    1.002907e-02    4.083589e+06    1.024987e-08    3.571746e-12    7.848700e-09   -8.933220e-02
    2.610509e+01    1.490393e+02    1.143076e-02    4.583624e+06    1.036123e-08    3.711981e-12    7.993665e-09   -8.433220e-02
    2.598743e+01    1.495204e+02    1.302068e-02    5.142907e+06    1.047149e-08    3.857044e-12    8.137090e-09   -7.933220e-02
    2.586982e+01    1.501203e+02    1.482303e-02    5.768214e+06    1.058057e-08    4.007074e-12    8.278870e-09   -7.433220e-02
    2.575206e+01    1.508472e+02    1.686494e-02    6.467024e+06    1.068839e-08    4.162214e-12    8.418915e-09   -6.933220e-02
    2.563381e+01    1.517086e+02    1.917681e-02    7.247568e+06    1.079487e-08    4.322610e-12    8.557135e-09   -6.433220e-02
    2.551460e+01    1.527108e+02    2.179266e-02    8.118852e+06    1.089995e-08    4.488414e-12    8.693455e-09   -5.933220e-02
    2.539369e+01    1.538585e+02    2.475048e-02    9.090675e+06    1.100357e-08    4.659777e-12    8.827800e-09   -5.433220e-02
    2.527027e+01    1.551554e+02    2.809260e-02    1.017367e+07    1.110566e-08    4.836862e-12    8.960105e-09   -4.933220e-02
    2.514326e+01    1.566026e+02    3.186606e-02    1.137922e+07    1.120618e-08    5.019830e-12    9.090315e-09   -4.433220e-02
    2.501144e+01    1.581996e+02    3.612303e-02    1.271948e+07    1.130508e-08    5.208850e-12    9.218370e-09   -3.933220e-02
    2.487348e+01    1.599432e+02    4.092110e-02    1.420727e+07    1.140232e-08    5.404095e-12    9.344230e-09   -3.433220e-02
    2.472790e+01    1.618279e+02    4.632365e-02    1.585598e+07    1.149786e-08    5.605740e-12    9.467850e-09   -2.933220e-02
    2.457317e+01    1.638456e+02    5.240015e-02    1.767942e+07    1.159167e-08    5.813975e-12    9.589195e-09   -2.433220e-02
    2.440774e+01    1.659852e+02    5.922635e-02    1.969162e+07    1.168373e-08    6.028980e-12    9.708240e-09   -1.933220e-02
    2.423006e+01    1.682332e+02    6.688445e-02    2.190664e+07    1.177400e-08    6.250960e-12    9.824965e-09   -1.433220e-02
    2.403872e+01    1.705734e+02    7.546315e-02    2.433834e+07    1.186248e-08    6.480105e-12    9.939345e-09   -9.332200e-03
    2.383239e+01    1.729874e+02    8.505760e-02    2.700001e+07    1.194914e-08    6.716630e-12    1.005138e-08   -4.332200e-03
    2.360994e+01    1.754542e+02    9.576925e-02    2.990414e+07    1.203400e-08    6.960740e-12    1.016105e-08    6.678000e-04
    2.337053e+01    1.779516e+02    1.077054e-01    3.306209e+07    1.211702e-08    7.212655e-12    1.026836e-08    5.667800e-03
    2.311348e+01    1.804552e+02    1.209791e-01    3.648372e+07    1.219822e-08    7.472610e-12    1.037331e-08    1.066780e-02
    2.283848e+01    1.829402e+02    1.357079e-01    4.017717e+07    1.227759e-08    7.740830e-12    1.047590e-08    1.566780e-02
    2.254551e+01    1.853810e+02    1.520139e-01    4.414848e+07    1.235514e-08    8.017555e-12    1.057616e-08    2.066780e-02
    2.223480e+01    1.877518e+02    1.700224e-01    4.840137e+07    1.243088e-08    8.303040e-12    1.067408e-08    2.566780e-02
    2.190694e+01    1.900275e+02    1.898608e-01    5.293707e+07    1.250482e-08    8.597535e-12    1.076970e-08    3.066780e-02
    2.156274e+01    1.921839e+02    2.116581e-01    5.775414e+07    1.257697e-08    8.901310e-12    1.086302e-08    3.566780e-02
    2.120329e+01    1.941979e+02    2.355430e-01    6.284842e+07    1.264734e-08    9.214635e-12    1.095408e-08    4.066780e-02
    2.082987e+01    1.960487e+02    2.616432e-01    6.821299e+07    1.271596e-08    9.537795e-12    1.104290e-08    4.566780e-02
    2.044396e+01    1.977173e+02    2.900843e-01    7.383828e+07    1.278285e-08    9.871075e-12    1.112950e-08    5.066780e-02
    2.004711e+01    1.991871e+02    3.209879e-01    7.971209e+07    1.284803e-08    1.021479e-11    1.121393e-08    5.566780e-02
    1.964106e+01    2.004446e+02    3.544712e-01    8.582006e+07    1.291152e-08    1.056923e-11    1.129620e-08    6.066780e-02
    1.922752e+01    2.014787e+02    3.906459e-01    9.214560e+07    1.297335e-08    1.093474e-11    1.137637e-08    6.566780e-02
    1.880823e+01    2.022812e+02    4.296164e-01    9.867037e+07    1.303354e-08    1.131163e-11    1.145446e-08    7.066780e-02
    1.838496e+01    2.028472e+02    4.714802e-01    1.053747e+08    1.309212e-08    1.170026e-11    1.153051e-08    7.566780e-02
    1.795938e+01    2.031740e+02    5.163260e-01    1.122376e+08    1.314913e-08    1.210098e-11    1.160456e-08    8.066780e-02
    1.753311e+01    2.032619e+02    5.642345e-01    1.192378e+08    1.320459e-08    1.251415e-11    1.167666e-08    8.566780e-02
    1.710770e+01    2.031137e+02    6.152760e-01    1.263533e+08    1.325853e-08    1.294017e-11    1.174682e-08    9.066780e-02
    1.668455e+01    2.027341e+02    6.695130e-01    1.335621e+08    1.331099e-08    1.337941e-11    1.181512e-08    9.566780e-02
    1.626499e+01    2.021301e+02    7.269970e-01    1.408430e+08    1.336200e-08    1.383229e-11    1.188158e-08    1.006678e-01
    1.585020e+01    2.013107e+02    7.877715e-01    1.481751e+08    1.341158e-08    1.429923e-11    1.194624e-08    1.056678e-01
    1.544122e+01    2.002855e+02    8.518705e-01    1.555384e+08    1.345977e-08    1.478065e-11    1.200915e-08    1.106678e-01
    1.503901e+01    1.990662e+02    9.193180e-01    1.629141e+08    1.350661e-08    1.527703e-11    1.207035e-08    1.156678e-01
    1.464438e+01    1.976647e+02    9.901310e-01    1.702849e+08    1.355213e-08    1.578880e-11    1.212988e-08    1.206678e-01
    1.425800e+01    1.960942e+02    1.064318e+00    1.776346e+08    1.359636e-08    1.631648e-11    1.218779e-08    1.256678e-01
    1.388045e+01    1.943674e+02    1.141881e+00    1.849487e+08    1.363934e-08    1.686054e-11    1.224411e-08    1.306678e-01
    1.351220e+01    1.924982e+02    1.222813e+00    1.922144e+08    1.368109e-08    1.742152e-11    1.229890e-08    1.356678e-01
    1.315361e+01    1.904998e+02    1.307105e+00    1.994202e+08    1.372165e-08    1.799993e-11    1.235218e-08    1.406678e-01
    1.280495e+01    1.883854e+02    1.394739e+00    2.065567e+08    1.376105e-08    1.859634e-11    1.240401e-08    1.456678e-01
    1.246641e+01    1.861681e+02    1.485693e+00    2.136154e+08    1.379933e-08    1.921132e-11    1.245442e-08    1.506678e-01
    1.213810e+01    1.838601e+02    1.579942e+00    2.205897e+08    1.383652e-08    1.984547e-11    1.250346e-08    1.556678e-01
    1.182007e+01    1.814733e+02    1.677458e+00    2.274744e+08    1.387264e-08    2.049941e-11    1.255116e-08    1.606678e-01
    1.151230e+01    1.790194e+02    1.778208e+00    2.342654e+08    1.390774e-08    2.117377e-11    1.259756e-08    1.656678e-01
    1.121471e+01    1.765088e+02    1.882159e+00    2.409599e+08    1.394183e-08    2.186921e-11    1.264269e-08    1.706678e-01
    1.092722e+01    1.739516e+02    1.989274e+00    2.475563e+08    1.397496e-08    2.258641e-11    1.268661e-08    1.756678e-01
    1.064965e+01    1.713568e+02    2.099518e+00    2.540537e+08    1.400714e-08    2.332609e-11    1.272934e-08    1.806678e-01
    1.038183e+01    1.687331e+02    2.212853e+00    2.604524e+08    1.403842e-08    2.408899e-11    1.277092e-08    1.856678e-01
    1.012354e+01    1.660883e+02    2.329240e+00    2.667532e+08    1.406880e-08    2.487586e-11    1.281139e-08    1.906678e-01
    9.874567e+00    1.634296e+02    2.448641e+00    2.729577e+08    1.409835e-08    2.568751e-11    1.285077e-08    1.956678e-01
    9.634645e+00    1.607632e+02    2.571020e+00    2.790678e+08    1.412706e-08    2.652473e-11    1.288912e-08    2.006678e-01
    9.403519e+00    1.580951e+02    2.696338e+00    2.850861e+08    1.415497e-08    2.738839e-11    1.292645e-08    2.056678e-01
