# sky130 nfet_01v8 gm/ID Processed Lookup Table
# Corner: sf
# Temperature: 0C
# W = 2.0 um
# L = 4.5 um (4500 nm)
# Columns: gm/id [1/V]  gm/gds [V/V]  id/W [A/m]  ft [Hz]  Cgg/W [F/m]  Cgd/W [F/m]  Cgs/W [F/m]  Vov [V]
#         gm/id          gm/gds            id/W              ft           Cgg/W           Cgd/W           Cgs/W             Vov
    2.870116e+01    2.115298e+02    1.973849e-08    9.113285e+00    9.893695e-09    1.936321e-13    4.936939e-10   -5.362807e-01
    2.870045e+01    2.115246e+02    2.278436e-08    1.053531e+01    9.878670e-09    2.011101e-13    5.143740e-10   -5.312807e-01
    2.869969e+01    2.115190e+02    2.630016e-08    1.217776e+01    9.864800e-09    2.089006e-13    5.361395e-10   -5.262807e-01
    2.869888e+01    2.115130e+02    3.035835e-08    1.407450e+01    9.852130e-09    2.170183e-13    5.590510e-10   -5.212807e-01
    2.869800e+01    2.115065e+02    3.504257e-08    1.626453e+01    9.840705e-09    2.254783e-13    5.831700e-10   -5.162807e-01
    2.869704e+01    2.114994e+02    4.044938e-08    1.879276e+01    9.830565e-09    2.342968e-13    6.085615e-10   -5.112807e-01
    2.869602e+01    2.114919e+02    4.669018e-08    2.171089e+01    9.821770e-09    2.434904e-13    6.352955e-10   -5.062807e-01
    2.869492e+01    2.114840e+02    5.389360e-08    2.507842e+01    9.814365e-09    2.530769e-13    6.634440e-10   -5.012807e-01
    2.869376e+01    2.114754e+02    6.220795e-08    2.896376e+01    9.808410e-09    2.630747e-13    6.930825e-10   -4.962807e-01
    2.869249e+01    2.114660e+02    7.180460e-08    3.344561e+01    9.803960e-09    2.735033e-13    7.242885e-10   -4.912807e-01
    2.869114e+01    2.114561e+02    8.288115e-08    3.861446e+01    9.801075e-09    2.843829e-13    7.571440e-10   -4.862807e-01
    2.868968e+01    2.114454e+02    9.566570e-08    4.457426e+01    9.799815e-09    2.957350e-13    7.917330e-10   -4.812807e-01
    2.868811e+01    2.114339e+02    1.104215e-07    5.144440e+01    9.800255e-09    3.075819e-13    8.281445e-10   -4.762807e-01
    2.868644e+01    2.114215e+02    1.274521e-07    5.936205e+01    9.802455e-09    3.199471e-13    8.664690e-10   -4.712807e-01
    2.868463e+01    2.114083e+02    1.471082e-07    6.848460e+01    9.806485e-09    3.328549e-13    9.068015e-10   -4.662807e-01
    2.868270e+01    2.113941e+02    1.697942e-07    7.899261e+01    9.812425e-09    3.463314e-13    9.492395e-10   -4.612807e-01
    2.868062e+01    2.113789e+02    1.959766e-07    9.109319e+01    9.820350e-09    3.604033e-13    9.938845e-10   -4.562807e-01
    2.867838e+01    2.113624e+02    2.261940e-07    1.050237e+02    9.830335e-09    3.750988e-13    1.040840e-09   -4.512807e-01
    2.867600e+01    2.113450e+02    2.610675e-07    1.210563e+02    9.842465e-09    3.904476e-13    1.090213e-09   -4.462807e-01
    2.867342e+01    2.113262e+02    3.013139e-07    1.395025e+02    9.856820e-09    4.064803e-13    1.142115e-09   -4.412807e-01
    2.867066e+01    2.113059e+02    3.477600e-07    1.607188e+02    9.873495e-09    4.232294e-13    1.196659e-09   -4.362807e-01
    2.866770e+01    2.112843e+02    4.013600e-07    1.851134e+02    9.892570e-09    4.407287e-13    1.253959e-09   -4.312807e-01
    2.866452e+01    2.112611e+02    4.632141e-07    2.131529e+02    9.914145e-09    4.590134e-13    1.314135e-09   -4.262807e-01
    2.866109e+01    2.112360e+02    5.345920e-07    2.453709e+02    9.938305e-09    4.781204e-13    1.377306e-09   -4.212807e-01
    2.865744e+01    2.112092e+02    6.169575e-07    2.823768e+02    9.965145e-09    4.980882e-13    1.443596e-09   -4.162807e-01
    2.865352e+01    2.111805e+02    7.119995e-07    3.248665e+02    9.994770e-09    5.189570e-13    1.513128e-09   -4.112807e-01
    2.864929e+01    2.111497e+02    8.216665e-07    3.736344e+02    1.002727e-08    5.407690e-13    1.586028e-09   -4.062807e-01
    2.864477e+01    2.111167e+02    9.482040e-07    4.295867e+02    1.006275e-08    5.635675e-13    1.662424e-09   -4.012807e-01
    2.863991e+01    2.110813e+02    1.094203e-06    4.937560e+02    1.010130e-08    5.873990e-13    1.742442e-09   -3.962807e-01
    2.863469e+01    2.110434e+02    1.262651e-06    5.673200e+02    1.014303e-08    6.123100e-13    1.826211e-09   -3.912807e-01
    2.862910e+01    2.110027e+02    1.456990e-06    6.516194e+02    1.018804e-08    6.383505e-13    1.913860e-09   -3.862807e-01
    2.862311e+01    2.109590e+02    1.681193e-06    7.481799e+02    1.023643e-08    6.655725e-13    2.005515e-09   -3.812807e-01
    2.861669e+01    2.109124e+02    1.939835e-06    8.587388e+02    1.028829e-08    6.940295e-13    2.101303e-09   -3.762807e-01
    2.860976e+01    2.108622e+02    2.238194e-06    9.852688e+02    1.034373e-08    7.237770e-13    2.201349e-09   -3.712807e-01
    2.860238e+01    2.108087e+02    2.582350e-06    1.130017e+03    1.040286e-08    7.548735e-13    2.305776e-09   -3.662807e-01
    2.859444e+01    2.107514e+02    2.979311e-06    1.295530e+03    1.046575e-08    7.873790e-13    2.414704e-09   -3.612807e-01
    2.858594e+01    2.106900e+02    3.437152e-06    1.484704e+03    1.053251e-08    8.213565e-13    2.528249e-09   -3.562807e-01
    2.857683e+01    2.106243e+02    3.965177e-06    1.700823e+03    1.060322e-08    8.568710e-13    2.646524e-09   -3.512807e-01
    2.856706e+01    2.105538e+02    4.574103e-06    1.947612e+03    1.067798e-08    8.939895e-13    2.769639e-09   -3.462807e-01
    2.855659e+01    2.104786e+02    5.276275e-06    2.229298e+03    1.075686e-08    9.327830e-13    2.897697e-09   -3.412807e-01
    2.854538e+01    2.103983e+02    6.085905e-06    2.550666e+03    1.083996e-08    9.733240e-13    3.030793e-09   -3.362807e-01
    2.853337e+01    2.103123e+02    7.019365e-06    2.917135e+03    1.092734e-08    1.015687e-12    3.169020e-09   -3.312807e-01
    2.852052e+01    2.102205e+02    8.095495e-06    3.334848e+03    1.101907e-08    1.059951e-12    3.312459e-09   -3.262807e-01
    2.850676e+01    2.101224e+02    9.335985e-06    3.810749e+03    1.111521e-08    1.106194e-12    3.461187e-09   -3.212807e-01
    2.849204e+01    2.100177e+02    1.076579e-05    4.352694e+03    1.121583e-08    1.154503e-12    3.615269e-09   -3.162807e-01
    2.847627e+01    2.099061e+02    1.241363e-05    4.969568e+03    1.132097e-08    1.204962e-12    3.774763e-09   -3.112807e-01
    2.845942e+01    2.097870e+02    1.431252e-05    5.671410e+03    1.143066e-08    1.257661e-12    3.939717e-09   -3.062807e-01
    2.844141e+01    2.096601e+02    1.650044e-05    6.469559e+03    1.154495e-08    1.312692e-12    4.110167e-09   -3.012807e-01
    2.842214e+01    2.095249e+02    1.902106e-05    7.376819e+03    1.166386e-08    1.370150e-12    4.286136e-09   -2.962807e-01
    2.840156e+01    2.093811e+02    2.192454e-05    8.407648e+03    1.178740e-08    1.430132e-12    4.467640e-09   -2.912807e-01
    2.837958e+01    2.092282e+02    2.526854e-05    9.578349e+03    1.191559e-08    1.492741e-12    4.654677e-09   -2.862807e-01
    2.835613e+01    2.090657e+02    2.911926e-05    1.090731e+04    1.204841e-08    1.558080e-12    4.847239e-09   -2.812807e-01
    2.833110e+01    2.088931e+02    3.355274e-05    1.241525e+04    1.218586e-08    1.626257e-12    5.045295e-09   -2.762807e-01
    2.830440e+01    2.087100e+02    3.865623e-05    1.412552e+04    1.232790e-08    1.697383e-12    5.248815e-09   -2.712807e-01
    2.827595e+01    2.085161e+02    4.452985e-05    1.606444e+04    1.247450e-08    1.771571e-12    5.457735e-09   -2.662807e-01
    2.824563e+01    2.083107e+02    5.128840e-05    1.826157e+04    1.262561e-08    1.848940e-12    5.671995e-09   -2.612807e-01
    2.821337e+01    2.080937e+02    5.906345e-05    2.075025e+04    1.278117e-08    1.929611e-12    5.891510e-09   -2.562807e-01
    2.817904e+01    2.078645e+02    6.800590e-05    2.356792e+04    1.294112e-08    2.013706e-12    6.116185e-09   -2.512807e-01
    2.814255e+01    2.076229e+02    7.828840e-05    2.675667e+04    1.310536e-08    2.101356e-12    6.345915e-09   -2.462807e-01
    2.810378e+01    2.073685e+02    9.010865e-05    3.036378e+04    1.327381e-08    2.192690e-12    6.580565e-09   -2.412807e-01
    2.806265e+01    2.071014e+02    1.036929e-04    3.444236e+04    1.344636e-08    2.287844e-12    6.820000e-09   -2.362807e-01
    2.801903e+01    2.068211e+02    1.192997e-04    3.905197e+04    1.362290e-08    2.386957e-12    7.064065e-09   -2.312807e-01
    2.797282e+01    2.065277e+02    1.372247e-04    4.425945e+04    1.380329e-08    2.490172e-12    7.312600e-09   -2.262807e-01
    2.792392e+01    2.062214e+02    1.578054e-04    5.013968e+04    1.398739e-08    2.597635e-12    7.565415e-09   -2.212807e-01
    2.787224e+01    2.059023e+02    1.814271e-04    5.677657e+04    1.417507e-08    2.709495e-12    7.822325e-09   -2.162807e-01
    2.781767e+01    2.055707e+02    2.085294e-04    6.426398e+04    1.436615e-08    2.825910e-12    8.083120e-09   -2.112807e-01
    2.776015e+01    2.052275e+02    2.396131e-04    7.270712e+04    1.456048e-08    2.947035e-12    8.347590e-09   -2.062807e-01
    2.769956e+01    2.048732e+02    2.752490e-04    8.222335e+04    1.475787e-08    3.073034e-12    8.615495e-09   -2.012807e-01
    2.763587e+01    2.045090e+02    3.160865e-04    9.294408e+04    1.495814e-08    3.204075e-12    8.886610e-09   -1.962807e-01
    2.756901e+01    2.041362e+02    3.628645e-04    1.050160e+05    1.516108e-08    3.340328e-12    9.160685e-09   -1.912807e-01
    2.749894e+01    2.037564e+02    4.164227e-04    1.186028e+05    1.536652e-08    3.481970e-12    9.437460e-09   -1.862807e-01
    2.742564e+01    2.033718e+02    4.777146e-04    1.338871e+05    1.557424e-08    3.629180e-12    9.716680e-09   -1.812807e-01
    2.734914e+01    2.029849e+02    5.478225e-04    1.510728e+05    1.578401e-08    3.782145e-12    9.998075e-09   -1.762807e-01
    2.726940e+01    2.025984e+02    6.279745e-04    1.703868e+05    1.599564e-08    3.941053e-12    1.028137e-08   -1.712807e-01
    2.718651e+01    2.022158e+02    7.195605e-04    1.920823e+05    1.620890e-08    4.106101e-12    1.056628e-08   -1.662807e-01
    2.710055e+01    2.018412e+02    8.241555e-04    2.164412e+05    1.642356e-08    4.277487e-12    1.085255e-08   -1.612807e-01
    2.701159e+01    2.014790e+02    9.435420e-04    2.437774e+05    1.663941e-08    4.455418e-12    1.113987e-08   -1.562807e-01
    2.691978e+01    2.011344e+02    1.079734e-03    2.744408e+05    1.685621e-08    4.640105e-12    1.142798e-08   -1.512807e-01
    2.682529e+01    2.008134e+02    1.235010e-03    3.088209e+05    1.707373e-08    4.831762e-12    1.171658e-08   -1.462807e-01
    2.672833e+01    2.005225e+02    1.411939e-03    3.473511e+05    1.729176e-08    5.030615e-12    1.200539e-08   -1.412807e-01
    2.662910e+01    2.002692e+02    1.613424e-03    3.905147e+05    1.751006e-08    5.236885e-12    1.229414e-08   -1.362807e-01
    2.652788e+01    2.000615e+02    1.842736e-03    4.388498e+05    1.772841e-08    5.450815e-12    1.258255e-08   -1.312807e-01
    2.642495e+01    1.999083e+02    2.103567e-03    4.929562e+05    1.794661e-08    5.672640e-12    1.287036e-08   -1.262807e-01
    2.632061e+01    1.998192e+02    2.400072e-03    5.535017e+05    1.816441e-08    5.902610e-12    1.315728e-08   -1.212807e-01
    2.621517e+01    1.998047e+02    2.736935e-03    6.212312e+05    1.838163e-08    6.140975e-12    1.344307e-08   -1.162807e-01
    2.610897e+01    1.998759e+02    3.119426e-03    6.969753e+05    1.859804e-08    6.388000e-12    1.372749e-08   -1.112807e-01
    2.600231e+01    2.000445e+02    3.553481e-03    7.816590e+05    1.881346e-08    6.643950e-12    1.401026e-08   -1.062807e-01
    2.589548e+01    2.003227e+02    4.045771e-03    8.763133e+05    1.902768e-08    6.909100e-12    1.429118e-08   -1.012807e-01
    2.578874e+01    2.007232e+02    4.603801e-03    9.820870e+05    1.924053e-08    7.183735e-12    1.456999e-08   -9.628070e-02
    2.568228e+01    2.012587e+02    5.236010e-03    1.100257e+06    1.945181e-08    7.468150e-12    1.484650e-08   -9.128070e-02
    2.557623e+01    2.019421e+02    5.951875e-03    1.232244e+06    1.966136e-08    7.762640e-12    1.512049e-08   -8.628070e-02
    2.547061e+01    2.027864e+02    6.762030e-03    1.379622e+06    1.986902e-08    8.067515e-12    1.539178e-08   -8.128070e-02
    2.536534e+01    2.038037e+02    7.678410e-03    1.544133e+06    2.007463e-08    8.383090e-12    1.566017e-08   -7.628070e-02
    2.526019e+01    2.050057e+02    8.714395e-03    1.727699e+06    2.027804e-08    8.709700e-12    1.592548e-08   -7.128070e-02
    2.515479e+01    2.064027e+02    9.884955e-03    1.932432e+06    2.047912e-08    9.047670e-12    1.618756e-08   -6.628070e-02
    2.504859e+01    2.080040e+02    1.120683e-02    2.160643e+06    2.067774e-08    9.397360e-12    1.644626e-08   -6.128070e-02
    2.494089e+01    2.098171e+02    1.269868e-02    2.414847e+06    2.087377e-08    9.759120e-12    1.670144e-08   -5.628070e-02
    2.483083e+01    2.118475e+02    1.438129e-02    2.697765e+06    2.106712e-08    1.013332e-11    1.695296e-08   -5.128070e-02
    2.471735e+01    2.140980e+02    1.627776e-02    3.012319e+06    2.125768e-08    1.052033e-11    1.720072e-08   -4.628070e-02
    2.459923e+01    2.165692e+02    1.841368e-02    3.361623e+06    2.144535e-08    1.092056e-11    1.744461e-08   -4.128070e-02
    2.447517e+01    2.192584e+02    2.081726e-02    3.748968e+06    2.163006e-08    1.133440e-11    1.768453e-08   -3.628070e-02
    2.434372e+01    2.221597e+02    2.351958e-02    4.177789e+06    2.181173e-08    1.176227e-11    1.792041e-08   -3.128070e-02
    2.420339e+01    2.252639e+02    2.655465e-02    4.651637e+06    2.199030e-08    1.220461e-11    1.815217e-08   -2.628070e-02
    2.405269e+01    2.285586e+02    2.995959e-02    5.174141e+06    2.216571e-08    1.266185e-11    1.837976e-08   -2.128070e-02
    2.389013e+01    2.320273e+02    3.377470e-02    5.748939e+06    2.233791e-08    1.313445e-11    1.860312e-08   -1.628070e-02
    2.371433e+01    2.356508e+02    3.804345e-02    6.379639e+06    2.250686e-08    1.362289e-11    1.882221e-08   -1.128070e-02
    2.352401e+01    2.394060e+02    4.281254e-02    7.069724e+06    2.267253e-08    1.412764e-11    1.903701e-08   -6.280700e-03
    2.331808e+01    2.432672e+02    4.813180e-02    7.822505e+06    2.283490e-08    1.464924e-11    1.924748e-08   -1.280700e-03
    2.309567e+01    2.472059e+02    5.405405e-02    8.641027e+06    2.299395e-08    1.518818e-11    1.945363e-08    3.719300e-03
    2.285615e+01    2.511915e+02    6.063495e-02    9.527995e+06    2.314967e-08    1.574500e-11    1.965544e-08    8.719300e-03
    2.259917e+01    2.551917e+02    6.793265e-02    1.048569e+07    2.330205e-08    1.632027e-11    1.985292e-08    1.371930e-02
    2.232462e+01    2.591725e+02    7.600760e-02    1.151591e+07    2.345109e-08    1.691457e-11    2.004608e-08    1.871930e-02
    2.203272e+01    2.631002e+02    8.492210e-02    1.261989e+07    2.359682e-08    1.752849e-11    2.023494e-08    2.371930e-02
    2.172395e+01    2.669401e+02    9.473965e-02    1.379826e+07    2.373922e-08    1.816263e-11    2.041951e-08    2.871930e-02
    2.139903e+01    2.706591e+02    1.055249e-01    1.505099e+07    2.387834e-08    1.881765e-11    2.059984e-08    3.371930e-02
    2.105893e+01    2.742246e+02    1.173426e-01    1.637738e+07    2.401418e-08    1.949419e-11    2.077596e-08    3.871930e-02
    2.070483e+01    2.776061e+02    1.302574e-01    1.777604e+07    2.414678e-08    2.019294e-11    2.094790e-08    4.371930e-02
    2.033805e+01    2.807753e+02    1.443333e-01    1.924491e+07    2.427616e-08    2.091462e-11    2.111573e-08    4.871930e-02
    1.996008e+01    2.837063e+02    1.596326e-01    2.078126e+07    2.440237e-08    2.165994e-11    2.127949e-08    5.371930e-02
    1.957249e+01    2.863767e+02    1.762159e-01    2.238176e+07    2.452544e-08    2.242966e-11    2.143922e-08    5.871930e-02
    1.917689e+01    2.887671e+02    1.941413e-01    2.404252e+07    2.464541e-08    2.322458e-11    2.159500e-08    6.371930e-02
    1.877494e+01    2.908613e+02    2.134639e-01    2.575915e+07    2.476234e-08    2.404549e-11    2.174687e-08    6.871930e-02
    1.836828e+01    2.926471e+02    2.342357e-01    2.752685e+07    2.487627e-08    2.489325e-11    2.189492e-08    7.371930e-02
    1.795854e+01    2.941157e+02    2.565043e-01    2.934052e+07    2.498723e-08    2.576872e-11    2.203919e-08    7.871930e-02
    1.754727e+01    2.952616e+02    2.803140e-01    3.119480e+07    2.509530e-08    2.667280e-11    2.217977e-08    8.371930e-02
    1.713594e+01    2.960826e+02    3.057043e-01    3.308417e+07    2.520051e-08    2.760644e-11    2.231672e-08    8.871930e-02
    1.672596e+01    2.965803e+02    3.327103e-01    3.500311e+07    2.530294e-08    2.857059e-11    2.245011e-08    9.371930e-02
    1.631860e+01    2.967580e+02    3.613627e-01    3.694605e+07    2.540262e-08    2.956627e-11    2.258002e-08    9.871930e-02
    1.591504e+01    2.966225e+02    3.916876e-01    3.890757e+07    2.549962e-08    3.059452e-11    2.270653e-08    1.037193e-01
    1.551635e+01    2.961826e+02    4.237064e-01    4.088241e+07    2.559400e-08    3.165642e-11    2.282971e-08    1.087193e-01
    1.512347e+01    2.954495e+02    4.574363e-01    4.286560e+07    2.568582e-08    3.275308e-11    2.294963e-08    1.137193e-01
    1.473722e+01    2.944350e+02    4.928902e-01    4.485234e+07    2.577512e-08    3.388567e-11    2.306637e-08    1.187193e-01
    1.435833e+01    2.931535e+02    5.300770e-01    4.683830e+07    2.586198e-08    3.505540e-11    2.318001e-08    1.237193e-01
    1.398740e+01    2.916194e+02    5.690015e-01    4.881939e+07    2.594646e-08    3.626352e-11    2.329062e-08    1.287193e-01
    1.362493e+01    2.898485e+02    6.096655e-01    5.079197e+07    2.602861e-08    3.751132e-11    2.339828e-08    1.337193e-01
    1.327134e+01    2.878569e+02    6.520670e-01    5.275280e+07    2.610849e-08    3.880015e-11    2.350307e-08    1.387193e-01
    1.292695e+01    2.856607e+02    6.962015e-01    5.469897e+07    2.618617e-08    4.013140e-11    2.360506e-08    1.437193e-01
    1.259198e+01    2.832763e+02    7.420615e-01    5.662803e+07    2.626169e-08    4.150654e-11    2.370432e-08    1.487193e-01
    1.226660e+01    2.807196e+02    7.896380e-01    5.853786e+07    2.633513e-08    4.292706e-11    2.380093e-08    1.537193e-01
    1.195089e+01    2.780066e+02    8.389190e-01    6.042675e+07    2.640653e-08    4.439452e-11    2.389496e-08    1.587193e-01
    1.164490e+01    2.751524e+02    8.898920e-01    6.229332e+07    2.647595e-08    4.591055e-11    2.398649e-08    1.637193e-01
    1.134860e+01    2.721717e+02    9.425410e-01    6.413648e+07    2.654346e-08    4.747684e-11    2.407558e-08    1.687193e-01
    1.106193e+01    2.690786e+02    9.968515e-01    6.595552e+07    2.660911e-08    4.909512e-11    2.416230e-08    1.737193e-01
    1.078478e+01    2.658865e+02    1.052806e+00    6.774996e+07    2.667294e-08    5.076720e-11    2.424674e-08    1.787193e-01
    1.051700e+01    2.626075e+02    1.110389e+00    6.951948e+07    2.673503e-08    5.249505e-11    2.432893e-08    1.837193e-01
    1.025844e+01    2.592537e+02    1.169580e+00    7.126415e+07    2.679541e-08    5.428050e-11    2.440897e-08    1.887193e-01
    1.000889e+01    2.558358e+02    1.230364e+00    7.298408e+07    2.685415e-08    5.612565e-11    2.448689e-08    1.937193e-01
    9.768144e+00    2.523638e+02    1.292720e+00    7.467963e+07    2.691129e-08    5.803265e-11    2.456280e-08    1.987193e-01
    9.535965e+00    2.488467e+02    1.356632e+00    7.635122e+07    2.696689e-08    6.000365e-11    2.463672e-08    2.037193e-01
    9.312118e+00    2.452937e+02    1.422082e+00    7.799951e+07    2.702099e-08    6.204095e-11    2.470872e-08    2.087193e-01
    9.096351e+00    2.417119e+02    1.489052e+00    7.962518e+07    2.707365e-08    6.414695e-11    2.477888e-08    2.137193e-01
    8.888403e+00    2.381085e+02    1.557526e+00    8.122893e+07    2.712491e-08    6.632405e-11    2.484723e-08    2.187193e-01
