# sky130 pfet_01v8 gm/ID Processed Lookup Table
# Corner: ff
# Temperature: 75C
# W = 2.0 um
# L = 0.72 um (720 nm)
# Columns: gm/id [1/V]  gm/gds [V/V]  id/W [A/m]  ft [Hz]  Cgg/W [F/m]  Cgd/W [F/m]  Cgs/W [F/m]  Vov [V]
#         gm/id          gm/gds            id/W              ft           Cgg/W           Cgd/W           Cgs/W             Vov
    1.459286e+00    1.902210e+00    3.198148e+01    1.577408e+09    4.708853e-09    4.639712e-10    4.271261e-09   -2.678706e+00
    1.473470e+00    1.938483e+00    3.174786e+01    1.583655e+09    4.701269e-09    4.525891e-10    4.273085e-09   -2.673706e+00
    1.487859e+00    1.975961e+00    3.151369e+01    1.589872e+09    4.693740e-09    4.413495e-10    4.274827e-09   -2.668706e+00
    1.502458e+00    2.014701e+00    3.127898e+01    1.596055e+09    4.686269e-09    4.302568e-10    4.276485e-09   -2.663706e+00
    1.517270e+00    2.054764e+00    3.104374e+01    1.602202e+09    4.678859e-09    4.193153e-10    4.278060e-09   -2.658706e+00
    1.532301e+00    2.096216e+00    3.080796e+01    1.608310e+09    4.671512e-09    4.085293e-10    4.279549e-09   -2.653706e+00
    1.547553e+00    2.139126e+00    3.057167e+01    1.614376e+09    4.664231e-09    3.979025e-10    4.280951e-09   -2.648706e+00
    1.563031e+00    2.183565e+00    3.033486e+01    1.620398e+09    4.657019e-09    3.874386e-10    4.282267e-09   -2.643706e+00
    1.578740e+00    2.229614e+00    3.009753e+01    1.626373e+09    4.649876e-09    3.771409e-10    4.283494e-09   -2.638706e+00
    1.594682e+00    2.277353e+00    2.985970e+01    1.632297e+09    4.642807e-09    3.670125e-10    4.284633e-09   -2.633706e+00
    1.610863e+00    2.326872e+00    2.962137e+01    1.638167e+09    4.635811e-09    3.570563e-10    4.285682e-09   -2.628706e+00
    1.627286e+00    2.378262e+00    2.938254e+01    1.643979e+09    4.628892e-09    3.472747e-10    4.286642e-09   -2.623706e+00
    1.643957e+00    2.431624e+00    2.914323e+01    1.649732e+09    4.622051e-09    3.376702e-10    4.287511e-09   -2.618706e+00
    1.660878e+00    2.487064e+00    2.890344e+01    1.655421e+09    4.615290e-09    3.282446e-10    4.288290e-09   -2.613706e+00
    1.678054e+00    2.544694e+00    2.866318e+01    1.661042e+09    4.608609e-09    3.189997e-10    4.288978e-09   -2.608706e+00
    1.695490e+00    2.604633e+00    2.842246e+01    1.666593e+09    4.602009e-09    3.099368e-10    4.289576e-09   -2.603706e+00
    1.713189e+00    2.667010e+00    2.818129e+01    1.672069e+09    4.595493e-09    3.010570e-10    4.290082e-09   -2.598706e+00
    1.731155e+00    2.731961e+00    2.793967e+01    1.677466e+09    4.589059e-09    2.923614e-10    4.290498e-09   -2.593706e+00
    1.749393e+00    2.799630e+00    2.769761e+01    1.682780e+09    4.582710e-09    2.838504e-10    4.290824e-09   -2.588706e+00
    1.767906e+00    2.870173e+00    2.745512e+01    1.688008e+09    4.576445e-09    2.755244e-10    4.291059e-09   -2.583706e+00
    1.786698e+00    2.943753e+00    2.721223e+01    1.693144e+09    4.570265e-09    2.673835e-10    4.291205e-09   -2.578706e+00
    1.805772e+00    3.020546e+00    2.696893e+01    1.698185e+09    4.564171e-09    2.594273e-10    4.291261e-09   -2.573706e+00
    1.825133e+00    3.100739e+00    2.672524e+01    1.703125e+09    4.558161e-09    2.516555e-10    4.291227e-09   -2.568706e+00
    1.844782e+00    3.184531e+00    2.648116e+01    1.707959e+09    4.552236e-09    2.440673e-10    4.291105e-09   -2.563706e+00
    1.864724e+00    3.272132e+00    2.623672e+01    1.712683e+09    4.546395e-09    2.366619e-10    4.290896e-09   -2.558706e+00
    1.884960e+00    3.363771e+00    2.599193e+01    1.717291e+09    4.540638e-09    2.294381e-10    4.290599e-09   -2.553706e+00
    1.905494e+00    3.459686e+00    2.574679e+01    1.721777e+09    4.534964e-09    2.223945e-10    4.290215e-09   -2.548706e+00
    1.926328e+00    3.560133e+00    2.550133e+01    1.726136e+09    4.529373e-09    2.155296e-10    4.289746e-09   -2.543706e+00
    1.947463e+00    3.665381e+00    2.525556e+01    1.730361e+09    4.523863e-09    2.088417e-10    4.289192e-09   -2.538706e+00
    1.968901e+00    3.775721e+00    2.500949e+01    1.734446e+09    4.518434e-09    2.023289e-10    4.288552e-09   -2.533706e+00
    1.990643e+00    3.891457e+00    2.476315e+01    1.738385e+09    4.513084e-09    1.959890e-10    4.287830e-09   -2.528706e+00
    2.012689e+00    4.012911e+00    2.451655e+01    1.742169e+09    4.507812e-09    1.898197e-10    4.287024e-09   -2.523706e+00
    2.035041e+00    4.140428e+00    2.426972e+01    1.745794e+09    4.502618e-09    1.838189e-10    4.286136e-09   -2.518706e+00
    2.057697e+00    4.274367e+00    2.402266e+01    1.749250e+09    4.497498e-09    1.779839e-10    4.285168e-09   -2.513706e+00
    2.080658e+00    4.415111e+00    2.377540e+01    1.752530e+09    4.492452e-09    1.723121e-10    4.284119e-09   -2.508706e+00
    2.103921e+00    4.563058e+00    2.352798e+01    1.755626e+09    4.487477e-09    1.668007e-10    4.282991e-09   -2.503706e+00
    2.127485e+00    4.718631e+00    2.328040e+01    1.758530e+09    4.482573e-09    1.614471e-10    4.281784e-09   -2.498706e+00
    2.151348e+00    4.882271e+00    2.303270e+01    1.761234e+09    4.477738e-09    1.562483e-10    4.280500e-09   -2.493706e+00
    2.175505e+00    5.054435e+00    2.278490e+01    1.763728e+09    4.472969e-09    1.512012e-10    4.279139e-09   -2.488706e+00
    2.199955e+00    5.235608e+00    2.253702e+01    1.766004e+09    4.468264e-09    1.463029e-10    4.277701e-09   -2.483706e+00
    2.224693e+00    5.426282e+00    2.228911e+01    1.768054e+09    4.463622e-09    1.415503e-10    4.276189e-09   -2.478706e+00
    2.249715e+00    5.626974e+00    2.204117e+01    1.769868e+09    4.459041e-09    1.369402e-10    4.274601e-09   -2.473706e+00
    2.275016e+00    5.838209e+00    2.179325e+01    1.771438e+09    4.454518e-09    1.324695e-10    4.272940e-09   -2.468706e+00
    2.300590e+00    6.060532e+00    2.154538e+01    1.772755e+09    4.450050e-09    1.281351e-10    4.271206e-09   -2.463706e+00
    2.326432e+00    6.294491e+00    2.129759e+01    1.773810e+09    4.445637e-09    1.239336e-10    4.269398e-09   -2.458706e+00
    2.352535e+00    6.540647e+00    2.104992e+01    1.774594e+09    4.441276e-09    1.198620e-10    4.267520e-09   -2.453706e+00
    2.378895e+00    6.799568e+00    2.080240e+01    1.775100e+09    4.436964e-09    1.159170e-10    4.265570e-09   -2.448706e+00
    2.405503e+00    7.071805e+00    2.055507e+01    1.775321e+09    4.432698e-09    1.120953e-10    4.263549e-09   -2.443706e+00
    2.432356e+00    7.357930e+00    2.030795e+01    1.775248e+09    4.428478e-09    1.083939e-10    4.261459e-09   -2.438706e+00
    2.459445e+00    7.658477e+00    2.006112e+01    1.774875e+09    4.424300e-09    1.048096e-10    4.259298e-09   -2.433706e+00
    2.486765e+00    7.973992e+00    1.981458e+01    1.774196e+09    4.420162e-09    1.013392e-10    4.257068e-09   -2.428706e+00
    2.514312e+00    8.304986e+00    1.956838e+01    1.773206e+09    4.416062e-09    9.797955e-11    4.254769e-09   -2.423706e+00
    2.542078e+00    8.651954e+00    1.932259e+01    1.771900e+09    4.411996e-09    9.472765e-11    4.252402e-09   -2.418706e+00
    2.570062e+00    9.015346e+00    1.907721e+01    1.770274e+09    4.407964e-09    9.158045e-11    4.249965e-09   -2.413706e+00
    2.598258e+00    9.395586e+00    1.883230e+01    1.768325e+09    4.403963e-09    8.853495e-11    4.247461e-09   -2.408706e+00
    2.626665e+00    9.793075e+00    1.858791e+01    1.766053e+09    4.399989e-09    8.558825e-11    4.244887e-09   -2.403706e+00
    2.655279e+00    1.020814e+01    1.834408e+01    1.763455e+09    4.396040e-09    8.273735e-11    4.242247e-09   -2.398706e+00
    2.684101e+00    1.064106e+01    1.810084e+01    1.760532e+09    4.392115e-09    7.997950e-11    4.239538e-09   -2.393706e+00
    2.713130e+00    1.109208e+01    1.785825e+01    1.757285e+09    4.388209e-09    7.731180e-11    4.236760e-09   -2.388706e+00
    2.742368e+00    1.156139e+01    1.761633e+01    1.753714e+09    4.384323e-09    7.473160e-11    4.233915e-09   -2.383706e+00
    2.771818e+00    1.204910e+01    1.737515e+01    1.749824e+09    4.380453e-09    7.223615e-11    4.231001e-09   -2.378706e+00
    2.801482e+00    1.255527e+01    1.713474e+01    1.745618e+09    4.376595e-09    6.982285e-11    4.228018e-09   -2.373706e+00
    2.831367e+00    1.307992e+01    1.689514e+01    1.741099e+09    4.372748e-09    6.748915e-11    4.224967e-09   -2.368706e+00
    2.861478e+00    1.362300e+01    1.665639e+01    1.736274e+09    4.368910e-09    6.523255e-11    4.221846e-09   -2.363706e+00
    2.891822e+00    1.418440e+01    1.641854e+01    1.731148e+09    4.365078e-09    6.305055e-11    4.218655e-09   -2.358706e+00
    2.922409e+00    1.476397e+01    1.618161e+01    1.725727e+09    4.361249e-09    6.094080e-11    4.215395e-09   -2.353706e+00
    2.953248e+00    1.536151e+01    1.594566e+01    1.720017e+09    4.357422e-09    5.890095e-11    4.212063e-09   -2.348706e+00
    2.984350e+00    1.597677e+01    1.571070e+01    1.714027e+09    4.353593e-09    5.692880e-11    4.208660e-09   -2.343706e+00
    3.015724e+00    1.660948e+01    1.547681e+01    1.707764e+09    4.349760e-09    5.502205e-11    4.205184e-09   -2.338706e+00
    3.047387e+00    1.725934e+01    1.524398e+01    1.701235e+09    4.345920e-09    5.317860e-11    4.201636e-09   -2.333706e+00
    3.079349e+00    1.792600e+01    1.501227e+01    1.694449e+09    4.342073e-09    5.139640e-11    4.198013e-09   -2.328706e+00
    3.111626e+00    1.860912e+01    1.478171e+01    1.687412e+09    4.338213e-09    4.967337e-11    4.194317e-09   -2.323706e+00
    3.144232e+00    1.930835e+01    1.455233e+01    1.680135e+09    4.334341e-09    4.800759e-11    4.190544e-09   -2.318706e+00
    3.177182e+00    2.002331e+01    1.432416e+01    1.672624e+09    4.330452e-09    4.639713e-11    4.186695e-09   -2.313706e+00
    3.210494e+00    2.075366e+01    1.409724e+01    1.664887e+09    4.326545e-09    4.484014e-11    4.182768e-09   -2.308706e+00
    3.244184e+00    2.149902e+01    1.387158e+01    1.656933e+09    4.322615e-09    4.333483e-11    4.178761e-09   -2.303706e+00
    3.278269e+00    2.225907e+01    1.364723e+01    1.648769e+09    4.318663e-09    4.187946e-11    4.174675e-09   -2.298706e+00
    3.312767e+00    2.303348e+01    1.342420e+01    1.640402e+09    4.314685e-09    4.047235e-11    4.170507e-09   -2.293706e+00
    3.347697e+00    2.382195e+01    1.320252e+01    1.631840e+09    4.310678e-09    3.911186e-11    4.166256e-09   -2.288706e+00
    3.383076e+00    2.462421e+01    1.298222e+01    1.623089e+09    4.306640e-09    3.779641e-11    4.161921e-09   -2.283706e+00
    3.418924e+00    2.544001e+01    1.276333e+01    1.614158e+09    4.302567e-09    3.652449e-11    4.157499e-09   -2.278706e+00
    3.455261e+00    2.626913e+01    1.254587e+01    1.605051e+09    4.298459e-09    3.529461e-11    4.152989e-09   -2.273706e+00
    3.492107e+00    2.711139e+01    1.232985e+01    1.595775e+09    4.294311e-09    3.410533e-11    4.148391e-09   -2.268706e+00
    3.529480e+00    2.796665e+01    1.211530e+01    1.586337e+09    4.290122e-09    3.295527e-11    4.143701e-09   -2.263706e+00
    3.567403e+00    2.883480e+01    1.190225e+01    1.576741e+09    4.285888e-09    3.184310e-11    4.138918e-09   -2.258706e+00
    3.605895e+00    2.971576e+01    1.169071e+01    1.566993e+09    4.281608e-09    3.076752e-11    4.134040e-09   -2.253706e+00
    3.644979e+00    3.060949e+01    1.148070e+01    1.557099e+09    4.277277e-09    2.972729e-11    4.129064e-09   -2.248706e+00
    3.684676e+00    3.151599e+01    1.127224e+01    1.547062e+09    4.272894e-09    2.872120e-11    4.123990e-09   -2.243706e+00
    3.725008e+00    3.243531e+01    1.106536e+01    1.536887e+09    4.268456e-09    2.774807e-11    4.118814e-09   -2.238706e+00
    3.765998e+00    3.336750e+01    1.086007e+01    1.526580e+09    4.263960e-09    2.680680e-11    4.113535e-09   -2.233706e+00
    3.807668e+00    3.431266e+01    1.065638e+01    1.516142e+09    4.259404e-09    2.589628e-11    4.108148e-09   -2.228706e+00
    3.850043e+00    3.527094e+01    1.045431e+01    1.505579e+09    4.254784e-09    2.501547e-11    4.102655e-09   -2.223706e+00
    3.893145e+00    3.624250e+01    1.025389e+01    1.494894e+09    4.250097e-09    2.416336e-11    4.097049e-09   -2.218706e+00
    3.937001e+00    3.722757e+01    1.005512e+01    1.484090e+09    4.245340e-09    2.333897e-11    4.091330e-09   -2.213706e+00
    3.981632e+00    3.822632e+01    9.858020e+00    1.473170e+09    4.240511e-09    2.254136e-11    4.085495e-09   -2.208706e+00
    4.027068e+00    3.923907e+01    9.662610e+00    1.462137e+09    4.235607e-09    2.176961e-11    4.079540e-09   -2.203706e+00
    4.073332e+00    4.026606e+01    9.468905e+00    1.450993e+09    4.230624e-09    2.102284e-11    4.073463e-09   -2.198706e+00
    4.120453e+00    4.130766e+01    9.276915e+00    1.439742e+09    4.225559e-09    2.030023e-11    4.067262e-09   -2.193706e+00
    4.168456e+00    4.236415e+01    9.086660e+00    1.428385e+09    4.220409e-09    1.960092e-11    4.060932e-09   -2.188706e+00
    4.217373e+00    4.343591e+01    8.898145e+00    1.416924e+09    4.215171e-09    1.892416e-11    4.054471e-09   -2.183706e+00
    4.267228e+00    4.452336e+01    8.711395e+00    1.405361e+09    4.209842e-09    1.826917e-11    4.047876e-09   -2.178706e+00
    4.318055e+00    4.562686e+01    8.526415e+00    1.393699e+09    4.204418e-09    1.763522e-11    4.041142e-09   -2.173706e+00
    4.369880e+00    4.674684e+01    8.343225e+00    1.381938e+09    4.198896e-09    1.702159e-11    4.034266e-09   -2.168706e+00
    4.422739e+00    4.788381e+01    8.161830e+00    1.370080e+09    4.193272e-09    1.642763e-11    4.027247e-09   -2.163706e+00
    4.476659e+00    4.903816e+01    7.982250e+00    1.358126e+09    4.187544e-09    1.585265e-11    4.020078e-09   -2.158706e+00
    4.531674e+00    5.021043e+01    7.804500e+00    1.346078e+09    4.181708e-09    1.529603e-11    4.012757e-09   -2.153706e+00
    4.587824e+00    5.140111e+01    7.628580e+00    1.333936e+09    4.175759e-09    1.475715e-11    4.005280e-09   -2.148706e+00
    4.645135e+00    5.261069e+01    7.454515e+00    1.321702e+09    4.169695e-09    1.423544e-11    3.997643e-09   -2.143706e+00
    4.703644e+00    5.383976e+01    7.282315e+00    1.309376e+09    4.163511e-09    1.373032e-11    3.989842e-09   -2.138706e+00
    4.763394e+00    5.508879e+01    7.111985e+00    1.296959e+09    4.157204e-09    1.324123e-11    3.981872e-09   -2.133706e+00
    4.824416e+00    5.635848e+01    6.943545e+00    1.284451e+09    4.150771e-09    1.276764e-11    3.973730e-09   -2.128706e+00
    4.886749e+00    5.764928e+01    6.777005e+00    1.271852e+09    4.144206e-09    1.230907e-11    3.965411e-09   -2.123706e+00
    4.950435e+00    5.896183e+01    6.612375e+00    1.259164e+09    4.137507e-09    1.186501e-11    3.956912e-09   -2.118706e+00
    5.015516e+00    6.029670e+01    6.449665e+00    1.246386e+09    4.130669e-09    1.143498e-11    3.948226e-09   -2.113706e+00
    5.082026e+00    6.165460e+01    6.288895e+00    1.233518e+09    4.123688e-09    1.101853e-11    3.939350e-09   -2.108706e+00
    5.150012e+00    6.303605e+01    6.130070e+00    1.220561e+09    4.116561e-09    1.061522e-11    3.930279e-09   -2.103706e+00
    5.219521e+00    6.444172e+01    5.973200e+00    1.207513e+09    4.109283e-09    1.022462e-11    3.921008e-09   -2.098706e+00
    5.290593e+00    6.587226e+01    5.818300e+00    1.194376e+09    4.101848e-09    9.846325e-12    3.911533e-09   -2.093706e+00
    5.363277e+00    6.732831e+01    5.665380e+00    1.181148e+09    4.094255e-09    9.479940e-12    3.901847e-09   -2.088706e+00
    5.437613e+00    6.881051e+01    5.514455e+00    1.167830e+09    4.086499e-09    9.125085e-12    3.891947e-09   -2.083706e+00
    5.513656e+00    7.031953e+01    5.365530e+00    1.154421e+09    4.078574e-09    8.781395e-12    3.881827e-09   -2.078706e+00
    5.591451e+00    7.185604e+01    5.218620e+00    1.140920e+09    4.070476e-09    8.448510e-12    3.871482e-09   -2.073706e+00
    5.671049e+00    7.342067e+01    5.073735e+00    1.127327e+09    4.062201e-09    8.126090e-12    3.860906e-09   -2.068706e+00
    5.752495e+00    7.501408e+01    4.930890e+00    1.113641e+09    4.053744e-09    7.813810e-12    3.850094e-09   -2.063706e+00
    5.835846e+00    7.663692e+01    4.790090e+00    1.099862e+09    4.045101e-09    7.511345e-12    3.839040e-09   -2.058706e+00
    5.921150e+00    7.828984e+01    4.651351e+00    1.085989e+09    4.036268e-09    7.218395e-12    3.827740e-09   -2.053706e+00
    6.008461e+00    7.997349e+01    4.514681e+00    1.072021e+09    4.027239e-09    6.934665e-12    3.816187e-09   -2.048706e+00
    6.097832e+00    8.168846e+01    4.380091e+00    1.057957e+09    4.018009e-09    6.659865e-12    3.804376e-09   -2.043706e+00
    6.189314e+00    8.343538e+01    4.247594e+00    1.043796e+09    4.008575e-09    6.393720e-12    3.792300e-09   -2.038706e+00
    6.282963e+00    8.521481e+01    4.117199e+00    1.029538e+09    3.998931e-09    6.135970e-12    3.779956e-09   -2.033706e+00
    6.378830e+00    8.702733e+01    3.988916e+00    1.015182e+09    3.989073e-09    5.886360e-12    3.767334e-09   -2.028706e+00
    6.476970e+00    8.887344e+01    3.862756e+00    1.000727e+09    3.978995e-09    5.644635e-12    3.754432e-09   -2.023706e+00
    6.577434e+00    9.075370e+01    3.738730e+00    9.861730e+08    3.968694e-09    5.410565e-12    3.741242e-09   -2.018706e+00
    6.680275e+00    9.266851e+01    3.616847e+00    9.715180e+08    3.958163e-09    5.183915e-12    3.727759e-09   -2.013706e+00
    6.785546e+00    9.461832e+01    3.497117e+00    9.567623e+08    3.947400e-09    4.964465e-12    3.713975e-09   -2.008706e+00
    6.893296e+00    9.660347e+01    3.379551e+00    9.419051e+08    3.936397e-09    4.752002e-12    3.699887e-09   -2.003706e+00
    7.003573e+00    9.862431e+01    3.264158e+00    9.269463e+08    3.925151e-09    4.546318e-12    3.685488e-09   -1.998706e+00
    7.116425e+00    1.006810e+02    3.150946e+00    9.118852e+08    3.913658e-09    4.347214e-12    3.670770e-09   -1.993706e+00
    7.231895e+00    1.027738e+02    3.039926e+00    8.967219e+08    3.901912e-09    4.154498e-12    3.655729e-09   -1.988706e+00
    7.350027e+00    1.049028e+02    2.931105e+00    8.814568e+08    3.889908e-09    3.967984e-12    3.640360e-09   -1.983706e+00
    7.470858e+00    1.070679e+02    2.824492e+00    8.660901e+08    3.877643e-09    3.787491e-12    3.624655e-09   -1.978706e+00
    7.594421e+00    1.092690e+02    2.720094e+00    8.506223e+08    3.865111e-09    3.612847e-12    3.608609e-09   -1.973706e+00
    7.720752e+00    1.115060e+02    2.617919e+00    8.350546e+08    3.852308e-09    3.443885e-12    3.592216e-09   -1.968706e+00
    7.849870e+00    1.137785e+02    2.517973e+00    8.193880e+08    3.839230e-09    3.280442e-12    3.575472e-09   -1.963706e+00
    7.981796e+00    1.160860e+02    2.420263e+00    8.036241e+08    3.825872e-09    3.122362e-12    3.558368e-09   -1.958706e+00
    8.116543e+00    1.184280e+02    2.324795e+00    7.877653e+08    3.812229e-09    2.969496e-12    3.540902e-09   -1.953706e+00
    8.254120e+00    1.208036e+02    2.231571e+00    7.718140e+08    3.798298e-09    2.821695e-12    3.523067e-09   -1.948706e+00
    8.394519e+00    1.232120e+02    2.140599e+00    7.557731e+08    3.784076e-09    2.678819e-12    3.504857e-09   -1.943706e+00
    8.537731e+00    1.256520e+02    2.051880e+00    7.396463e+08    3.769558e-09    2.540731e-12    3.486269e-09   -1.938706e+00
    8.683736e+00    1.281223e+02    1.965416e+00    7.234380e+08    3.754740e-09    2.407301e-12    3.467296e-09   -1.933706e+00
    8.832498e+00    1.306215e+02    1.881208e+00    7.071527e+08    3.739618e-09    2.278399e-12    3.447935e-09   -1.928706e+00
    8.983973e+00    1.331477e+02    1.799258e+00    6.907963e+08    3.724191e-09    2.153903e-12    3.428181e-09   -1.923706e+00
