# sky130 pfet_01v8 gm/ID Processed Lookup Table
# Corner: ff
# Temperature: 75C
# W = 2.0 um
# L = 5.4 um (5400 nm)
# Columns: gm/id [1/V]  gm/gds [V/V]  id/W [A/m]  ft [Hz]  Cgg/W [F/m]  Cgd/W [F/m]  Cgs/W [F/m]  Vov [V]
#         gm/id          gm/gds            id/W              ft           Cgg/W           Cgd/W           Cgs/W             Vov
    1.705997e+00    2.850110e+00    4.035668e+00    3.046318e+07    3.596986e-08    5.189745e-09    3.156852e-08   -2.727919e+00
    1.722607e+00    2.921559e+00    4.001225e+00    3.056510e+07    3.589002e-08    5.076510e-09    3.158538e-08   -2.722919e+00
    1.739470e+00    2.996215e+00    3.966744e+00    3.066655e+07    3.581016e-08    4.963745e-09    3.160167e-08   -2.717919e+00
    1.756588e+00    3.074277e+00    3.932225e+00    3.076745e+07    3.573033e-08    4.851515e-09    3.161737e-08   -2.712919e+00
    1.773967e+00    3.155960e+00    3.897671e+00    3.086771e+07    3.565057e-08    4.739890e-09    3.163245e-08   -2.707919e+00
    1.791608e+00    3.241492e+00    3.863082e+00    3.096720e+07    3.557093e-08    4.628937e-09    3.164690e-08   -2.702919e+00
    1.809515e+00    3.331121e+00    3.828460e+00    3.106581e+07    3.549145e-08    4.518725e-09    3.166070e-08   -2.697919e+00
    1.827691e+00    3.425116e+00    3.793806e+00    3.116345e+07    3.541217e-08    4.409323e-09    3.167382e-08   -2.692919e+00
    1.846139e+00    3.523763e+00    3.759122e+00    3.125998e+07    3.533314e-08    4.300797e-09    3.168628e-08   -2.687919e+00
    1.864861e+00    3.627374e+00    3.724408e+00    3.135528e+07    3.525440e-08    4.193218e-09    3.169802e-08   -2.682919e+00
    1.883860e+00    3.736277e+00    3.689667e+00    3.144919e+07    3.517599e-08    4.086649e-09    3.182136e-08   -2.677919e+00
    1.903137e+00    3.850838e+00    3.654900e+00    3.154160e+07    3.509796e-08    3.981157e-09    3.182848e-08   -2.672919e+00
    1.922695e+00    3.971443e+00    3.620110e+00    3.163236e+07    3.502036e-08    3.876805e-09    3.183493e-08   -2.667919e+00
    1.942534e+00    4.098512e+00    3.585297e+00    3.172129e+07    3.494322e-08    3.773657e-09    3.184069e-08   -2.662919e+00
    1.962654e+00    4.232492e+00    3.550465e+00    3.180825e+07    3.486659e-08    3.671772e-09    3.184575e-08   -2.657919e+00
    1.983059e+00    4.373876e+00    3.515615e+00    3.189307e+07    3.479050e-08    3.571208e-09    3.185011e-08   -2.652919e+00
    2.003747e+00    4.523192e+00    3.480749e+00    3.197560e+07    3.471499e-08    3.472022e-09    3.185373e-08   -2.647919e+00
    2.024718e+00    4.681003e+00    3.445870e+00    3.205563e+07    3.464011e-08    3.374267e-09    3.185662e-08   -2.642919e+00
    2.045970e+00    4.847922e+00    3.410980e+00    3.213298e+07    3.456588e-08    3.277994e-09    3.185877e-08   -2.637919e+00
    2.067504e+00    5.024610e+00    3.376084e+00    3.220749e+07    3.449235e-08    3.183252e-09    3.186017e-08   -2.632919e+00
    2.089315e+00    5.211778e+00    3.341181e+00    3.227892e+07    3.441955e-08    3.090084e-09    3.186082e-08   -2.627919e+00
    2.111404e+00    5.410197e+00    3.306277e+00    3.234711e+07    3.434750e-08    2.998533e-09    3.186069e-08   -2.622919e+00
    2.133766e+00    5.620694e+00    3.271373e+00    3.241187e+07    3.427622e-08    2.908637e-09    3.185981e-08   -2.617919e+00
    2.156398e+00    5.844153e+00    3.236474e+00    3.247295e+07    3.420577e-08    2.820431e-09    3.185814e-08   -2.612919e+00
    2.179295e+00    6.081539e+00    3.201583e+00    3.253018e+07    3.413614e-08    2.733945e-09    3.185570e-08   -2.607919e+00
    2.202454e+00    6.333877e+00    3.166704e+00    3.258335e+07    3.406738e-08    2.649210e-09    3.185249e-08   -2.602919e+00
    2.225871e+00    6.602277e+00    3.131839e+00    3.263227e+07    3.399948e-08    2.566247e-09    3.184849e-08   -2.597919e+00
    2.249536e+00    6.887913e+00    3.096994e+00    3.267668e+07    3.393248e-08    2.485079e-09    3.184372e-08   -2.592919e+00
    2.273446e+00    7.192065e+00    3.062172e+00    3.271641e+07    3.386639e-08    2.405720e-09    3.183817e-08   -2.587919e+00
    2.297595e+00    7.516090e+00    3.027379e+00    3.275127e+07    3.380121e-08    2.328186e-09    3.183184e-08   -2.582919e+00
    2.321974e+00    7.861438e+00    2.992617e+00    3.278104e+07    3.373696e-08    2.252485e-09    3.182473e-08   -2.577919e+00
    2.346578e+00    8.229656e+00    2.957893e+00    3.280555e+07    3.367364e-08    2.178624e-09    3.181685e-08   -2.572919e+00
    2.371400e+00    8.622401e+00    2.923210e+00    3.282464e+07    3.361127e-08    2.106605e-09    3.180820e-08   -2.567919e+00
    2.396431e+00    9.041414e+00    2.888573e+00    3.283810e+07    3.354983e-08    2.036427e-09    3.179878e-08   -2.562919e+00
    2.421665e+00    9.488566e+00    2.853988e+00    3.284580e+07    3.348935e-08    1.968087e-09    3.178860e-08   -2.557919e+00
    2.447095e+00    9.965818e+00    2.819461e+00    3.284759e+07    3.342979e-08    1.901577e-09    3.177767e-08   -2.552919e+00
    2.472715e+00    1.047526e+01    2.784996e+00    3.284334e+07    3.337116e-08    1.836887e-09    3.176598e-08   -2.547919e+00
    2.498517e+00    1.101907e+01    2.750598e+00    3.283293e+07    3.331347e-08    1.774003e-09    3.175354e-08   -2.542919e+00
    2.524496e+00    1.159958e+01    2.716273e+00    3.281627e+07    3.325669e-08    1.712910e-09    3.174036e-08   -2.537919e+00
    2.550649e+00    1.221921e+01    2.682028e+00    3.279331e+07    3.320081e-08    1.653591e-09    3.172644e-08   -2.532919e+00
    2.576968e+00    1.288048e+01    2.647866e+00    3.276394e+07    3.314584e-08    1.596024e-09    3.171179e-08   -2.527919e+00
    2.603453e+00    1.358605e+01    2.613795e+00    3.272817e+07    3.309174e-08    1.540186e-09    3.169643e-08   -2.522919e+00
    2.630099e+00    1.433869e+01    2.579819e+00    3.268597e+07    3.303849e-08    1.486052e-09    3.168034e-08   -2.517919e+00
    2.656906e+00    1.514125e+01    2.545945e+00    3.263731e+07    3.298609e-08    1.433596e-09    3.166355e-08   -2.512919e+00
    2.683873e+00    1.599673e+01    2.512177e+00    3.258226e+07    3.293451e-08    1.382788e-09    3.164604e-08   -2.507919e+00
    2.711002e+00    1.690820e+01    2.478523e+00    3.252084e+07    3.288373e-08    1.333600e-09    3.162784e-08   -2.502919e+00
    2.738293e+00    1.787883e+01    2.444987e+00    3.245310e+07    3.283374e-08    1.286001e-09    3.160894e-08   -2.497919e+00
    2.765750e+00    1.891188e+01    2.411574e+00    3.237912e+07    3.278450e-08    1.239956e-09    3.158934e-08   -2.492919e+00
    2.793379e+00    2.001071e+01    2.378290e+00    3.229902e+07    3.273599e-08    1.195433e-09    3.156907e-08   -2.487919e+00
    2.821182e+00    2.117876e+01    2.345141e+00    3.221287e+07    3.268819e-08    1.152399e-09    3.154811e-08   -2.482919e+00
    2.849170e+00    2.241953e+01    2.312131e+00    3.212083e+07    3.264106e-08    1.110818e-09    3.152648e-08   -2.477919e+00
    2.877347e+00    2.373660e+01    2.279266e+00    3.202300e+07    3.259458e-08    1.070653e-09    3.150418e-08   -2.472919e+00
    2.905726e+00    2.513361e+01    2.246551e+00    3.191957e+07    3.254873e-08    1.031871e-09    3.148121e-08   -2.467919e+00
    2.934312e+00    2.661423e+01    2.213989e+00    3.181062e+07    3.250347e-08    9.944340e-10    3.145757e-08   -2.462919e+00
    2.963119e+00    2.818222e+01    2.181587e+00    3.169637e+07    3.245878e-08    9.583055e-10    3.143327e-08   -2.457919e+00
    2.992159e+00    2.984137e+01    2.149347e+00    3.157698e+07    3.241462e-08    9.234505e-10    3.140830e-08   -2.452919e+00
    3.021441e+00    3.159546e+01    2.117276e+00    3.145257e+07    3.237097e-08    8.898310e-10    3.138268e-08   -2.447919e+00
    3.050984e+00    3.344837e+01    2.085376e+00    3.132338e+07    3.232779e-08    8.574120e-10    3.135639e-08   -2.442919e+00
    3.080798e+00    3.540396e+01    2.053653e+00    3.118954e+07    3.228505e-08    8.261575e-10    3.132944e-08   -2.437919e+00
    3.110898e+00    3.746611e+01    2.022109e+00    3.105122e+07    3.224273e-08    7.960315e-10    3.130184e-08   -2.432919e+00
    3.141301e+00    3.963874e+01    1.990749e+00    3.090861e+07    3.220079e-08    7.669990e-10    3.127356e-08   -2.427919e+00
    3.172020e+00    4.192571e+01    1.959575e+00    3.076186e+07    3.215920e-08    7.390250e-10    3.124463e-08   -2.422919e+00
    3.203073e+00    4.433098e+01    1.928592e+00    3.061115e+07    3.211793e-08    7.120755e-10    3.121502e-08   -2.417919e+00
    3.234479e+00    4.685848e+01    1.897802e+00    3.045666e+07    3.207695e-08    6.861165e-10    3.118475e-08   -2.412919e+00
    3.266250e+00    4.951209e+01    1.867209e+00    3.029849e+07    3.203622e-08    6.611160e-10    3.115381e-08   -2.407919e+00
    3.298405e+00    5.229569e+01    1.836815e+00    3.013683e+07    3.199573e-08    6.370405e-10    3.112218e-08   -2.402919e+00
    3.330962e+00    5.521321e+01    1.806623e+00    2.997181e+07    3.195543e-08    6.138585e-10    3.108987e-08   -2.397919e+00
    3.363941e+00    5.826860e+01    1.776638e+00    2.980360e+07    3.191528e-08    5.915400e-10    3.105686e-08   -2.392919e+00
    3.397357e+00    6.146568e+01    1.746860e+00    2.963230e+07    3.187527e-08    5.700535e-10    3.102317e-08   -2.387919e+00
    3.431232e+00    6.480840e+01    1.717291e+00    2.945807e+07    3.183537e-08    5.493700e-10    3.098877e-08   -2.382919e+00
    3.465582e+00    6.830056e+01    1.687936e+00    2.928102e+07    3.179552e-08    5.294610e-10    3.095365e-08   -2.377919e+00
    3.500425e+00    7.194607e+01    1.658796e+00    2.910125e+07    3.175573e-08    5.102980e-10    3.091781e-08   -2.372919e+00
    3.535784e+00    7.574876e+01    1.629872e+00    2.891890e+07    3.171594e-08    4.918548e-10    3.088124e-08   -2.367919e+00
    3.571678e+00    7.971257e+01    1.601168e+00    2.873407e+07    3.167613e-08    4.741043e-10    3.084394e-08   -2.362919e+00
    3.608125e+00    8.384127e+01    1.572684e+00    2.854684e+07    3.163625e-08    4.570211e-10    3.080588e-08   -2.357919e+00
    3.645147e+00    8.813873e+01    1.544424e+00    2.835732e+07    3.159631e-08    4.405806e-10    3.076705e-08   -2.352919e+00
    3.682765e+00    9.260887e+01    1.516388e+00    2.816561e+07    3.155624e-08    4.247585e-10    3.072745e-08   -2.347919e+00
    3.720998e+00    9.725546e+01    1.488579e+00    2.797177e+07    3.151603e-08    4.095318e-10    3.068705e-08   -2.342919e+00
    3.759867e+00    1.020824e+02    1.460999e+00    2.777587e+07    3.147565e-08    3.948779e-10    3.064586e-08   -2.337919e+00
    3.799398e+00    1.070936e+02    1.433648e+00    2.757803e+07    3.143506e-08    3.807752e-10    3.060384e-08   -2.332919e+00
    3.839612e+00    1.122931e+02    1.406529e+00    2.737828e+07    3.139424e-08    3.672026e-10    3.056099e-08   -2.327919e+00
    3.880528e+00    1.176845e+02    1.379644e+00    2.717669e+07    3.135315e-08    3.541399e-10    3.051729e-08   -2.322919e+00
    3.922173e+00    1.232720e+02    1.352993e+00    2.697334e+07    3.131176e-08    3.415675e-10    3.047272e-08   -2.317919e+00
    3.964568e+00    1.290594e+02    1.326577e+00    2.676824e+07    3.127006e-08    3.294667e-10    3.042727e-08   -2.312919e+00
    4.007741e+00    1.350509e+02    1.300399e+00    2.656150e+07    3.122800e-08    3.178192e-10    3.038091e-08   -2.307919e+00
    4.051713e+00    1.412504e+02    1.274461e+00    2.635311e+07    3.118555e-08    3.066075e-10    3.033363e-08   -2.302919e+00
    4.096512e+00    1.476620e+02    1.248762e+00    2.614316e+07    3.114269e-08    2.958147e-10    3.028542e-08   -2.297919e+00
    4.142162e+00    1.542898e+02    1.223306e+00    2.593167e+07    3.109938e-08    2.854247e-10    3.023623e-08   -2.292919e+00
    4.188691e+00    1.611379e+02    1.198092e+00    2.571867e+07    3.105560e-08    2.754217e-10    3.018607e-08   -2.287919e+00
    4.236123e+00    1.682107e+02    1.173122e+00    2.550420e+07    3.101131e-08    2.657908e-10    3.013489e-08   -2.282919e+00
    4.284491e+00    1.755123e+02    1.148397e+00    2.528830e+07    3.096648e-08    2.565174e-10    3.008269e-08   -2.277919e+00
    4.333821e+00    1.830471e+02    1.123919e+00    2.507098e+07    3.092109e-08    2.475876e-10    3.002944e-08   -2.272919e+00
    4.384140e+00    1.908194e+02    1.099689e+00    2.485228e+07    3.087510e-08    2.389882e-10    2.997510e-08   -2.267919e+00
    4.435484e+00    1.988338e+02    1.075708e+00    2.463220e+07    3.082848e-08    2.307062e-10    2.991968e-08   -2.262919e+00
    4.487878e+00    2.070946e+02    1.051976e+00    2.441078e+07    3.078120e-08    2.227291e-10    2.986312e-08   -2.257919e+00
    4.541358e+00    2.156065e+02    1.028496e+00    2.418802e+07    3.073324e-08    2.150453e-10    2.980541e-08   -2.252919e+00
    4.595955e+00    2.243742e+02    1.005269e+00    2.396395e+07    3.068455e-08    2.076433e-10    2.974652e-08   -2.247919e+00
    4.651700e+00    2.334023e+02    9.822955e-01    2.373857e+07    3.063512e-08    2.005121e-10    2.968641e-08   -2.242919e+00
    4.708633e+00    2.426956e+02    9.595760e-01    2.351189e+07    3.058489e-08    1.936411e-10    2.962507e-08   -2.237919e+00
    4.766783e+00    2.522589e+02    9.371130e-01    2.328390e+07    3.053385e-08    1.870203e-10    2.956247e-08   -2.232919e+00
    4.826191e+00    2.620972e+02    9.149065e-01    2.305464e+07    3.048197e-08    1.806400e-10    2.949857e-08   -2.227919e+00
    4.886893e+00    2.722154e+02    8.929580e-01    2.282408e+07    3.042921e-08    1.744908e-10    2.943334e-08   -2.222919e+00
    4.948923e+00    2.826186e+02    8.712690e-01    2.259224e+07    3.037553e-08    1.685640e-10    2.936675e-08   -2.217919e+00
    5.012326e+00    2.933117e+02    8.498400e-01    2.235911e+07    3.032091e-08    1.628507e-10    2.929878e-08   -2.212919e+00
    5.077138e+00    3.043002e+02    8.286725e-01    2.212467e+07    3.026531e-08    1.573428e-10    2.922938e-08   -2.207919e+00
    5.143402e+00    3.155889e+02    8.077675e-01    2.188894e+07    3.020871e-08    1.520324e-10    2.915852e-08   -2.202919e+00
    5.211159e+00    3.271832e+02    7.871260e-01    2.165190e+07    3.015106e-08    1.469120e-10    2.908617e-08   -2.197919e+00
    5.280449e+00    3.390884e+02    7.667495e-01    2.141355e+07    3.009233e-08    1.419741e-10    2.901229e-08   -2.192919e+00
    5.351321e+00    3.513094e+02    7.466385e-01    2.117386e+07    3.003250e-08    1.372119e-10    2.893685e-08   -2.187919e+00
    5.423812e+00    3.638520e+02    7.267950e-01    2.093283e+07    2.997152e-08    1.326186e-10    2.885982e-08   -2.182919e+00
    5.497977e+00    3.767209e+02    7.072190e-01    2.069044e+07    2.990937e-08    1.281878e-10    2.878116e-08   -2.177919e+00
    5.573855e+00    3.899215e+02    6.879125e-01    2.044669e+07    2.984600e-08    1.239133e-10    2.870082e-08   -2.172919e+00
    5.651497e+00    4.034590e+02    6.688760e-01    2.020154e+07    2.978138e-08    1.197893e-10    2.861876e-08   -2.167919e+00
    5.730945e+00    4.173384e+02    6.501115e-01    1.995499e+07    2.971548e-08    1.158099e-10    2.853498e-08   -2.162919e+00
    5.812257e+00    4.315648e+02    6.316190e-01    1.970701e+07    2.964827e-08    1.119697e-10    2.844940e-08   -2.157919e+00
    5.895473e+00    4.461428e+02    6.134005e-01    1.945759e+07    2.957971e-08    1.082635e-10    2.836199e-08   -2.152919e+00
    5.980648e+00    4.610767e+02    5.954565e-01    1.920670e+07    2.950976e-08    1.046863e-10    2.827272e-08   -2.147919e+00
    6.067831e+00    4.763719e+02    5.777885e-01    1.895433e+07    2.943839e-08    1.012332e-10    2.818155e-08   -2.142919e+00
    6.157071e+00    4.920314e+02    5.603975e-01    1.870045e+07    2.936557e-08    9.789960e-11    2.808843e-08   -2.137919e+00
    6.248414e+00    5.080601e+02    5.432850e-01    1.844504e+07    2.929126e-08    9.468105e-11    2.799333e-08   -2.132919e+00
    6.341917e+00    5.244611e+02    5.264515e-01    1.818808e+07    2.921542e-08    9.157330e-11    2.789620e-08   -2.127919e+00
    6.437632e+00    5.412371e+02    5.098980e-01    1.792956e+07    2.913802e-08    8.857220e-11    2.779700e-08   -2.122919e+00
    6.535598e+00    5.583920e+02    4.936264e-01    1.766945e+07    2.905902e-08    8.567390e-11    2.769570e-08   -2.117919e+00
    6.635872e+00    5.759268e+02    4.776371e-01    1.740772e+07    2.897839e-08    8.287450e-11    2.759225e-08   -2.112919e+00
    6.738500e+00    5.938432e+02    4.619313e-01    1.714437e+07    2.889609e-08    8.017045e-11    2.748661e-08   -2.107919e+00
    6.843529e+00    6.121428e+02    4.465102e-01    1.687938e+07    2.881211e-08    7.755825e-11    2.737873e-08   -2.102919e+00
    6.951002e+00    6.308252e+02    4.313746e-01    1.661274e+07    2.872638e-08    7.503455e-11    2.726858e-08   -2.097919e+00
    7.060965e+00    6.498900e+02    4.165256e-01    1.634443e+07    2.863888e-08    7.259615e-11    2.715611e-08   -2.092919e+00
    7.173455e+00    6.693353e+02    4.019642e-01    1.607445e+07    2.854959e-08    7.023995e-11    2.704129e-08   -2.087919e+00
    7.288513e+00    6.891585e+02    3.876912e-01    1.580279e+07    2.845846e-08    6.796295e-11    2.692408e-08   -2.082919e+00
    7.406174e+00    7.093559e+02    3.737075e-01    1.552945e+07    2.836546e-08    6.576230e-11    2.680442e-08   -2.077919e+00
    7.526467e+00    7.299224e+02    3.600140e-01    1.525444e+07    2.827057e-08    6.363530e-11    2.668229e-08   -2.072919e+00
    7.649421e+00    7.508515e+02    3.466115e-01    1.497777e+07    2.817374e-08    6.157930e-11    2.655765e-08   -2.067919e+00
    7.775056e+00    7.721350e+02    3.335005e-01    1.469945e+07    2.807496e-08    5.959175e-11    2.643045e-08   -2.062919e+00
    7.903387e+00    7.937636e+02    3.206818e-01    1.441950e+07    2.797419e-08    5.767025e-11    2.630066e-08   -2.057919e+00
    8.034427e+00    8.157259e+02    3.081560e-01    1.413797e+07    2.787139e-08    5.581245e-11    2.616825e-08   -2.052919e+00
    8.168179e+00    8.380086e+02    2.959234e-01    1.385488e+07    2.776655e-08    5.401610e-11    2.603316e-08   -2.047919e+00
    8.304636e+00    8.605965e+02    2.839845e-01    1.357029e+07    2.765963e-08    5.227905e-11    2.589539e-08   -2.042919e+00
    8.443785e+00    8.834715e+02    2.723396e-01    1.328424e+07    2.755061e-08    5.059920e-11    2.575488e-08   -2.037919e+00
    8.585604e+00    9.066146e+02    2.609887e-01    1.299682e+07    2.743947e-08    4.897452e-11    2.561160e-08   -2.032919e+00
    8.730057e+00    9.300028e+02    2.499321e-01    1.270810e+07    2.732617e-08    4.740314e-11    2.546553e-08   -2.027919e+00
    8.877102e+00    9.536115e+02    2.391695e-01    1.241816e+07    2.721071e-08    4.588321e-11    2.531664e-08   -2.022919e+00
    9.026684e+00    9.774134e+02    2.287007e-01    1.212712e+07    2.709306e-08    4.441292e-11    2.516490e-08   -2.017919e+00
    9.178726e+00    1.001378e+03    2.185253e-01    1.183510e+07    2.697320e-08    4.299057e-11    2.501028e-08   -2.012919e+00
    9.333152e+00    1.025471e+03    2.086426e-01    1.154222e+07    2.685111e-08    4.161451e-11    2.485276e-08   -2.007919e+00
    9.489854e+00    1.049657e+03    1.990520e-01    1.124863e+07    2.672678e-08    4.028316e-11    2.469232e-08   -2.002919e+00
    9.648721e+00    1.073897e+03    1.897525e-01    1.095450e+07    2.660020e-08    3.899498e-11    2.452895e-08   -1.997919e+00
    9.809622e+00    1.098148e+03    1.807429e-01    1.066001e+07    2.647135e-08    3.774851e-11    2.436261e-08   -1.992919e+00
    9.972399e+00    1.122364e+03    1.720218e-01    1.036534e+07    2.634024e-08    3.654233e-11    2.419331e-08   -1.987919e+00
    1.013689e+01    1.146498e+03    1.635876e-01    1.007072e+07    2.620684e-08    3.537507e-11    2.402103e-08   -1.982919e+00
    1.030290e+01    1.170497e+03    1.554385e-01    9.776375e+06    2.607116e-08    3.424543e-11    2.384575e-08   -1.977919e+00
    1.047023e+01    1.194308e+03    1.475722e-01    9.482547e+06    2.593319e-08    3.315214e-11    2.366749e-08   -1.972919e+00
