# sky130 pfet_01v8 gm/ID Processed Lookup Table
# Corner: ff
# Temperature: 75C
# W = 2.0 um
# L = 3.6 um (3600 nm)
# Columns: gm/id [1/V]  gm/gds [V/V]  id/W [A/m]  ft [Hz]  Cgg/W [F/m]  Cgd/W [F/m]  Cgs/W [F/m]  Vov [V]
#         gm/id          gm/gds            id/W              ft           Cgg/W           Cgd/W           Cgs/W             Vov
    1.683013e+00    2.717919e+00    6.090335e+00    6.807041e+07    2.396572e-08    3.300352e-09    2.106653e-08   -2.722525e+00
    1.699237e+00    2.782969e+00    6.039055e+00    6.829370e+07    2.391456e-08    3.226969e-09    2.107807e-08   -2.717525e+00
    1.715707e+00    2.850809e+00    5.987715e+00    6.851588e+07    2.386345e-08    3.153976e-09    2.108921e-08   -2.712525e+00
    1.732428e+00    2.921608e+00    5.936320e+00    6.873680e+07    2.381241e-08    3.081415e-09    2.109993e-08   -2.707525e+00
    1.749400e+00    2.995541e+00    5.884875e+00    6.895618e+07    2.376147e-08    3.009331e-09    2.111024e-08   -2.702525e+00
    1.766630e+00    3.072800e+00    5.833375e+00    6.917384e+07    2.371067e-08    2.937767e-09    2.112010e-08   -2.697525e+00
    1.784122e+00    3.153589e+00    5.781820e+00    6.938956e+07    2.366002e-08    2.866765e-09    2.112952e-08   -2.692525e+00
    1.801876e+00    3.238129e+00    5.730220e+00    6.960311e+07    2.360955e-08    2.796367e-09    2.113848e-08   -2.687525e+00
    1.819897e+00    3.326653e+00    5.678570e+00    6.981421e+07    2.355929e-08    2.726617e-09    2.122799e-08   -2.682525e+00
    1.838188e+00    3.419414e+00    5.626875e+00    7.002258e+07    2.350928e-08    2.657554e-09    2.123376e-08   -2.677525e+00
    1.856750e+00    3.516684e+00    5.575140e+00    7.022796e+07    2.345953e-08    2.589221e-09    2.123908e-08   -2.672525e+00
    1.875588e+00    3.618754e+00    5.523360e+00    7.043010e+07    2.341006e-08    2.521655e-09    2.124397e-08   -2.667525e+00
    1.894701e+00    3.725939e+00    5.471545e+00    7.062863e+07    2.336092e-08    2.454896e-09    2.124839e-08   -2.662525e+00
    1.914094e+00    3.838572e+00    5.419690e+00    7.082329e+07    2.331212e-08    2.388980e-09    2.125234e-08   -2.657525e+00
    1.933765e+00    3.957016e+00    5.367805e+00    7.101371e+07    2.326368e-08    2.323943e-09    2.125583e-08   -2.652525e+00
    1.953718e+00    4.081659e+00    5.315890e+00    7.119958e+07    2.321564e-08    2.259819e-09    2.125884e-08   -2.647525e+00
    1.973952e+00    4.212917e+00    5.263950e+00    7.138056e+07    2.316800e-08    2.196640e-09    2.126136e-08   -2.642525e+00
    1.994469e+00    4.351238e+00    5.211985e+00    7.155626e+07    2.312080e-08    2.134438e-09    2.126339e-08   -2.637525e+00
    2.015267e+00    4.497102e+00    5.160000e+00    7.172633e+07    2.307405e-08    2.073240e-09    2.126492e-08   -2.632525e+00
    2.036347e+00    4.651024e+00    5.108000e+00    7.189035e+07    2.302779e-08    2.013074e-09    2.126594e-08   -2.627525e+00
    2.057708e+00    4.813557e+00    5.055985e+00    7.204798e+07    2.298200e-08    1.953964e-09    2.126646e-08   -2.622525e+00
    2.079348e+00    4.985290e+00    5.003960e+00    7.219875e+07    2.293673e-08    1.895934e-09    2.126648e-08   -2.617525e+00
    2.101263e+00    5.166859e+00    4.951936e+00    7.234228e+07    2.289198e-08    1.839003e-09    2.126599e-08   -2.612525e+00
    2.123453e+00    5.358943e+00    4.899910e+00    7.247815e+07    2.284777e-08    1.783190e-09    2.126498e-08   -2.607525e+00
    2.145914e+00    5.562265e+00    4.847891e+00    7.260593e+07    2.280411e-08    1.728511e-09    2.126346e-08   -2.602525e+00
    2.168642e+00    5.777600e+00    4.795880e+00    7.272521e+07    2.276101e-08    1.674980e-09    2.126142e-08   -2.597525e+00
    2.191634e+00    6.005775e+00    4.743887e+00    7.283553e+07    2.271848e-08    1.622609e-09    2.125887e-08   -2.592525e+00
    2.214885e+00    6.247668e+00    4.691914e+00    7.293649e+07    2.267652e-08    1.571405e-09    2.125581e-08   -2.587525e+00
    2.238389e+00    6.504214e+00    4.639968e+00    7.302763e+07    2.263516e-08    1.521377e-09    2.125223e-08   -2.582525e+00
    2.262141e+00    6.776401e+00    4.588056e+00    7.310852e+07    2.259439e-08    1.472530e-09    2.124814e-08   -2.577525e+00
    2.286136e+00    7.065287e+00    4.536182e+00    7.317878e+07    2.255421e-08    1.424866e-09    2.124354e-08   -2.572525e+00
    2.310366e+00    7.371980e+00    4.484354e+00    7.323796e+07    2.251462e-08    1.378384e-09    2.123843e-08   -2.567525e+00
    2.334827e+00    7.697658e+00    4.432579e+00    7.328573e+07    2.247563e-08    1.333085e-09    2.123282e-08   -2.562525e+00
    2.359510e+00    8.043553e+00    4.380864e+00    7.332166e+07    2.243723e-08    1.288964e-09    2.122671e-08   -2.557525e+00
    2.384411e+00    8.410975e+00    4.329214e+00    7.334546e+07    2.239944e-08    1.246016e-09    2.122009e-08   -2.552525e+00
    2.409520e+00    8.801272e+00    4.277640e+00    7.335672e+07    2.236223e-08    1.204233e-09    2.121298e-08   -2.547525e+00
    2.434834e+00    9.215878e+00    4.226146e+00    7.335521e+07    2.232560e-08    1.163608e-09    2.120538e-08   -2.542525e+00
    2.460346e+00    9.656282e+00    4.174742e+00    7.334064e+07    2.228955e-08    1.124128e-09    2.119729e-08   -2.537525e+00
    2.486049e+00    1.012402e+01    4.123436e+00    7.331278e+07    2.225407e-08    1.085782e-09    2.118872e-08   -2.532525e+00
    2.511940e+00    1.062071e+01    4.072235e+00    7.327142e+07    2.221916e-08    1.048556e-09    2.117966e-08   -2.527525e+00
    2.538012e+00    1.114799e+01    4.021147e+00    7.321640e+07    2.218480e-08    1.012434e-09    2.117013e-08   -2.522525e+00
    2.564264e+00    1.170758e+01    3.970180e+00    7.314763e+07    2.215097e-08    9.774025e-10    2.116013e-08   -2.517525e+00
    2.590690e+00    1.230124e+01    3.919344e+00    7.306497e+07    2.211769e-08    9.434430e-10    2.114966e-08   -2.512525e+00
    2.617290e+00    1.293076e+01    3.868645e+00    7.296843e+07    2.208492e-08    9.105365e-10    2.113873e-08   -2.507525e+00
    2.644061e+00    1.359798e+01    3.818093e+00    7.285801e+07    2.205265e-08    8.786645e-10    2.112734e-08   -2.502525e+00
    2.671003e+00    1.430478e+01    3.767695e+00    7.273370e+07    2.202088e-08    8.478070e-10    2.111549e-08   -2.497525e+00
    2.698119e+00    1.505306e+01    3.717460e+00    7.259565e+07    2.198958e-08    8.179435e-10    2.110319e-08   -2.492525e+00
    2.725408e+00    1.584473e+01    3.667397e+00    7.244393e+07    2.195874e-08    7.890525e-10    2.109043e-08   -2.487525e+00
    2.752876e+00    1.668175e+01    3.617511e+00    7.227878e+07    2.192835e-08    7.611125e-10    2.107725e-08   -2.482525e+00
    2.780524e+00    1.756605e+01    3.567813e+00    7.210027e+07    2.189838e-08    7.341015e-10    2.106360e-08   -2.477525e+00
    2.808360e+00    1.849961e+01    3.518310e+00    7.190871e+07    2.186882e-08    7.079965e-10    2.104953e-08   -2.472525e+00
    2.836389e+00    1.948439e+01    3.469009e+00    7.170435e+07    2.183966e-08    6.827755e-10    2.103502e-08   -2.467525e+00
    2.864618e+00    2.052231e+01    3.419918e+00    7.148740e+07    2.181088e-08    6.584150e-10    2.102007e-08   -2.462525e+00
    2.893058e+00    2.161536e+01    3.371044e+00    7.125823e+07    2.178245e-08    6.348925e-10    2.100469e-08   -2.457525e+00
    2.921715e+00    2.276546e+01    3.322394e+00    7.101711e+07    2.175436e-08    6.121850e-10    2.098888e-08   -2.452525e+00
    2.950601e+00    2.397450e+01    3.273975e+00    7.076436e+07    2.172658e-08    5.902695e-10    2.097264e-08   -2.447525e+00
    2.979727e+00    2.524439e+01    3.225794e+00    7.050034e+07    2.169912e-08    5.691235e-10    2.095597e-08   -2.442525e+00
    3.009106e+00    2.657703e+01    3.177858e+00    7.022544e+07    2.167193e-08    5.487235e-10    2.093886e-08   -2.437525e+00
    3.038748e+00    2.797420e+01    3.130171e+00    6.993992e+07    2.164501e-08    5.290480e-10    2.092133e-08   -2.432525e+00
    3.068668e+00    2.943777e+01    3.082742e+00    6.964422e+07    2.161832e-08    5.100740e-10    2.090337e-08   -2.427525e+00
    3.098882e+00    3.096951e+01    3.035574e+00    6.933870e+07    2.159187e-08    4.917802e-10    2.088498e-08   -2.422525e+00
    3.129401e+00    3.257116e+01    2.988675e+00    6.902366e+07    2.156562e-08    4.741447e-10    2.086616e-08   -2.417525e+00
    3.160241e+00    3.424444e+01    2.942048e+00    6.869946e+07    2.153956e-08    4.571464e-10    2.084691e-08   -2.412525e+00
    3.191418e+00    3.599107e+01    2.895701e+00    6.836647e+07    2.151366e-08    4.407644e-10    2.082723e-08   -2.407525e+00
    3.222948e+00    3.781269e+01    2.849636e+00    6.802502e+07    2.148791e-08    4.249781e-10    2.080710e-08   -2.402525e+00
    3.254849e+00    3.971096e+01    2.803860e+00    6.767547e+07    2.146229e-08    4.097676e-10    2.078654e-08   -2.397525e+00
    3.287137e+00    4.168749e+01    2.758376e+00    6.731813e+07    2.143677e-08    3.951135e-10    2.076553e-08   -2.392525e+00
    3.319827e+00    4.374385e+01    2.713190e+00    6.695328e+07    2.141134e-08    3.809963e-10    2.074407e-08   -2.387525e+00
    3.352939e+00    4.588161e+01    2.668304e+00    6.658124e+07    2.138598e-08    3.673976e-10    2.072216e-08   -2.382525e+00
    3.386488e+00    4.810232e+01    2.623724e+00    6.620227e+07    2.136068e-08    3.542991e-10    2.069980e-08   -2.377525e+00
    3.420494e+00    5.040752e+01    2.579454e+00    6.581668e+07    2.133539e-08    3.416831e-10    2.067697e-08   -2.372525e+00
    3.454976e+00    5.279875e+01    2.535496e+00    6.542472e+07    2.131013e-08    3.295324e-10    2.065367e-08   -2.367525e+00
    3.489952e+00    5.527750e+01    2.491854e+00    6.502666e+07    2.128485e-08    3.178303e-10    2.062991e-08   -2.362525e+00
    3.525441e+00    5.784529e+01    2.448532e+00    6.462271e+07    2.125956e-08    3.065605e-10    2.060566e-08   -2.357525e+00
    3.561464e+00    6.050367e+01    2.405533e+00    6.421315e+07    2.123421e-08    2.957074e-10    2.058093e-08   -2.352525e+00
    3.598039e+00    6.325413e+01    2.362861e+00    6.379814e+07    2.120880e-08    2.852555e-10    2.055570e-08   -2.347525e+00
    3.635185e+00    6.609816e+01    2.320518e+00    6.337790e+07    2.118330e-08    2.751902e-10    2.052996e-08   -2.342525e+00
    3.672926e+00    6.903736e+01    2.278507e+00    6.295265e+07    2.115771e-08    2.654971e-10    2.050372e-08   -2.337525e+00
    3.711278e+00    7.207324e+01    2.236830e+00    6.252251e+07    2.113199e-08    2.561623e-10    2.047696e-08   -2.332525e+00
    3.750268e+00    7.520748e+01    2.195492e+00    6.208774e+07    2.110613e-08    2.471726e-10    2.044967e-08   -2.327525e+00
    3.789912e+00    7.844154e+01    2.154494e+00    6.164841e+07    2.108011e-08    2.385148e-10    2.042183e-08   -2.322525e+00
    3.830235e+00    8.177718e+01    2.113840e+00    6.120473e+07    2.105391e-08    2.301766e-10    2.039345e-08   -2.317525e+00
    3.871262e+00    8.521603e+01    2.073530e+00    6.075684e+07    2.102751e-08    2.221458e-10    2.036451e-08   -2.312525e+00
    3.913012e+00    8.875977e+01    2.033569e+00    6.030485e+07    2.100091e-08    2.144110e-10    2.033500e-08   -2.307525e+00
    3.955511e+00    9.241022e+01    1.993958e+00    5.984889e+07    2.097406e-08    2.069608e-10    2.030490e-08   -2.302525e+00
    3.998783e+00    9.616919e+01    1.954699e+00    5.938910e+07    2.094696e-08    1.997843e-10    2.027420e-08   -2.297525e+00
    4.042851e+00    1.000384e+02    1.915794e+00    5.892555e+07    2.091959e-08    1.928713e-10    2.024290e-08   -2.292525e+00
    4.087740e+00    1.040198e+02    1.877247e+00    5.845832e+07    2.089192e-08    1.862117e-10    2.021098e-08   -2.287525e+00
    4.133481e+00    1.081156e+02    1.839058e+00    5.798757e+07    2.086395e-08    1.797956e-10    2.017842e-08   -2.282525e+00
    4.180094e+00    1.123275e+02    1.801230e+00    5.751331e+07    2.083565e-08    1.736140e-10    2.014521e-08   -2.277525e+00
    4.227608e+00    1.166576e+02    1.763766e+00    5.703566e+07    2.080699e-08    1.676578e-10    2.011134e-08   -2.272525e+00
    4.276054e+00    1.211083e+02    1.726665e+00    5.655468e+07    2.077797e-08    1.619184e-10    2.007678e-08   -2.267525e+00
    4.325458e+00    1.256817e+02    1.689933e+00    5.607043e+07    2.074856e-08    1.563875e-10    2.004154e-08   -2.262525e+00
    4.375850e+00    1.303801e+02    1.653569e+00    5.558296e+07    2.071874e-08    1.510570e-10    2.000558e-08   -2.257525e+00
    4.427262e+00    1.352058e+02    1.617576e+00    5.509232e+07    2.068849e-08    1.459194e-10    1.996889e-08   -2.252525e+00
    4.479720e+00    1.401613e+02    1.581955e+00    5.459854e+07    2.065780e-08    1.409673e-10    1.993146e-08   -2.247525e+00
    4.533261e+00    1.452493e+02    1.546709e+00    5.410170e+07    2.062664e-08    1.361936e-10    1.989326e-08   -2.242525e+00
    4.587914e+00    1.504722e+02    1.511840e+00    5.360181e+07    2.059500e-08    1.315913e-10    1.985429e-08   -2.237525e+00
    4.643716e+00    1.558328e+02    1.477348e+00    5.309890e+07    2.056284e-08    1.271542e-10    1.981452e-08   -2.232525e+00
    4.700697e+00    1.613337e+02    1.443236e+00    5.259293e+07    2.053016e-08    1.228757e-10    1.977393e-08   -2.227525e+00
    4.758896e+00    1.669781e+02    1.409507e+00    5.208402e+07    2.049694e-08    1.187499e-10    1.973249e-08   -2.222525e+00
    4.818350e+00    1.727688e+02    1.376160e+00    5.157215e+07    2.046313e-08    1.147711e-10    1.969021e-08   -2.217525e+00
    4.879093e+00    1.787087e+02    1.343198e+00    5.105727e+07    2.042875e-08    1.109335e-10    1.964704e-08   -2.212525e+00
    4.941164e+00    1.848012e+02    1.310625e+00    5.053944e+07    2.039376e-08    1.072317e-10    1.960298e-08   -2.207525e+00
    5.004599e+00    1.910492e+02    1.278439e+00    5.001862e+07    2.035813e-08    1.036608e-10    1.955799e-08   -2.202525e+00
    5.069444e+00    1.974563e+02    1.246644e+00    4.949484e+07    2.032185e-08    1.002157e-10    1.951206e-08   -2.197525e+00
    5.135738e+00    2.040257e+02    1.215242e+00    4.896808e+07    2.028489e-08    9.689165e-11    1.946517e-08   -2.192525e+00
    5.203522e+00    2.107609e+02    1.184234e+00    4.843830e+07    2.024725e-08    9.368415e-11    1.941729e-08   -2.187525e+00
    5.272839e+00    2.176654e+02    1.153621e+00    4.790550e+07    2.020888e-08    9.058875e-11    1.936841e-08   -2.182525e+00
    5.343729e+00    2.247428e+02    1.123406e+00    4.736965e+07    2.016977e-08    8.760135e-11    1.931848e-08   -2.177525e+00
    5.416246e+00    2.319969e+02    1.093589e+00    4.683075e+07    2.012991e-08    8.471780e-11    1.926750e-08   -2.172525e+00
    5.490429e+00    2.394314e+02    1.064175e+00    4.628875e+07    2.008926e-08    8.193425e-11    1.921544e-08   -2.167525e+00
    5.566322e+00    2.470497e+02    1.035162e+00    4.574358e+07    2.004779e-08    7.924700e-11    1.916227e-08   -2.162525e+00
    5.643982e+00    2.548564e+02    1.006555e+00    4.519531e+07    2.000551e-08    7.665245e-11    1.910797e-08   -2.157525e+00
    5.723445e+00    2.628546e+02    9.783530e-01    4.464379e+07    1.996238e-08    7.414715e-11    1.905251e-08   -2.152525e+00
    5.804766e+00    2.710484e+02    9.505595e-01    4.408902e+07    1.991837e-08    7.172780e-11    1.899587e-08   -2.147525e+00
    5.887994e+00    2.794420e+02    9.231760e-01    4.353100e+07    1.987346e-08    6.939130e-11    1.893802e-08   -2.142525e+00
    5.973180e+00    2.880389e+02    8.962035e-01    4.296964e+07    1.982763e-08    6.713450e-11    1.887894e-08   -2.137525e+00
    6.060373e+00    2.968432e+02    8.696445e-01    4.240491e+07    1.978086e-08    6.495455e-11    1.881859e-08   -2.132525e+00
    6.149623e+00    3.058586e+02    8.435005e-01    4.183678e+07    1.973312e-08    6.284860e-11    1.875695e-08   -2.127525e+00
    6.240980e+00    3.150888e+02    8.177730e-01    4.126517e+07    1.968439e-08    6.081395e-11    1.869400e-08   -2.122525e+00
    6.334496e+00    3.245376e+02    7.924640e-01    4.069007e+07    1.963465e-08    5.884805e-11    1.862971e-08   -2.117525e+00
    6.430221e+00    3.342085e+02    7.675750e-01    4.011142e+07    1.958389e-08    5.694835e-11    1.856404e-08   -2.112525e+00
    6.528202e+00    3.441050e+02    7.431080e-01    3.952918e+07    1.953205e-08    5.511245e-11    1.849697e-08   -2.107525e+00
    6.628496e+00    3.542301e+02    7.190640e-01    3.894332e+07    1.947914e-08    5.333810e-11    1.842848e-08   -2.102525e+00
    6.731145e+00    3.645869e+02    6.954450e-01    3.835378e+07    1.942512e-08    5.162310e-11    1.835853e-08   -2.097525e+00
    6.836196e+00    3.751782e+02    6.722530e-01    3.776055e+07    1.936997e-08    4.996525e-11    1.828711e-08   -2.092525e+00
    6.943697e+00    3.860065e+02    6.494890e-01    3.716359e+07    1.931368e-08    4.836256e-11    1.821418e-08   -2.087525e+00
    7.053688e+00    3.970738e+02    6.271550e-01    3.656289e+07    1.925621e-08    4.681304e-11    1.813971e-08   -2.082525e+00
    7.166218e+00    4.083821e+02    6.052520e-01    3.595842e+07    1.919755e-08    4.531482e-11    1.806367e-08   -2.077525e+00
    7.281316e+00    4.199324e+02    5.837820e-01    3.535018e+07    1.913767e-08    4.386609e-11    1.798605e-08   -2.072525e+00
    7.399029e+00    4.317255e+02    5.627455e-01    3.473817e+07    1.907656e-08    4.246508e-11    1.790681e-08   -2.067525e+00
    7.519380e+00    4.437617e+02    5.421445e-01    3.412241e+07    1.901418e-08    4.111012e-11    1.782591e-08   -2.062525e+00
    7.642399e+00    4.560407e+02    5.219800e-01    3.350291e+07    1.895052e-08    3.979960e-11    1.774336e-08   -2.057525e+00
    7.768112e+00    4.685610e+02    5.022530e-01    3.287973e+07    1.888556e-08    3.853198e-11    1.765911e-08   -2.052525e+00
    7.896529e+00    4.813208e+02    4.829648e-01    3.225290e+07    1.881929e-08    3.730574e-11    1.757313e-08   -2.047525e+00
    8.027669e+00    4.943171e+02    4.641159e-01    3.162250e+07    1.875167e-08    3.611944e-11    1.748541e-08   -2.042525e+00
    8.161531e+00    5.075465e+02    4.457074e-01    3.098862e+07    1.868269e-08    3.497173e-11    1.739592e-08   -2.037525e+00
    8.298115e+00    5.210038e+02    4.277396e-01    3.035137e+07    1.861233e-08    3.386126e-11    1.730463e-08   -2.032525e+00
    8.437407e+00    5.346832e+02    4.102132e-01    2.971087e+07    1.854059e-08    3.278674e-11    1.721152e-08   -2.027525e+00
    8.579387e+00    5.485775e+02    3.931283e-01    2.906728e+07    1.846742e-08    3.174696e-11    1.711658e-08   -2.022525e+00
    8.724021e+00    5.626781e+02    3.764851e-01    2.842077e+07    1.839284e-08    3.074071e-11    1.701978e-08   -2.017525e+00
    8.871267e+00    5.769748e+02    3.602836e-01    2.777157e+07    1.831681e-08    2.976686e-11    1.692111e-08   -2.012525e+00
    9.021069e+00    5.914561e+02    3.445233e-01    2.711989e+07    1.823933e-08    2.882432e-11    1.682053e-08   -2.007525e+00
    9.173361e+00    6.061096e+02    3.292037e-01    2.646600e+07    1.816038e-08    2.791200e-11    1.671804e-08   -2.002525e+00
    9.328055e+00    6.209196e+02    3.143240e-01    2.581020e+07    1.807995e-08    2.702891e-11    1.661362e-08   -1.997525e+00
    9.485059e+00    6.358700e+02    2.998830e-01    2.515283e+07    1.799804e-08    2.617405e-11    1.650725e-08   -1.992525e+00
    9.644256e+00    6.509422e+02    2.858793e-01    2.449424e+07    1.791462e-08    2.534649e-11    1.639893e-08   -1.987525e+00
    9.805515e+00    6.661158e+02    2.723114e-01    2.383484e+07    1.782970e-08    2.454531e-11    1.628864e-08   -1.982525e+00
    9.968689e+00    6.813686e+02    2.591771e-01    2.317507e+07    1.774327e-08    2.376962e-11    1.617637e-08   -1.977525e+00
    1.013361e+01    6.966761e+02    2.464740e-01    2.251540e+07    1.765532e-08    2.301858e-11    1.606211e-08   -1.972525e+00
    1.030009e+01    7.120122e+02    2.341994e-01    2.185634e+07    1.756586e-08    2.229138e-11    1.594586e-08   -1.967525e+00
