# sky130 pfet_01v8 gm/ID Processed Lookup Table
# Corner: ff
# Temperature: 75C
# W = 2.0 um
# L = 3.42 um (3420 nm)
# Columns: gm/id [1/V]  gm/gds [V/V]  id/W [A/m]  ft [Hz]  Cgg/W [F/m]  Cgd/W [F/m]  Cgs/W [F/m]  Vov [V]
#         gm/id          gm/gds            id/W              ft           Cgg/W           Cgd/W           Cgs/W             Vov
    1.677206e+00    2.688715e+00    6.404450e+00    7.507653e+07    2.277111e-08    3.135387e-09    1.999772e-08   -2.721766e+00
    1.693371e+00    2.752531e+00    6.350710e+00    7.532442e+07    2.272263e-08    3.065751e-09    2.000873e-08   -2.716766e+00
    1.709781e+00    2.819066e+00    6.296910e+00    7.557119e+07    2.267420e-08    2.996483e-09    2.001937e-08   -2.711766e+00
    1.726441e+00    2.888477e+00    6.243050e+00    7.581658e+07    2.262584e-08    2.927627e-09    2.002961e-08   -2.706766e+00
    1.743355e+00    2.960937e+00    6.189125e+00    7.606032e+07    2.257757e-08    2.859221e-09    2.003945e-08   -2.701766e+00
    1.760525e+00    3.036631e+00    6.135150e+00    7.630226e+07    2.252942e-08    2.791307e-09    2.004888e-08   -2.696766e+00
    1.777955e+00    3.115755e+00    6.081115e+00    7.654207e+07    2.248143e-08    2.723925e-09    2.005789e-08   -2.691766e+00
    1.795648e+00    3.198523e+00    6.027030e+00    7.677955e+07    2.243361e-08    2.657116e-09    2.006646e-08   -2.686766e+00
    1.813606e+00    3.285159e+00    5.972895e+00    7.701436e+07    2.238599e-08    2.590920e-09    2.015180e-08   -2.681766e+00
    1.831836e+00    3.375909e+00    5.918705e+00    7.724626e+07    2.233860e-08    2.525376e-09    2.015733e-08   -2.676766e+00
    1.850334e+00    3.471033e+00    5.864475e+00    7.747493e+07    2.229145e-08    2.460520e-09    2.016245e-08   -2.671766e+00
    1.869110e+00    3.570816e+00    5.810195e+00    7.770009e+07    2.224458e-08    2.396393e-09    2.016714e-08   -2.666766e+00
    1.888161e+00    3.675555e+00    5.755875e+00    7.792136e+07    2.219801e-08    2.333030e-09    2.017140e-08   -2.661766e+00
    1.907492e+00    3.785577e+00    5.701515e+00    7.813846e+07    2.215176e-08    2.270464e-09    2.017522e-08   -2.656766e+00
    1.927102e+00    3.901229e+00    5.647120e+00    7.835095e+07    2.210586e-08    2.208732e-09    2.017859e-08   -2.651766e+00
    1.946994e+00    4.022884e+00    5.592690e+00    7.855855e+07    2.206034e-08    2.147863e-09    2.018150e-08   -2.646766e+00
    1.967169e+00    4.150944e+00    5.538230e+00    7.876083e+07    2.201520e-08    2.087891e-09    2.018396e-08   -2.641766e+00
    1.987626e+00    4.285840e+00    5.483745e+00    7.895740e+07    2.197047e-08    2.028843e-09    2.018595e-08   -2.636766e+00
    2.008368e+00    4.428035e+00    5.429235e+00    7.914788e+07    2.192617e-08    1.970747e-09    2.018747e-08   -2.631766e+00
    2.029389e+00    4.578019e+00    5.374710e+00    7.933180e+07    2.188232e-08    1.913628e-09    2.018851e-08   -2.626766e+00
    2.050696e+00    4.736330e+00    5.320165e+00    7.950880e+07    2.183893e-08    1.857510e-09    2.018908e-08   -2.621766e+00
    2.072281e+00    4.903532e+00    5.265610e+00    7.967835e+07    2.179602e-08    1.802415e-09    2.018916e-08   -2.616766e+00
    2.094146e+00    5.080240e+00    5.211050e+00    7.984009e+07    2.175361e-08    1.748361e-09    2.018876e-08   -2.611766e+00
    2.116288e+00    5.267099e+00    5.156485e+00    7.999347e+07    2.171171e-08    1.695367e-09    2.018787e-08   -2.606766e+00
    2.138703e+00    5.464812e+00    5.101925e+00    8.013810e+07    2.167033e-08    1.643447e-09    2.018650e-08   -2.601766e+00
    2.161388e+00    5.674118e+00    5.047370e+00    8.027345e+07    2.162948e-08    1.592614e-09    2.018463e-08   -2.596766e+00
    2.184339e+00    5.895813e+00    4.992832e+00    8.039910e+07    2.158918e-08    1.542881e-09    2.018228e-08   -2.591766e+00
    2.207553e+00    6.130741e+00    4.938313e+00    8.051454e+07    2.154942e-08    1.494254e-09    2.017944e-08   -2.586766e+00
    2.231023e+00    6.379798e+00    4.883818e+00    8.061929e+07    2.151021e-08    1.446742e-09    2.017612e-08   -2.581766e+00
    2.254745e+00    6.643939e+00    4.829356e+00    8.071292e+07    2.147157e-08    1.400349e-09    2.017231e-08   -2.576766e+00
    2.278713e+00    6.924174e+00    4.774930e+00    8.079492e+07    2.143348e-08    1.355076e-09    2.016801e-08   -2.571766e+00
    2.302921e+00    7.221570e+00    4.720550e+00    8.086490e+07    2.139596e-08    1.310927e-09    2.016324e-08   -2.566766e+00
    2.327362e+00    7.537253e+00    4.666223e+00    8.092234e+07    2.135901e-08    1.267897e-09    2.015798e-08   -2.561766e+00
    2.352031e+00    7.872412e+00    4.611953e+00    8.096688e+07    2.132262e-08    1.225985e-09    2.015225e-08   -2.556766e+00
    2.376920e+00    8.228298e+00    4.557751e+00    8.099814e+07    2.128680e-08    1.185184e-09    2.014605e-08   -2.551766e+00
    2.402025e+00    8.606215e+00    4.503622e+00    8.101574e+07    2.125153e-08    1.145489e-09    2.013937e-08   -2.546766e+00
    2.427336e+00    9.007531e+00    4.449575e+00    8.101931e+07    2.121681e-08    1.106890e-09    2.013223e-08   -2.541766e+00
    2.452849e+00    9.433671e+00    4.395618e+00    8.100854e+07    2.118265e-08    1.069379e-09    2.012463e-08   -2.536766e+00
    2.478558e+00    9.886121e+00    4.341760e+00    8.098316e+07    2.114903e-08    1.032942e-09    2.011656e-08   -2.531766e+00
    2.504459e+00    1.036642e+01    4.288008e+00    8.094300e+07    2.111594e-08    9.975685e-10    2.010805e-08   -2.526766e+00
    2.530544e+00    1.087616e+01    4.234371e+00    8.088782e+07    2.108337e-08    9.632430e-10    2.009908e-08   -2.521766e+00
    2.556812e+00    1.141696e+01    4.180859e+00    8.081746e+07    2.105131e-08    9.299510e-10    2.008965e-08   -2.516766e+00
    2.583258e+00    1.199054e+01    4.127478e+00    8.073181e+07    2.101977e-08    8.976760e-10    2.007980e-08   -2.511766e+00
    2.609879e+00    1.259859e+01    4.074238e+00    8.063083e+07    2.098871e-08    8.664005e-10    2.006950e-08   -2.506766e+00
    2.636676e+00    1.324291e+01    4.021148e+00    8.051453e+07    2.095814e-08    8.361065e-10    2.005876e-08   -2.501766e+00
    2.663647e+00    1.392527e+01    3.968216e+00    8.038290e+07    2.092803e-08    8.067750e-10    2.004760e-08   -2.496766e+00
    2.690791e+00    1.464748e+01    3.915452e+00    8.023604e+07    2.089837e-08    7.783870e-10    2.003599e-08   -2.491766e+00
    2.718110e+00    1.541141e+01    3.862862e+00    8.007402e+07    2.086915e-08    7.509220e-10    2.002397e-08   -2.486766e+00
    2.745609e+00    1.621890e+01    3.810458e+00    7.989707e+07    2.084035e-08    7.243600e-10    2.001153e-08   -2.481766e+00
    2.773289e+00    1.707181e+01    3.758245e+00    7.970533e+07    2.081196e-08    6.986795e-10    1.999867e-08   -2.476766e+00
    2.801158e+00    1.797205e+01    3.706233e+00    7.949910e+07    2.078396e-08    6.738590e-10    1.998539e-08   -2.471766e+00
    2.829220e+00    1.892147e+01    3.654430e+00    7.927858e+07    2.075633e-08    6.498780e-10    1.997170e-08   -2.466766e+00
    2.857480e+00    1.992193e+01    3.602844e+00    7.904405e+07    2.072906e-08    6.267140e-10    1.995759e-08   -2.461766e+00
    2.885950e+00    2.097529e+01    3.551482e+00    7.879589e+07    2.070213e-08    6.043460e-10    1.994307e-08   -2.456766e+00
    2.914638e+00    2.208341e+01    3.500352e+00    7.853441e+07    2.067553e-08    5.827515e-10    1.992815e-08   -2.451766e+00
    2.943553e+00    2.324811e+01    3.449462e+00    7.825998e+07    2.064922e-08    5.619095e-10    1.991281e-08   -2.446766e+00
    2.972706e+00    2.447119e+01    3.398818e+00    7.797292e+07    2.062320e-08    5.417975e-10    1.989708e-08   -2.441766e+00
    3.002108e+00    2.575442e+01    3.348427e+00    7.767364e+07    2.059746e-08    5.223950e-10    1.988094e-08   -2.436766e+00
    3.031774e+00    2.709957e+01    3.298297e+00    7.736257e+07    2.057197e-08    5.036805e-10    1.986438e-08   -2.431766e+00
    3.061715e+00    2.850836e+01    3.248432e+00    7.704005e+07    2.054671e-08    4.856324e-10    1.984742e-08   -2.426766e+00
    3.091945e+00    2.998248e+01    3.198841e+00    7.670650e+07    2.052165e-08    4.682304e-10    1.983006e-08   -2.421766e+00
    3.122479e+00    3.152359e+01    3.149528e+00    7.636229e+07    2.049680e-08    4.514539e-10    1.981229e-08   -2.416766e+00
    3.153332e+00    3.313335e+01    3.100500e+00    7.600786e+07    2.047213e-08    4.352828e-10    1.979410e-08   -2.411766e+00
    3.184519e+00    3.481334e+01    3.051761e+00    7.564351e+07    2.044762e-08    4.196973e-10    1.977551e-08   -2.406766e+00
    3.216055e+00    3.656515e+01    3.003318e+00    7.526969e+07    2.042324e-08    4.046780e-10    1.975651e-08   -2.401766e+00
    3.247958e+00    3.839030e+01    2.955174e+00    7.488671e+07    2.039900e-08    3.902059e-10    1.973708e-08   -2.396766e+00
    3.280243e+00    4.029037e+01    2.907336e+00    7.449498e+07    2.037485e-08    3.762624e-10    1.971723e-08   -2.391766e+00
    3.312929e+00    4.226680e+01    2.859808e+00    7.409482e+07    2.035079e-08    3.628294e-10    1.969697e-08   -2.386766e+00
    3.346032e+00    4.432111e+01    2.812594e+00    7.368658e+07    2.032680e-08    3.498892e-10    1.967628e-08   -2.381766e+00
    3.379571e+00    4.645476e+01    2.765699e+00    7.327057e+07    2.030285e-08    3.374244e-10    1.965515e-08   -2.376766e+00
    3.413561e+00    4.866919e+01    2.719127e+00    7.284706e+07    2.027894e-08    3.254184e-10    1.963358e-08   -2.371766e+00
    3.448024e+00    5.096584e+01    2.672882e+00    7.241642e+07    2.025504e-08    3.138547e-10    1.961158e-08   -2.366766e+00
    3.482977e+00    5.334615e+01    2.626966e+00    7.197888e+07    2.023114e-08    3.027175e-10    1.958913e-08   -2.361766e+00
    3.518441e+00    5.581156e+01    2.581386e+00    7.153474e+07    2.020721e-08    2.919914e-10    1.956623e-08   -2.356766e+00
    3.554433e+00    5.836347e+01    2.536143e+00    7.108424e+07    2.018324e-08    2.816614e-10    1.954286e-08   -2.351766e+00
    3.590973e+00    6.100331e+01    2.491242e+00    7.062762e+07    2.015921e-08    2.717129e-10    1.951902e-08   -2.346766e+00
    3.628081e+00    6.373258e+01    2.446684e+00    7.016511e+07    2.013511e-08    2.621321e-10    1.949472e-08   -2.341766e+00
    3.665781e+00    6.655272e+01    2.402475e+00    6.969695e+07    2.011091e-08    2.529053e-10    1.946992e-08   -2.336766e+00
    3.704087e+00    6.946517e+01    2.358616e+00    6.922331e+07    2.008659e-08    2.440192e-10    1.944463e-08   -2.331766e+00
    3.743029e+00    7.247152e+01    2.315111e+00    6.874443e+07    2.006215e-08    2.354613e-10    1.941886e-08   -2.326766e+00
    3.782619e+00    7.557313e+01    2.271962e+00    6.826042e+07    2.003756e-08    2.272191e-10    1.939256e-08   -2.321766e+00
    3.822887e+00    7.877174e+01    2.229172e+00    6.777153e+07    2.001279e-08    2.192810e-10    1.936575e-08   -2.316766e+00
    3.863851e+00    8.206884e+01    2.186743e+00    6.727787e+07    1.998785e-08    2.116352e-10    1.933841e-08   -2.311766e+00
    3.905536e+00    8.546608e+01    2.144680e+00    6.677961e+07    1.996271e-08    2.042710e-10    1.931052e-08   -2.306766e+00
    3.947965e+00    8.896517e+01    2.102984e+00    6.627688e+07    1.993734e-08    1.971774e-10    1.928209e-08   -2.301766e+00
    3.991161e+00    9.256772e+01    2.061656e+00    6.576979e+07    1.991174e-08    1.903445e-10    1.925309e-08   -2.296766e+00
    4.035151e+00    9.627559e+01    2.020700e+00    6.525850e+07    1.988588e-08    1.837621e-10    1.922352e-08   -2.291766e+00
    4.079961e+00    1.000906e+02    1.980118e+00    6.474313e+07    1.985974e-08    1.774207e-10    1.919336e-08   -2.286766e+00
    4.125614e+00    1.040147e+02    1.939912e+00    6.422373e+07    1.983332e-08    1.713112e-10    1.916260e-08   -2.281766e+00
    4.172136e+00    1.080496e+02    1.900086e+00    6.370041e+07    1.980658e-08    1.654247e-10    1.913122e-08   -2.276766e+00
    4.219555e+00    1.121975e+02    1.860640e+00    6.317327e+07    1.977952e-08    1.597527e-10    1.909923e-08   -2.271766e+00
    4.267902e+00    1.164604e+02    1.821576e+00    6.264241e+07    1.975210e-08    1.542870e-10    1.906658e-08   -2.266766e+00
    4.317201e+00    1.208404e+02    1.782897e+00    6.210785e+07    1.972433e-08    1.490197e-10    1.903329e-08   -2.261766e+00
    4.367484e+00    1.253399e+02    1.744605e+00    6.156968e+07    1.969616e-08    1.439432e-10    1.899931e-08   -2.256766e+00
    4.418778e+00    1.299609e+02    1.706703e+00    6.102795e+07    1.966760e-08    1.390503e-10    1.896465e-08   -2.251766e+00
    4.471119e+00    1.347059e+02    1.669191e+00    6.048272e+07    1.963862e-08    1.343338e-10    1.892929e-08   -2.246766e+00
    4.524538e+00    1.395775e+02    1.632072e+00    5.993408e+07    1.960920e-08    1.297872e-10    1.889321e-08   -2.241766e+00
    4.579062e+00    1.445779e+02    1.595347e+00    5.938196e+07    1.957931e-08    1.254038e-10    1.885639e-08   -2.236766e+00
    4.634732e+00    1.497100e+02    1.559020e+00    5.882649e+07    1.954896e-08    1.211775e-10    1.881881e-08   -2.231766e+00
    4.691576e+00    1.549763e+02    1.523092e+00    5.826765e+07    1.951810e-08    1.171023e-10    1.878046e-08   -2.226766e+00
    4.749633e+00    1.603796e+02    1.487564e+00    5.770545e+07    1.948673e-08    1.131723e-10    1.874132e-08   -2.221766e+00
    4.808933e+00    1.659228e+02    1.452438e+00    5.713991e+07    1.945482e-08    1.093822e-10    1.870137e-08   -2.216766e+00
    4.869524e+00    1.716089e+02    1.417717e+00    5.657110e+07    1.942235e-08    1.057266e-10    1.866059e-08   -2.211766e+00
    4.931434e+00    1.774408e+02    1.383403e+00    5.599892e+07    1.938931e-08    1.022004e-10    1.861896e-08   -2.206766e+00
    4.994707e+00    1.834217e+02    1.349497e+00    5.542346e+07    1.935568e-08    9.879870e-11    1.857645e-08   -2.201766e+00
    5.059381e+00    1.895547e+02    1.316000e+00    5.484466e+07    1.932142e-08    9.551680e-11    1.853307e-08   -2.196766e+00
    5.125497e+00    1.958432e+02    1.282916e+00    5.426252e+07    1.928654e-08    9.235015e-11    1.848876e-08   -2.191766e+00
    5.193098e+00    2.022905e+02    1.250245e+00    5.367706e+07    1.925099e-08    8.929445e-11    1.844353e-08   -2.186766e+00
    5.262227e+00    2.089001e+02    1.217990e+00    5.308823e+07    1.921477e-08    8.634550e-11    1.839734e-08   -2.181766e+00
    5.332930e+00    2.156755e+02    1.186152e+00    5.249602e+07    1.917785e-08    8.349935e-11    1.835017e-08   -2.176766e+00
    5.405241e+00    2.226200e+02    1.154734e+00    5.190035e+07    1.914022e-08    8.075210e-11    1.830201e-08   -2.171766e+00
    5.479220e+00    2.297377e+02    1.123737e+00    5.130129e+07    1.910184e-08    7.810005e-11    1.825281e-08   -2.166766e+00
    5.554901e+00    2.370319e+02    1.093163e+00    5.069871e+07    1.906270e-08    7.553975e-11    1.820258e-08   -2.161766e+00
    5.632339e+00    2.445064e+02    1.063013e+00    5.009261e+07    1.902278e-08    7.306765e-11    1.815127e-08   -2.156766e+00
    5.711584e+00    2.521654e+02    1.033291e+00    4.948300e+07    1.898205e-08    7.068060e-11    1.809887e-08   -2.151766e+00
    5.792675e+00    2.600121e+02    1.003997e+00    4.886974e+07    1.894050e-08    6.837540e-11    1.804535e-08   -2.146766e+00
    5.875670e+00    2.680508e+02    9.751330e-01    4.825288e+07    1.889810e-08    6.614910e-11    1.799069e-08   -2.141766e+00
    5.960612e+00    2.762849e+02    9.467015e-01    4.763227e+07    1.885483e-08    6.399870e-11    1.793486e-08   -2.136766e+00
    6.047554e+00    2.847185e+02    9.187045e-01    4.700795e+07    1.881068e-08    6.192145e-11    1.787784e-08   -2.131766e+00
    6.136552e+00    2.933552e+02    8.911430e-01    4.637985e+07    1.876561e-08    5.991470e-11    1.781959e-08   -2.126766e+00
    6.227655e+00    3.021993e+02    8.640195e-01    4.574795e+07    1.871960e-08    5.797585e-11    1.776010e-08   -2.121766e+00
    6.320901e+00    3.112533e+02    8.373355e-01    4.511210e+07    1.867264e-08    5.610245e-11    1.769934e-08   -2.116766e+00
    6.416354e+00    3.205217e+02    8.110930e-01    4.447235e+07    1.862469e-08    5.429215e-11    1.763728e-08   -2.111766e+00
    6.514068e+00    3.300080e+02    7.852935e-01    4.382864e+07    1.857575e-08    5.254265e-11    1.757390e-08   -2.106766e+00
    6.614077e+00    3.397147e+02    7.599390e-01    4.318088e+07    1.852579e-08    5.085175e-11    1.750917e-08   -2.101766e+00
    6.716442e+00    3.496455e+02    7.350310e-01    4.252907e+07    1.847478e-08    4.921731e-11    1.744307e-08   -2.096766e+00
    6.821204e+00    3.598029e+02    7.105715e-01    4.187317e+07    1.842270e-08    4.763737e-11    1.737555e-08   -2.091766e+00
    6.928414e+00    3.701897e+02    6.865620e-01    4.121314e+07    1.836953e-08    4.610995e-11    1.730662e-08   -2.086766e+00
    7.038108e+00    3.808080e+02    6.630045e-01    4.054894e+07    1.831526e-08    4.463320e-11    1.723622e-08   -2.081766e+00
    7.150342e+00    3.916597e+02    6.398995e-01    3.988057e+07    1.825985e-08    4.320530e-11    1.716436e-08   -2.076766e+00
    7.265138e+00    4.027464e+02    6.172500e-01    3.920804e+07    1.820330e-08    4.182454e-11    1.709098e-08   -2.071766e+00
    7.382551e+00    4.140691e+02    5.950560e-01    3.853131e+07    1.814557e-08    4.048925e-11    1.701607e-08   -2.066766e+00
    7.502598e+00    4.256284e+02    5.733200e-01    3.785043e+07    1.808665e-08    3.919783e-11    1.693959e-08   -2.061766e+00
    7.625318e+00    4.374238e+02    5.520425e-01    3.716540e+07    1.802652e-08    3.794874e-11    1.686154e-08   -2.056766e+00
    7.750725e+00    4.494547e+02    5.312255e-01    3.647628e+07    1.796515e-08    3.674051e-11    1.678189e-08   -2.051766e+00
    7.878851e+00    4.617198e+02    5.108690e-01    3.578310e+07    1.790253e-08    3.557172e-11    1.670060e-08   -2.046766e+00
    8.009693e+00    4.742162e+02    4.909750e-01    3.508596e+07    1.783865e-08    3.444098e-11    1.661765e-08   -2.041766e+00
    8.143267e+00    4.869413e+02    4.715438e-01    3.438495e+07    1.777348e-08    3.334700e-11    1.653303e-08   -2.036766e+00
    8.279567e+00    4.998905e+02    4.525762e-01    3.368018e+07    1.770700e-08    3.228849e-11    1.644671e-08   -2.031766e+00
    8.418583e+00    5.130583e+02    4.340726e-01    3.297179e+07    1.763920e-08    3.126425e-11    1.635866e-08   -2.026766e+00
    8.560296e+00    5.264389e+02    4.160335e-01    3.225995e+07    1.757007e-08    3.027309e-11    1.626887e-08   -2.021766e+00
    8.704674e+00    5.400235e+02    3.984589e-01    3.154486e+07    1.749958e-08    2.931389e-11    1.617732e-08   -2.016766e+00
    8.851677e+00    5.538041e+02    3.813489e-01    3.082673e+07    1.742773e-08    2.838555e-11    1.608399e-08   -2.011766e+00
    9.001253e+00    5.677696e+02    3.647030e-01    3.010582e+07    1.735450e-08    2.748704e-11    1.598885e-08   -2.006766e+00
    9.153333e+00    5.819074e+02    3.485208e-01    2.938242e+07    1.727987e-08    2.661734e-11    1.589190e-08   -2.001766e+00
    9.307838e+00    5.962046e+02    3.328014e-01    2.865687e+07    1.720384e-08    2.577549e-11    1.579312e-08   -1.996766e+00
    9.464672e+00    6.106456e+02    3.175438e-01    2.792950e+07    1.712640e-08    2.496054e-11    1.569249e-08   -1.991766e+00
    9.623725e+00    6.252130e+02    3.027464e-01    2.720073e+07    1.704754e-08    2.417159e-11    1.559001e-08   -1.986766e+00
    9.784865e+00    6.398878e+02    2.884077e-01    2.647100e+07    1.696725e-08    2.340778e-11    1.548564e-08   -1.981766e+00
    9.947950e+00    6.546491e+02    2.745254e-01    2.574078e+07    1.688552e-08    2.266827e-11    1.537941e-08   -1.976766e+00
    1.011281e+01    6.694741e+02    2.610971e-01    2.501060e+07    1.680236e-08    2.195225e-11    1.527128e-08   -1.971766e+00
    1.027927e+01    6.843379e+02    2.481201e-01    2.428101e+07    1.671774e-08    2.125894e-11    1.516127e-08   -1.966766e+00
