# sky130 pfet_01v8 gm/ID Processed Lookup Table
# Corner: ff
# Temperature: 75C
# W = 2.0 um
# L = 1.08 um (1080 nm)
# Columns: gm/id [1/V]  gm/gds [V/V]  id/W [A/m]  ft [Hz]  Cgg/W [F/m]  Cgd/W [F/m]  Cgs/W [F/m]  Vov [V]
#         gm/id          gm/gds            id/W              ft           Cgg/W           Cgd/W           Cgs/W             Vov
    1.525161e+00    2.088560e+00    2.119090e+01    7.222325e+08    7.122100e-09    8.044880e-10    6.410040e-09   -2.695049e+00
    1.540224e+00    2.131158e+00    2.102913e+01    7.251012e+08    7.109295e-09    7.854485e-10    6.412795e-09   -2.690049e+00
    1.555509e+00    2.175277e+00    2.086700e+01    7.279556e+08    7.096560e-09    7.665975e-10    6.415440e-09   -2.685049e+00
    1.571020e+00    2.220995e+00    2.070454e+01    7.307948e+08    7.083895e-09    7.479440e-10    6.417960e-09   -2.680049e+00
    1.586762e+00    2.268396e+00    2.054173e+01    7.336172e+08    7.071305e-09    7.294975e-10    6.420360e-09   -2.675049e+00
    1.602738e+00    2.317567e+00    2.037859e+01    7.364208e+08    7.058800e-09    7.112665e-10    6.422640e-09   -2.670049e+00
    1.618953e+00    2.368601e+00    2.021512e+01    7.392046e+08    7.046380e-09    6.932600e-10    6.424790e-09   -2.665049e+00
    1.635411e+00    2.421601e+00    2.005132e+01    7.419664e+08    7.034055e-09    6.754860e-10    6.426810e-09   -2.660049e+00
    1.652116e+00    2.476671e+00    1.988720e+01    7.447044e+08    7.021830e-09    6.579525e-10    6.428705e-09   -2.655049e+00
    1.669072e+00    2.533928e+00    1.972276e+01    7.474169e+08    7.009710e-09    6.406670e-10    6.430465e-09   -2.650049e+00
    1.686284e+00    2.593490e+00    1.955802e+01    7.501023e+08    6.997695e-09    6.236365e-10    6.432090e-09   -2.645049e+00
    1.703755e+00    2.655487e+00    1.939296e+01    7.527583e+08    6.985795e-09    6.068670e-10    6.433580e-09   -2.640049e+00
    1.721491e+00    2.720060e+00    1.922761e+01    7.553828e+08    6.974015e-09    5.903660e-10    6.434935e-09   -2.635049e+00
    1.739493e+00    2.787354e+00    1.906196e+01    7.579746e+08    6.962350e-09    5.741380e-10    6.436155e-09   -2.630049e+00
    1.757768e+00    2.857529e+00    1.889603e+01    7.605304e+08    6.950815e-09    5.581895e-10    6.437230e-09   -2.625049e+00
    1.776319e+00    2.930750e+00    1.872981e+01    7.630488e+08    6.939405e-09    5.425240e-10    6.438170e-09   -2.620049e+00
    1.795149e+00    3.007201e+00    1.856333e+01    7.655274e+08    6.928125e-09    5.271465e-10    6.438970e-09   -2.615049e+00
    1.814262e+00    3.087075e+00    1.839658e+01    7.679637e+08    6.916980e-09    5.120610e-10    6.439630e-09   -2.610049e+00
    1.833661e+00    3.170573e+00    1.822957e+01    7.703547e+08    6.905975e-09    4.972703e-10    6.440150e-09   -2.605049e+00
    1.853351e+00    3.257921e+00    1.806231e+01    7.726989e+08    6.895105e-09    4.827773e-10    6.440530e-09   -2.600049e+00
    1.873333e+00    3.349349e+00    1.789482e+01    7.749931e+08    6.884375e-09    4.685842e-10    6.440770e-09   -2.595049e+00
    1.893611e+00    3.445112e+00    1.772709e+01    7.772344e+08    6.873790e-09    4.546929e-10    6.440865e-09   -2.590049e+00
    1.914187e+00    3.545476e+00    1.755913e+01    7.794199e+08    6.863350e-09    4.411048e-10    6.440825e-09   -2.585049e+00
    1.935063e+00    3.650729e+00    1.739098e+01    7.815474e+08    6.853050e-09    4.278205e-10    6.440645e-09   -2.580049e+00
    1.956242e+00    3.761178e+00    1.722262e+01    7.836128e+08    6.842900e-09    4.148403e-10    6.440320e-09   -2.575049e+00
    1.977723e+00    3.877146e+00    1.705407e+01    7.856140e+08    6.832890e-09    4.021641e-10    6.439860e-09   -2.570049e+00
    1.999511e+00    3.998985e+00    1.688534e+01    7.875467e+08    6.823030e-09    3.897912e-10    6.439265e-09   -2.565049e+00
    2.021603e+00    4.127064e+00    1.671645e+01    7.894078e+08    6.813315e-09    3.777209e-10    6.438530e-09   -2.560049e+00
    2.044001e+00    4.261778e+00    1.654740e+01    7.911945e+08    6.803740e-09    3.659514e-10    6.437660e-09   -2.555049e+00
    2.066704e+00    4.403549e+00    1.637822e+01    7.929019e+08    6.794315e-09    3.544810e-10    6.436650e-09   -2.550049e+00
    2.089712e+00    4.552822e+00    1.620892e+01    7.945273e+08    6.785030e-09    3.433074e-10    6.435510e-09   -2.545049e+00
    2.113023e+00    4.710063e+00    1.603951e+01    7.960664e+08    6.775885e-09    3.324281e-10    6.434240e-09   -2.540049e+00
    2.136636e+00    4.875783e+00    1.587000e+01    7.975154e+08    6.766880e-09    3.218400e-10    6.432835e-09   -2.535049e+00
    2.160547e+00    5.050503e+00    1.570043e+01    7.988698e+08    6.758015e-09    3.115400e-10    6.431300e-09   -2.530049e+00
    2.184753e+00    5.234779e+00    1.553080e+01    8.001260e+08    6.749285e-09    3.015246e-10    6.429635e-09   -2.525049e+00
    2.209252e+00    5.429203e+00    1.536112e+01    8.012794e+08    6.740690e-09    2.917898e-10    6.427845e-09   -2.520049e+00
    2.234038e+00    5.634387e+00    1.519144e+01    8.023262e+08    6.732225e-09    2.823317e-10    6.425925e-09   -2.515049e+00
    2.259109e+00    5.850968e+00    1.502175e+01    8.032618e+08    6.723890e-09    2.731459e-10    6.423880e-09   -2.510049e+00
    2.284456e+00    6.079627e+00    1.485209e+01    8.040822e+08    6.715680e-09    2.642279e-10    6.421710e-09   -2.505049e+00
    2.310077e+00    6.321053e+00    1.468247e+01    8.047830e+08    6.707595e-09    2.555731e-10    6.419420e-09   -2.500049e+00
    2.335964e+00    6.575969e+00    1.451292e+01    8.053608e+08    6.699625e-09    2.471765e-10    6.417005e-09   -2.495049e+00
    2.362111e+00    6.845124e+00    1.434346e+01    8.058106e+08    6.691775e-09    2.390332e-10    6.414470e-09   -2.490049e+00
    2.388512e+00    7.129272e+00    1.417412e+01    8.061294e+08    6.684035e-09    2.311380e-10    6.411820e-09   -2.485049e+00
    2.415159e+00    7.429200e+00    1.400492e+01    8.063125e+08    6.676410e-09    2.234857e-10    6.409050e-09   -2.480049e+00
    2.442047e+00    7.745697e+00    1.383589e+01    8.063579e+08    6.668885e-09    2.160712e-10    6.406160e-09   -2.475049e+00
    2.469169e+00    8.079563e+00    1.366704e+01    8.062612e+08    6.661465e-09    2.088888e-10    6.403155e-09   -2.470049e+00
    2.496517e+00    8.431601e+00    1.349843e+01    8.060203e+08    6.654140e-09    2.019332e-10    6.400035e-09   -2.465049e+00
    2.524087e+00    8.802616e+00    1.333007e+01    8.056318e+08    6.646915e-09    1.951990e-10    6.396805e-09   -2.460049e+00
    2.551873e+00    9.193397e+00    1.316198e+01    8.050946e+08    6.639775e-09    1.886806e-10    6.393460e-09   -2.455049e+00
    2.579869e+00    9.604725e+00    1.299419e+01    8.044059e+08    6.632725e-09    1.823725e-10    6.390000e-09   -2.450049e+00
    2.608071e+00    1.003736e+01    1.282676e+01    8.035650e+08    6.625755e-09    1.762693e-10    6.386430e-09   -2.445049e+00
    2.636478e+00    1.049203e+01    1.265968e+01    8.025712e+08    6.618860e-09    1.703656e-10    6.382750e-09   -2.440049e+00
    2.665083e+00    1.096944e+01    1.249300e+01    8.014227e+08    6.612045e-09    1.646558e-10    6.378955e-09   -2.435049e+00
    2.693889e+00    1.147024e+01    1.232674e+01    8.001210e+08    6.605295e-09    1.591346e-10    6.375055e-09   -2.430049e+00
    2.722893e+00    1.199506e+01    1.216094e+01    7.986653e+08    6.598615e-09    1.537966e-10    6.371045e-09   -2.425049e+00
    2.752095e+00    1.254445e+01    1.199562e+01    7.970571e+08    6.591995e-09    1.486365e-10    6.366925e-09   -2.420049e+00
    2.781500e+00    1.311894e+01    1.183081e+01    7.952978e+08    6.585430e-09    1.436492e-10    6.362695e-09   -2.415049e+00
    2.811110e+00    1.371896e+01    1.166656e+01    7.933892e+08    6.578915e-09    1.388296e-10    6.358355e-09   -2.410049e+00
    2.840928e+00    1.434491e+01    1.150287e+01    7.913328e+08    6.572450e-09    1.341724e-10    6.353905e-09   -2.405049e+00
    2.870962e+00    1.499713e+01    1.133977e+01    7.891305e+08    6.566035e-09    1.296729e-10    6.349350e-09   -2.400049e+00
    2.901218e+00    1.567586e+01    1.117731e+01    7.867864e+08    6.559655e-09    1.253259e-10    6.344680e-09   -2.395049e+00
    2.931703e+00    1.638133e+01    1.101551e+01    7.843028e+08    6.553310e-09    1.211269e-10    6.339905e-09   -2.390049e+00
    2.962427e+00    1.711367e+01    1.085438e+01    7.816833e+08    6.546995e-09    1.170712e-10    6.335020e-09   -2.385049e+00
    2.993401e+00    1.787296e+01    1.069396e+01    7.789312e+08    6.540705e-09    1.131541e-10    6.330020e-09   -2.380049e+00
    3.024636e+00    1.865923e+01    1.053428e+01    7.760496e+08    6.534440e-09    1.093711e-10    6.324910e-09   -2.375049e+00
    3.056144e+00    1.947245e+01    1.037535e+01    7.730425e+08    6.528195e-09    1.057178e-10    6.319690e-09   -2.370049e+00
    3.087939e+00    2.031256e+01    1.021720e+01    7.699143e+08    6.521960e-09    1.021901e-10    6.314355e-09   -2.365049e+00
    3.120034e+00    2.117943e+01    1.005985e+01    7.666678e+08    6.515740e-09    9.878365e-11    6.308910e-09   -2.360049e+00
    3.152443e+00    2.207294e+01    9.903335e+00    7.633080e+08    6.509520e-09    9.549450e-11    6.303345e-09   -2.355049e+00
    3.185184e+00    2.299291e+01    9.747660e+00    7.598385e+08    6.503300e-09    9.231870e-11    6.297665e-09   -2.350049e+00
    3.218271e+00    2.393914e+01    9.592860e+00    7.562627e+08    6.497080e-09    8.925240e-11    6.291865e-09   -2.345049e+00
    3.251722e+00    2.491142e+01    9.438945e+00    7.525848e+08    6.490850e-09    8.629190e-11    6.285950e-09   -2.340049e+00
    3.285554e+00    2.590954e+01    9.285935e+00    7.488082e+08    6.484610e-09    8.343350e-11    6.279910e-09   -2.335049e+00
    3.319784e+00    2.693329e+01    9.133855e+00    7.449372e+08    6.478350e-09    8.067375e-11    6.273750e-09   -2.330049e+00
    3.354429e+00    2.798244e+01    8.982720e+00    7.409742e+08    6.472075e-09    7.800925e-11    6.267465e-09   -2.325049e+00
    3.389510e+00    2.905682e+01    8.832545e+00    7.369239e+08    6.465770e-09    7.543665e-11    6.261055e-09   -2.320049e+00
    3.425046e+00    3.015623e+01    8.683345e+00    7.327893e+08    6.459435e-09    7.295275e-11    6.254520e-09   -2.315049e+00
    3.461055e+00    3.128049e+01    8.535140e+00    7.285727e+08    6.453070e-09    7.055450e-11    6.247850e-09   -2.310049e+00
    3.497557e+00    3.242950e+01    8.387945e+00    7.242782e+08    6.446665e-09    6.823890e-11    6.241045e-09   -2.305049e+00
    3.534574e+00    3.360311e+01    8.241770e+00    7.199085e+08    6.440215e-09    6.600295e-11    6.234110e-09   -2.300049e+00
    3.572123e+00    3.480128e+01    8.096635e+00    7.154659e+08    6.433720e-09    6.384395e-11    6.227035e-09   -2.295049e+00
    3.610225e+00    3.602395e+01    7.952555e+00    7.109532e+08    6.427175e-09    6.175910e-11    6.219820e-09   -2.290049e+00
    3.648906e+00    3.727113e+01    7.809535e+00    7.063730e+08    6.420575e-09    5.974580e-11    6.212460e-09   -2.285049e+00
    3.688183e+00    3.854283e+01    7.667595e+00    7.017281e+08    6.413910e-09    5.780155e-11    6.204955e-09   -2.280049e+00
    3.728078e+00    3.983916e+01    7.526745e+00    6.970198e+08    6.407185e-09    5.592385e-11    6.197300e-09   -2.275049e+00
    3.768617e+00    4.116025e+01    7.386995e+00    6.922514e+08    6.400385e-09    5.411035e-11    6.189495e-09   -2.270049e+00
    3.809820e+00    4.250624e+01    7.248360e+00    6.874239e+08    6.393515e-09    5.235880e-11    6.181535e-09   -2.265049e+00
    3.851710e+00    4.387733e+01    7.110850e+00    6.825391e+08    6.386570e-09    5.066690e-11    6.173415e-09   -2.260049e+00
    3.894312e+00    4.527381e+01    6.974475e+00    6.775999e+08    6.379535e-09    4.903263e-11    6.165130e-09   -2.255049e+00
    3.937650e+00    4.669594e+01    6.839245e+00    6.726069e+08    6.372415e-09    4.745387e-11    6.156680e-09   -2.250049e+00
    3.981747e+00    4.814410e+01    6.705175e+00    6.675618e+08    6.365205e-09    4.592865e-11    6.148060e-09   -2.245049e+00
    4.026633e+00    4.961864e+01    6.572265e+00    6.624665e+08    6.357895e-09    4.445507e-11    6.139265e-09   -2.240049e+00
    4.072329e+00    5.112004e+01    6.440535e+00    6.573219e+08    6.350485e-09    4.303128e-11    6.130290e-09   -2.235049e+00
    4.118865e+00    5.264879e+01    6.309990e+00    6.521297e+08    6.342965e-09    4.165551e-11    6.121135e-09   -2.230049e+00
    4.166265e+00    5.420535e+01    6.180640e+00    6.468907e+08    6.335335e-09    4.032604e-11    6.111790e-09   -2.225049e+00
    4.214562e+00    5.579031e+01    6.052490e+00    6.416064e+08    6.327585e-09    3.904123e-11    6.102255e-09   -2.220049e+00
    4.263779e+00    5.740428e+01    5.925555e+00    6.362771e+08    6.319715e-09    3.779949e-11    6.092525e-09   -2.215049e+00
    4.313948e+00    5.904791e+01    5.799840e+00    6.309046e+08    6.311715e-09    3.659927e-11    6.082590e-09   -2.210049e+00
    4.365100e+00    6.072191e+01    5.675355e+00    6.254890e+08    6.303585e-09    3.543912e-11    6.072450e-09   -2.205049e+00
    4.417261e+00    6.242697e+01    5.552110e+00    6.200311e+08    6.295320e-09    3.431759e-11    6.062100e-09   -2.200049e+00
    4.470472e+00    6.416391e+01    5.430105e+00    6.145321e+08    6.286910e-09    3.323334e-11    6.051530e-09   -2.195049e+00
    4.524755e+00    6.593352e+01    5.309360e+00    6.089924e+08    6.278350e-09    3.218503e-11    6.040740e-09   -2.190049e+00
    4.580150e+00    6.773666e+01    5.189875e+00    6.034127e+08    6.269635e-09    3.117139e-11    6.029720e-09   -2.185049e+00
    4.636690e+00    6.957423e+01    5.071660e+00    5.977931e+08    6.260765e-09    3.019121e-11    6.018470e-09   -2.180049e+00
    4.694412e+00    7.144716e+01    4.954720e+00    5.921347e+08    6.251725e-09    2.924329e-11    6.006975e-09   -2.175049e+00
    4.753348e+00    7.335641e+01    4.839066e+00    5.864370e+08    6.242520e-09    2.832651e-11    5.995240e-09   -2.170049e+00
    4.813539e+00    7.530302e+01    4.724705e+00    5.807017e+08    6.233130e-09    2.743978e-11    5.983250e-09   -2.165049e+00
    4.875022e+00    7.728802e+01    4.611643e+00    5.749276e+08    6.223565e-09    2.658203e-11    5.971000e-09   -2.160049e+00
    4.937836e+00    7.931250e+01    4.499888e+00    5.691161e+08    6.213805e-09    2.575225e-11    5.958485e-09   -2.155049e+00
    5.002020e+00    8.137758e+01    4.389449e+00    5.632665e+08    6.203855e-09    2.494947e-11    5.945700e-09   -2.150049e+00
    5.067619e+00    8.348443e+01    4.280330e+00    5.573792e+08    6.193705e-09    2.417276e-11    5.932640e-09   -2.145049e+00
    5.134673e+00    8.563424e+01    4.172540e+00    5.514549e+08    6.183345e-09    2.342119e-11    5.919290e-09   -2.140049e+00
    5.203226e+00    8.782824e+01    4.066086e+00    5.454931e+08    6.172770e-09    2.269390e-11    5.905645e-09   -2.135049e+00
    5.273322e+00    9.006769e+01    3.960975e+00    5.394935e+08    6.161980e-09    2.199004e-11    5.891705e-09   -2.130049e+00
    5.345007e+00    9.235390e+01    3.857214e+00    5.334568e+08    6.150960e-09    2.130882e-11    5.877455e-09   -2.125049e+00
    5.418331e+00    9.468821e+01    3.754809e+00    5.273824e+08    6.139710e-09    2.064945e-11    5.862895e-09   -2.120049e+00
    5.493337e+00    9.707194e+01    3.653768e+00    5.212702e+08    6.128220e-09    2.001117e-11    5.848005e-09   -2.115049e+00
    5.570074e+00    9.950650e+01    3.554097e+00    5.151205e+08    6.116480e-09    1.939328e-11    5.832790e-09   -2.110049e+00
    5.648596e+00    1.019933e+02    3.455804e+00    5.089327e+08    6.104490e-09    1.879506e-11    5.817235e-09   -2.105049e+00
    5.728950e+00    1.045338e+02    3.358895e+00    5.027066e+08    6.092240e-09    1.821585e-11    5.801335e-09   -2.100049e+00
    5.811187e+00    1.071294e+02    3.263377e+00    4.964418e+08    6.079725e-09    1.765500e-11    5.785080e-09   -2.095049e+00
    5.895364e+00    1.097816e+02    3.169257e+00    4.901385e+08    6.066935e-09    1.711190e-11    5.768460e-09   -2.090049e+00
    5.981530e+00    1.124919e+02    3.076540e+00    4.837959e+08    6.053865e-09    1.658593e-11    5.751465e-09   -2.085049e+00
    6.069741e+00    1.152619e+02    2.985235e+00    4.774144e+08    6.040505e-09    1.607653e-11    5.734095e-09   -2.080049e+00
    6.160050e+00    1.180929e+02    2.895346e+00    4.709930e+08    6.026850e-09    1.558313e-11    5.716335e-09   -2.075049e+00
    6.252513e+00    1.209867e+02    2.806882e+00    4.645316e+08    6.012895e-09    1.510520e-11    5.698175e-09   -2.070049e+00
    6.347185e+00    1.239445e+02    2.719848e+00    4.580298e+08    5.998630e-09    1.464222e-11    5.679610e-09   -2.065049e+00
    6.444119e+00    1.269679e+02    2.634250e+00    4.514876e+08    5.984045e-09    1.419370e-11    5.660630e-09   -2.060049e+00
    6.543373e+00    1.300584e+02    2.550096e+00    4.449042e+08    5.969140e-09    1.375915e-11    5.641225e-09   -2.055049e+00
    6.644999e+00    1.332175e+02    2.467390e+00    4.382797e+08    5.953900e-09    1.333811e-11    5.621390e-09   -2.050049e+00
    6.749054e+00    1.364464e+02    2.386140e+00    4.316134e+08    5.938325e-09    1.293014e-11    5.601105e-09   -2.045049e+00
    6.855590e+00    1.397468e+02    2.306350e+00    4.249056e+08    5.922400e-09    1.253480e-11    5.580375e-09   -2.040049e+00
    6.964660e+00    1.431197e+02    2.228028e+00    4.181557e+08    5.906125e-09    1.215168e-11    5.559180e-09   -2.035049e+00
    7.076313e+00    1.465664e+02    2.151178e+00    4.113638e+08    5.889485e-09    1.178038e-11    5.537515e-09   -2.030049e+00
    7.190598e+00    1.500881e+02    2.075805e+00    4.045295e+08    5.872480e-09    1.142051e-11    5.515370e-09   -2.025049e+00
    7.307563e+00    1.536859e+02    2.001917e+00    3.976534e+08    5.855095e-09    1.107171e-11    5.492735e-09   -2.020049e+00
    7.427251e+00    1.573606e+02    1.929515e+00    3.907349e+08    5.837330e-09    1.073361e-11    5.469605e-09   -2.015049e+00
    7.549698e+00    1.611130e+02    1.858608e+00    3.837742e+08    5.819180e-09    1.040587e-11    5.445970e-09   -2.010049e+00
    7.674949e+00    1.649438e+02    1.789197e+00    3.767724e+08    5.800625e-09    1.008814e-11    5.421815e-09   -2.005049e+00
    7.803030e+00    1.688534e+02    1.721289e+00    3.697293e+08    5.781670e-09    9.780125e-12    5.397140e-09   -2.000049e+00
    7.933969e+00    1.728421e+02    1.654886e+00    3.626457e+08    5.762305e-09    9.481495e-12    5.371930e-09   -1.995049e+00
    8.067786e+00    1.769098e+02    1.589992e+00    3.555220e+08    5.742525e-09    9.191960e-12    5.346175e-09   -1.990049e+00
    8.204492e+00    1.810565e+02    1.526610e+00    3.483596e+08    5.722320e-09    8.911225e-12    5.319870e-09   -1.985049e+00
    8.344104e+00    1.852814e+02    1.464742e+00    3.411600e+08    5.701680e-09    8.639010e-12    5.293010e-09   -1.980049e+00
    8.486604e+00    1.895840e+02    1.404391e+00    3.339236e+08    5.680610e-09    8.375050e-12    5.265580e-09   -1.975049e+00
    8.631995e+00    1.939629e+02    1.345558e+00    3.266529e+08    5.659095e-09    8.119080e-12    5.237575e-09   -1.970049e+00
    8.780249e+00    1.984165e+02    1.288243e+00    3.193494e+08    5.637135e-09    7.870855e-12    5.208990e-09   -1.965049e+00
    8.931329e+00    2.029430e+02    1.232447e+00    3.120158e+08    5.614715e-09    7.630130e-12    5.179810e-09   -1.960049e+00
    9.085195e+00    2.075401e+02    1.178169e+00    3.046538e+08    5.591845e-09    7.396665e-12    5.150040e-09   -1.955049e+00
    9.241785e+00    2.122048e+02    1.125407e+00    2.972672e+08    5.568505e-09    7.170240e-12    5.119665e-09   -1.950049e+00
    9.401020e+00    2.169337e+02    1.074160e+00    2.898585e+08    5.544700e-09    6.950635e-12    5.088680e-09   -1.945049e+00
    9.562818e+00    2.217230e+02    1.024424e+00    2.824316e+08    5.520425e-09    6.737640e-12    5.057080e-09   -1.940049e+00
