# sky130 pfet_01v8 gm/ID Processed Lookup Table
# Corner: ff
# Temperature: 75C
# W = 2.0 um
# L = 3.78 um (3780 nm)
# Columns: gm/id [1/V]  gm/gds [V/V]  id/W [A/m]  ft [Hz]  Cgg/W [F/m]  Cgd/W [F/m]  Cgs/W [F/m]  Vov [V]
#         gm/id          gm/gds            id/W              ft           Cgg/W           Cgd/W           Cgs/W             Vov
    1.688312e+00    2.745449e+00    5.805830e+00    6.200365e+07    2.516054e-08    3.466269e-09    2.213464e-08   -2.723212e+00
    1.704587e+00    2.811667e+00    5.756795e+00    6.220576e+07    2.510669e-08    3.389128e-09    2.214671e-08   -2.718212e+00
    1.721112e+00    2.880748e+00    5.707700e+00    6.240689e+07    2.505289e-08    3.312398e-09    2.215835e-08   -2.713212e+00
    1.737886e+00    2.952863e+00    5.658555e+00    6.260679e+07    2.499917e-08    3.236123e-09    2.216956e-08   -2.708212e+00
    1.754915e+00    3.028196e+00    5.609360e+00    6.280532e+07    2.494555e-08    3.160350e-09    2.218033e-08   -2.703212e+00
    1.772199e+00    3.106942e+00    5.560120e+00    6.300221e+07    2.489207e-08    3.085123e-09    2.219063e-08   -2.698212e+00
    1.789747e+00    3.189314e+00    5.510825e+00    6.319732e+07    2.483876e-08    3.010488e-09    2.220047e-08   -2.693212e+00
    1.807557e+00    3.275537e+00    5.461490e+00    6.339036e+07    2.478564e-08    2.936489e-09    2.220983e-08   -2.688212e+00
    1.825634e+00    3.365855e+00    5.412110e+00    6.358113e+07    2.473273e-08    2.863172e-09    2.230352e-08   -2.683212e+00
    1.843982e+00    3.460530e+00    5.362685e+00    6.376942e+07    2.468009e-08    2.790579e-09    2.230953e-08   -2.678212e+00
    1.862601e+00    3.559839e+00    5.313220e+00    6.395487e+07    2.462772e-08    2.718753e-09    2.231506e-08   -2.673212e+00
    1.881494e+00    3.664087e+00    5.263720e+00    6.413731e+07    2.457566e-08    2.647734e-09    2.232013e-08   -2.668212e+00
    1.900664e+00    3.773598e+00    5.214185e+00    6.431644e+07    2.452393e-08    2.577565e-09    2.232472e-08   -2.663212e+00
    1.920111e+00    3.888718e+00    5.164620e+00    6.449196e+07    2.447256e-08    2.508283e-09    2.232882e-08   -2.658212e+00
    1.939839e+00    4.009821e+00    5.115020e+00    6.466354e+07    2.442157e-08    2.439926e-09    2.233242e-08   -2.653212e+00
    1.959847e+00    4.137310e+00    5.065395e+00    6.483094e+07    2.437100e-08    2.372531e-09    2.233551e-08   -2.648212e+00
    1.980136e+00    4.271614e+00    5.015745e+00    6.499375e+07    2.432086e-08    2.306130e-09    2.233810e-08   -2.643212e+00
    2.000705e+00    4.413200e+00    4.966078e+00    6.515170e+07    2.427118e-08    2.240757e-09    2.234017e-08   -2.638212e+00
    2.021554e+00    4.562560e+00    4.916392e+00    6.530439e+07    2.422198e-08    2.176441e-09    2.234171e-08   -2.633212e+00
    2.042684e+00    4.720234e+00    4.866692e+00    6.545153e+07    2.417327e-08    2.113212e-09    2.234273e-08   -2.628212e+00
    2.064093e+00    4.886791e+00    4.816982e+00    6.559273e+07    2.412508e-08    2.051094e-09    2.234321e-08   -2.623212e+00
    2.085779e+00    5.062847e+00    4.767267e+00    6.572760e+07    2.407743e-08    1.990112e-09    2.234316e-08   -2.618212e+00
    2.107740e+00    5.249056e+00    4.717549e+00    6.585576e+07    2.403033e-08    1.930288e-09    2.234258e-08   -2.613212e+00
    2.129972e+00    5.446122e+00    4.667834e+00    6.597684e+07    2.398380e-08    1.871639e-09    2.234145e-08   -2.608212e+00
    2.152473e+00    5.654800e+00    4.618127e+00    6.609047e+07    2.393784e-08    1.814186e-09    2.233978e-08   -2.603212e+00
    2.175239e+00    5.875887e+00    4.568432e+00    6.619620e+07    2.389247e-08    1.757939e-09    2.233758e-08   -2.598212e+00
    2.198265e+00    6.110247e+00    4.518755e+00    6.629370e+07    2.384771e-08    1.702913e-09    2.233483e-08   -2.593212e+00
    2.221547e+00    6.358789e+00    4.469099e+00    6.638254e+07    2.380356e-08    1.649116e-09    2.233154e-08   -2.588212e+00
    2.245080e+00    6.622484e+00    4.419473e+00    6.646235e+07    2.376002e-08    1.596556e-09    2.232771e-08   -2.583212e+00
    2.268856e+00    6.902356e+00    4.369881e+00    6.653269e+07    2.371710e-08    1.545238e-09    2.232334e-08   -2.578212e+00
    2.292872e+00    7.199504e+00    4.320329e+00    6.659325e+07    2.367481e-08    1.495165e-09    2.231844e-08   -2.573212e+00
    2.317120e+00    7.515082e+00    4.270824e+00    6.664364e+07    2.363315e-08    1.446337e-09    2.231300e-08   -2.568212e+00
    2.341594e+00    7.850305e+00    4.221371e+00    6.668351e+07    2.359211e-08    1.398753e-09    2.230703e-08   -2.563212e+00
    2.366287e+00    8.206463e+00    4.171979e+00    6.671255e+07    2.355170e-08    1.352408e-09    2.230053e-08   -2.558212e+00
    2.391194e+00    8.584902e+00    4.122653e+00    6.673039e+07    2.351191e-08    1.307297e-09    2.229351e-08   -2.553212e+00
    2.416306e+00    8.987032e+00    4.073400e+00    6.673677e+07    2.347275e-08    1.263412e-09    2.228597e-08   -2.548212e+00
    2.441618e+00    9.414345e+00    4.024229e+00    6.673145e+07    2.343419e-08    1.220744e-09    2.227790e-08   -2.543212e+00
    2.467124e+00    9.868374e+00    3.975147e+00    6.671416e+07    2.339625e-08    1.179281e-09    2.226933e-08   -2.538212e+00
    2.492819e+00    1.035073e+01    3.926159e+00    6.668471e+07    2.335891e-08    1.139011e-09    2.226025e-08   -2.533212e+00
    2.518697e+00    1.086308e+01    3.877277e+00    6.664293e+07    2.332216e-08    1.099919e-09    2.225066e-08   -2.528212e+00
    2.544754e+00    1.140714e+01    3.828505e+00    6.658870e+07    2.328599e-08    1.061989e-09    2.224057e-08   -2.523212e+00
    2.570987e+00    1.198469e+01    3.779854e+00    6.652192e+07    2.325039e-08    1.025204e-09    2.222998e-08   -2.518212e+00
    2.597393e+00    1.259755e+01    3.731329e+00    6.644250e+07    2.321535e-08    9.895460e-10    2.221891e-08   -2.513212e+00
    2.623969e+00    1.324760e+01    3.682939e+00    6.635044e+07    2.318086e-08    9.549965e-10    2.220734e-08   -2.508212e+00
    2.650713e+00    1.393674e+01    3.634692e+00    6.624572e+07    2.314689e-08    9.215345e-10    2.219530e-08   -2.503212e+00
    2.677628e+00    1.466692e+01    3.586596e+00    6.612844e+07    2.311344e-08    8.891390e-10    2.218277e-08   -2.498212e+00
    2.704715e+00    1.544014e+01    3.538659e+00    6.599870e+07    2.308049e-08    8.577880e-10    2.216977e-08   -2.493212e+00
    2.731974e+00    1.625837e+01    3.490888e+00    6.585654e+07    2.304803e-08    8.274600e-10    2.215629e-08   -2.488212e+00
    2.759411e+00    1.712364e+01    3.443291e+00    6.570220e+07    2.301603e-08    7.981315e-10    2.214235e-08   -2.483212e+00
    2.787028e+00    1.803799e+01    3.395876e+00    6.553580e+07    2.298448e-08    7.697790e-10    2.212794e-08   -2.478212e+00
    2.814832e+00    1.900346e+01    3.348650e+00    6.535759e+07    2.295336e-08    7.423795e-10    2.211307e-08   -2.473212e+00
    2.842829e+00    2.002209e+01    3.301620e+00    6.516780e+07    2.292265e-08    7.159080e-10    2.209774e-08   -2.468212e+00
    2.871028e+00    2.109592e+01    3.254793e+00    6.496668e+07    2.289234e-08    6.903420e-10    2.208195e-08   -2.463212e+00
    2.899438e+00    2.222699e+01    3.208176e+00    6.475452e+07    2.286240e-08    6.656560e-10    2.206570e-08   -2.458212e+00
    2.928067e+00    2.341732e+01    3.161776e+00    6.453161e+07    2.283283e-08    6.418260e-10    2.204900e-08   -2.453212e+00
    2.956926e+00    2.466890e+01    3.115599e+00    6.429825e+07    2.280358e-08    6.188285e-10    2.203185e-08   -2.448212e+00
    2.986026e+00    2.598371e+01    3.069652e+00    6.405472e+07    2.277465e-08    5.966395e-10    2.201424e-08   -2.443212e+00
    3.015380e+00    2.736371e+01    3.023941e+00    6.380139e+07    2.274601e-08    5.752345e-10    2.199618e-08   -2.438212e+00
    3.045001e+00    2.881084e+01    2.978471e+00    6.353856e+07    2.271766e-08    5.545900e-10    2.197768e-08   -2.433212e+00
    3.074904e+00    3.032701e+01    2.933248e+00    6.326661e+07    2.268955e-08    5.346830e-10    2.195872e-08   -2.428212e+00
    3.105100e+00    3.191407e+01    2.888278e+00    6.298577e+07    2.266169e-08    5.154900e-10    2.193931e-08   -2.423212e+00
    3.135604e+00    3.357387e+01    2.843565e+00    6.269641e+07    2.263403e-08    4.969889e-10    2.191944e-08   -2.418212e+00
    3.166433e+00    3.530824e+01    2.799117e+00    6.239887e+07    2.260657e-08    4.791567e-10    2.189912e-08   -2.413212e+00
    3.197604e+00    3.711897e+01    2.754935e+00    6.209348e+07    2.257928e-08    4.619717e-10    2.187834e-08   -2.408212e+00
    3.229130e+00    3.900778e+01    2.711026e+00    6.178051e+07    2.255215e-08    4.454125e-10    2.185709e-08   -2.403212e+00
    3.261027e+00    4.097641e+01    2.667394e+00    6.146023e+07    2.252515e-08    4.294579e-10    2.183539e-08   -2.398212e+00
    3.293315e+00    4.302655e+01    2.624043e+00    6.113297e+07    2.249826e-08    4.140874e-10    2.181321e-08   -2.393212e+00
    3.326009e+00    4.515990e+01    2.580978e+00    6.079902e+07    2.247146e-08    3.992807e-10    2.179057e-08   -2.388212e+00
    3.359128e+00    4.737809e+01    2.538200e+00    6.045863e+07    2.244473e-08    3.850184e-10    2.176744e-08   -2.383212e+00
    3.392688e+00    4.968278e+01    2.495717e+00    6.011206e+07    2.241805e-08    3.712811e-10    2.174384e-08   -2.378212e+00
    3.426710e+00    5.207557e+01    2.453530e+00    5.975958e+07    2.239140e-08    3.580505e-10    2.171975e-08   -2.373212e+00
    3.461209e+00    5.455808e+01    2.411643e+00    5.940139e+07    2.236476e-08    3.453083e-10    2.169517e-08   -2.368212e+00
    3.496206e+00    5.713191e+01    2.370059e+00    5.903775e+07    2.233812e-08    3.330370e-10    2.167008e-08   -2.363212e+00
    3.531720e+00    5.979865e+01    2.328782e+00    5.866885e+07    2.231144e-08    3.212195e-10    2.164449e-08   -2.358212e+00
    3.567770e+00    6.255991e+01    2.287814e+00    5.829493e+07    2.228471e-08    3.098391e-10    2.161839e-08   -2.353212e+00
    3.604376e+00    6.541728e+01    2.247159e+00    5.791614e+07    2.225791e-08    2.988801e-10    2.159177e-08   -2.348212e+00
    3.641558e+00    6.837240e+01    2.206819e+00    5.753268e+07    2.223103e-08    2.883266e-10    2.156461e-08   -2.343212e+00
    3.679336e+00    7.142684e+01    2.166797e+00    5.714472e+07    2.220403e-08    2.781638e-10    2.153691e-08   -2.338212e+00
    3.717731e+00    7.458228e+01    2.127096e+00    5.675242e+07    2.217690e-08    2.683771e-10    2.150867e-08   -2.333212e+00
    3.756767e+00    7.784044e+01    2.087718e+00    5.635598e+07    2.214961e-08    2.589523e-10    2.147987e-08   -2.328212e+00
    3.796461e+00    8.120287e+01    2.048666e+00    5.595546e+07    2.212217e-08    2.498758e-10    2.145050e-08   -2.323212e+00
    3.836837e+00    8.467135e+01    2.009942e+00    5.555105e+07    2.209453e-08    2.411348e-10    2.142055e-08   -2.318212e+00
    3.877921e+00    8.824778e+01    1.971548e+00    5.514290e+07    2.206668e-08    2.327163e-10    2.139000e-08   -2.313212e+00
    3.919730e+00    9.193367e+01    1.933488e+00    5.473103e+07    2.203860e-08    2.246082e-10    2.135886e-08   -2.308212e+00
    3.962293e+00    9.573110e+01    1.895762e+00    5.431566e+07    2.201028e-08    2.167986e-10    2.132710e-08   -2.303212e+00
    4.005633e+00    9.964193e+01    1.858373e+00    5.389684e+07    2.198168e-08    2.092764e-10    2.129471e-08   -2.298212e+00
    4.049773e+00    1.036680e+02    1.821323e+00    5.347467e+07    2.195279e-08    2.020304e-10    2.126168e-08   -2.293212e+00
    4.094737e+00    1.078112e+02    1.784614e+00    5.304918e+07    2.192360e-08    1.950502e-10    2.122799e-08   -2.288212e+00
    4.140556e+00    1.120738e+02    1.748249e+00    5.262055e+07    2.189407e-08    1.883256e-10    2.119364e-08   -2.283212e+00
    4.187253e+00    1.164579e+02    1.712228e+00    5.218880e+07    2.186420e-08    1.818469e-10    2.115859e-08   -2.278212e+00
    4.234857e+00    1.209655e+02    1.676554e+00    5.175401e+07    2.183395e-08    1.756045e-10    2.112285e-08   -2.273212e+00
    4.283392e+00    1.255988e+02    1.641229e+00    5.131620e+07    2.180332e-08    1.695895e-10    2.108638e-08   -2.268212e+00
    4.332892e+00    1.303605e+02    1.606254e+00    5.087548e+07    2.177227e-08    1.637932e-10    2.104919e-08   -2.263212e+00
    4.383383e+00    1.352526e+02    1.571632e+00    5.043187e+07    2.174079e-08    1.582071e-10    2.101124e-08   -2.258212e+00
    4.434900e+00    1.402778e+02    1.537364e+00    4.998545e+07    2.170886e-08    1.528233e-10    2.097253e-08   -2.253212e+00
    4.487466e+00    1.454385e+02    1.503452e+00    4.953619e+07    2.167646e-08    1.476340e-10    2.093302e-08   -2.248212e+00
    4.541119e+00    1.507373e+02    1.469898e+00    4.908416e+07    2.164356e-08    1.426317e-10    2.089272e-08   -2.243212e+00
    4.595892e+00    1.561771e+02    1.436702e+00    4.862941e+07    2.161015e-08    1.378093e-10    2.085159e-08   -2.238212e+00
    4.651812e+00    1.617605e+02    1.403869e+00    4.817192e+07    2.157620e-08    1.331600e-10    2.080961e-08   -2.233212e+00
    4.708921e+00    1.674904e+02    1.371398e+00    4.771173e+07    2.154170e-08    1.286770e-10    2.076678e-08   -2.228212e+00
    4.767252e+00    1.733699e+02    1.339291e+00    4.724887e+07    2.150661e-08    1.243542e-10    2.072306e-08   -2.223212e+00
    4.826840e+00    1.794019e+02    1.307551e+00    4.678331e+07    2.147093e-08    1.201853e-10    2.067844e-08   -2.218212e+00
    4.887725e+00    1.855897e+02    1.276179e+00    4.631511e+07    2.143461e-08    1.161645e-10    2.063288e-08   -2.213212e+00
    4.949941e+00    1.919364e+02    1.245175e+00    4.584420e+07    2.139766e-08    1.122862e-10    2.058639e-08   -2.208212e+00
    5.013530e+00    1.984453e+02    1.214543e+00    4.537062e+07    2.136004e-08    1.085451e-10    2.053892e-08   -2.203212e+00
    5.078531e+00    2.051198e+02    1.184284e+00    4.489436e+07    2.132173e-08    1.049358e-10    2.049045e-08   -2.198212e+00
    5.144984e+00    2.119634e+02    1.154400e+00    4.441540e+07    2.128271e-08    1.014534e-10    2.044097e-08   -2.193212e+00
    5.212934e+00    2.189797e+02    1.124892e+00    4.393373e+07    2.124296e-08    9.809325e-11    2.039045e-08   -2.188212e+00
    5.282423e+00    2.261722e+02    1.095761e+00    4.344933e+07    2.120244e-08    9.485060e-11    2.033886e-08   -2.183212e+00
    5.353490e+00    2.335447e+02    1.067010e+00    4.296218e+07    2.116114e-08    9.172110e-11    2.028618e-08   -2.178212e+00
    5.426188e+00    2.411009e+02    1.038639e+00    4.247224e+07    2.111905e-08    8.870045e-11    2.023238e-08   -2.173212e+00
    5.500556e+00    2.488447e+02    1.010652e+00    4.197952e+07    2.107612e-08    8.578465e-11    2.017745e-08   -2.168212e+00
    5.576645e+00    2.567798e+02    9.830480e-01    4.148396e+07    2.103235e-08    8.296980e-11    2.012135e-08   -2.163212e+00
    5.654499e+00    2.649103e+02    9.558310e-01    4.098553e+07    2.098770e-08    8.025205e-11    2.006406e-08   -2.158212e+00
    5.734170e+00    2.732401e+02    9.290010e-01    4.048422e+07    2.094214e-08    7.762790e-11    2.000554e-08   -2.153212e+00
    5.815696e+00    2.817727e+02    9.025610e-01    3.997993e+07    2.089567e-08    7.509385e-11    1.994578e-08   -2.148212e+00
    5.899141e+00    2.905127e+02    8.765115e-01    3.947270e+07    2.084826e-08    7.264655e-11    1.988474e-08   -2.143212e+00
    5.984545e+00    2.994639e+02    8.508550e-01    3.896245e+07    2.079987e-08    7.028280e-11    1.982240e-08   -2.138212e+00
    6.071970e+00    3.086301e+02    8.255920e-01    3.844918e+07    2.075048e-08    6.799960e-11    1.975874e-08   -2.133212e+00
    6.161447e+00    3.180148e+02    8.007255e-01    3.793276e+07    2.070008e-08    6.579395e-11    1.969371e-08   -2.128212e+00
    6.253039e+00    3.276222e+02    7.762565e-01    3.741323e+07    2.064863e-08    6.366300e-11    1.962729e-08   -2.123212e+00
    6.346795e+00    3.374558e+02    7.521865e-01    3.689052e+07    2.059612e-08    6.160405e-11    1.955946e-08   -2.118212e+00
    6.442763e+00    3.475192e+02    7.285175e-01    3.636459e+07    2.054251e-08    5.961455e-11    1.949019e-08   -2.113212e+00
    6.540997e+00    3.578158e+02    7.052505e-01    3.583541e+07    2.048779e-08    5.769190e-11    1.941944e-08   -2.108212e+00
    6.641542e+00    3.683487e+02    6.823875e-01    3.530293e+07    2.043193e-08    5.583370e-11    1.934719e-08   -2.103212e+00
    6.744448e+00    3.791208e+02    6.599300e-01    3.476713e+07    2.037491e-08    5.403770e-11    1.927340e-08   -2.098212e+00
    6.849760e+00    3.901351e+02    6.378795e-01    3.422797e+07    2.031669e-08    5.230155e-11    1.919806e-08   -2.093212e+00
    6.957529e+00    4.013935e+02    6.162370e-01    3.368543e+07    2.025727e-08    5.062325e-11    1.912113e-08   -2.088212e+00
    7.067788e+00    4.128981e+02    5.950050e-01    3.313949e+07    2.019661e-08    4.900063e-11    1.904258e-08   -2.083212e+00
    7.180587e+00    4.246507e+02    5.741840e-01    3.259015e+07    2.013469e-08    4.743177e-11    1.896238e-08   -2.078212e+00
    7.295962e+00    4.366522e+02    5.537755e-01    3.203738e+07    2.007148e-08    4.591474e-11    1.888051e-08   -2.073212e+00
    7.413946e+00    4.489030e+02    5.337810e-01    3.148120e+07    2.000698e-08    4.444771e-11    1.879694e-08   -2.068212e+00
    7.534573e+00    4.614031e+02    5.142015e-01    3.092160e+07    1.994114e-08    4.302894e-11    1.871163e-08   -2.063212e+00
    7.657862e+00    4.741516e+02    4.950386e-01    3.035864e+07    1.987396e-08    4.165672e-11    1.862457e-08   -2.058212e+00
    7.783846e+00    4.871473e+02    4.762927e-01    2.979232e+07    1.980541e-08    4.032942e-11    1.853572e-08   -2.053212e+00
    7.912535e+00    5.003875e+02    4.579650e-01    2.922271e+07    1.973547e-08    3.904549e-11    1.844506e-08   -2.048212e+00
    8.043941e+00    5.138690e+02    4.400562e-01    2.864988e+07    1.966412e-08    3.780341e-11    1.835256e-08   -2.043212e+00
    8.178065e+00    5.275872e+02    4.225673e-01    2.807389e+07    1.959134e-08    3.660174e-11    1.825820e-08   -2.038212e+00
    8.314905e+00    5.415370e+02    4.054986e-01    2.749486e+07    1.951710e-08    3.543908e-11    1.816195e-08   -2.033212e+00
    8.454446e+00    5.557119e+02    3.888506e-01    2.691290e+07    1.944140e-08    3.431408e-11    1.806379e-08   -2.028212e+00
    8.596665e+00    5.701033e+02    3.726235e-01    2.632815e+07    1.936422e-08    3.322546e-11    1.796370e-08   -2.023212e+00
    8.741529e+00    5.847023e+02    3.568174e-01    2.574079e+07    1.928554e-08    3.217198e-11    1.786166e-08   -2.018212e+00
    8.888993e+00    5.994984e+02    3.414321e-01    2.515099e+07    1.920534e-08    3.115243e-11    1.775763e-08   -2.013212e+00
    9.038999e+00    6.144782e+02    3.264674e-01    2.455899e+07    1.912360e-08    3.016567e-11    1.765162e-08   -2.008212e+00
    9.191477e+00    6.296283e+02    3.119225e-01    2.396501e+07    1.904034e-08    2.921057e-11    1.754359e-08   -2.003212e+00
    9.346343e+00    6.449326e+02    2.977967e-01    2.336934e+07    1.895551e-08    2.828609e-11    1.743353e-08   -1.998212e+00
    9.503495e+00    6.603733e+02    2.840890e-01    2.277227e+07    1.886912e-08    2.739117e-11    1.732143e-08   -1.993212e+00
    9.662820e+00    6.759309e+02    2.707979e-01    2.217415e+07    1.878115e-08    2.652484e-11    1.720728e-08   -1.988212e+00
    9.824183e+00    6.915835e+02    2.579217e-01    2.157535e+07    1.869160e-08    2.568613e-11    1.709105e-08   -1.983212e+00
    9.987432e+00    7.073075e+02    2.454585e-01    2.097626e+07    1.860047e-08    2.487413e-11    1.697275e-08   -1.978212e+00
    1.015240e+01    7.230773e+02    2.334059e-01    2.037733e+07    1.850774e-08    2.408795e-11    1.685236e-08   -1.973212e+00
    1.031889e+01    7.388649e+02    2.217612e-01    1.977901e+07    1.841341e-08    2.332674e-11    1.672987e-08   -1.968212e+00
