# sky130 pfet_01v8 gm/ID Processed Lookup Table
# Corner: ff
# Temperature: 75C
# W = 2.0 um
# L = 1.26 um (1260 nm)
# Columns: gm/id [1/V]  gm/gds [V/V]  id/W [A/m]  ft [Hz]  Cgg/W [F/m]  Cgd/W [F/m]  Cgs/W [F/m]  Vov [V]
#         gm/id          gm/gds            id/W              ft           Cgg/W           Cgd/W           Cgs/W             Vov
    1.547531e+00    2.151861e+00    1.802582e+01    5.325131e+08    8.337275e-09    1.002751e-09    7.402620e-09   -2.700015e+00
    1.562702e+00    2.196228e+00    1.788621e+01    5.345735e+08    8.321605e-09    9.795350e-10    7.406670e-09   -2.695015e+00
    1.578099e+00    2.242208e+00    1.774632e+01    5.366251e+08    8.305995e-09    9.565145e-10    7.438195e-09   -2.690015e+00
    1.593726e+00    2.289885e+00    1.760616e+01    5.386668e+08    8.290450e-09    9.337025e-10    7.441225e-09   -2.685015e+00
    1.609586e+00    2.339348e+00    1.746572e+01    5.406969e+08    8.274985e-09    9.111110e-10    7.444120e-09   -2.680015e+00
    1.625685e+00    2.390691e+00    1.732503e+01    5.427146e+08    8.259600e-09    8.887515e-10    7.446870e-09   -2.675015e+00
    1.642026e+00    2.444017e+00    1.718407e+01    5.447183e+08    8.244310e-09    8.666360e-10    7.449480e-09   -2.670015e+00
    1.658613e+00    2.499433e+00    1.704286e+01    5.467070e+08    8.229115e-09    8.447755e-10    7.451940e-09   -2.665015e+00
    1.675451e+00    2.557055e+00    1.690140e+01    5.486792e+08    8.214025e-09    8.231805e-10    7.454250e-09   -2.660015e+00
    1.692544e+00    2.617005e+00    1.675969e+01    5.506336e+08    8.199045e-09    8.018615e-10    7.456410e-09   -2.655015e+00
    1.709895e+00    2.679416e+00    1.661774e+01    5.525685e+08    8.184185e-09    7.808285e-10    7.458415e-09   -2.650015e+00
    1.727510e+00    2.744424e+00    1.647555e+01    5.544823e+08    8.169450e-09    7.600910e-10    7.460260e-09   -2.645015e+00
    1.745392e+00    2.812184e+00    1.633312e+01    5.563741e+08    8.154840e-09    7.396585e-10    7.461950e-09   -2.640015e+00
    1.763545e+00    2.882852e+00    1.619047e+01    5.582409e+08    8.140375e-09    7.195390e-10    7.463480e-09   -2.635015e+00
    1.781973e+00    2.956600e+00    1.604760e+01    5.600826e+08    8.126045e-09    6.997400e-10    7.464845e-09   -2.630015e+00
    1.800679e+00    3.033613e+00    1.590451e+01    5.618962e+08    8.111865e-09    6.802695e-10    7.466050e-09   -2.625015e+00
    1.819669e+00    3.114082e+00    1.576121e+01    5.636806e+08    8.097835e-09    6.611340e-10    7.467090e-09   -2.620015e+00
    1.838943e+00    3.198219e+00    1.561771e+01    5.654337e+08    8.083960e-09    6.423400e-10    7.467965e-09   -2.615015e+00
    1.858508e+00    3.286246e+00    1.547401e+01    5.671535e+08    8.070245e-09    6.238925e-10    7.468670e-09   -2.610015e+00
    1.878364e+00    3.378403e+00    1.533013e+01    5.688380e+08    8.056695e-09    6.057970e-10    7.469210e-09   -2.605015e+00
    1.898514e+00    3.474947e+00    1.518606e+01    5.704852e+08    8.043310e-09    5.880575e-10    7.469585e-09   -2.600015e+00
    1.918963e+00    3.576145e+00    1.504182e+01    5.720927e+08    8.030095e-09    5.706775e-10    7.469790e-09   -2.595015e+00
    1.939711e+00    3.682295e+00    1.489742e+01    5.736582e+08    8.017055e-09    5.536600e-10    7.469830e-09   -2.590015e+00
    1.960761e+00    3.793704e+00    1.475286e+01    5.751795e+08    8.004190e-09    5.370075e-10    7.469700e-09   -2.585015e+00
    1.982113e+00    3.910707e+00    1.460815e+01    5.766547e+08    7.991495e-09    5.207220e-10    7.469405e-09   -2.580015e+00
    2.003770e+00    4.033661e+00    1.446331e+01    5.780801e+08    7.978985e-09    5.048045e-10    7.468945e-09   -2.575015e+00
    2.025732e+00    4.162937e+00    1.431834e+01    5.794541e+08    7.966650e-09    4.892555e-10    7.468315e-09   -2.570015e+00
    2.047998e+00    4.298947e+00    1.417326e+01    5.807740e+08    7.954490e-09    4.740749e-10    7.467525e-09   -2.565015e+00
    2.070569e+00    4.442113e+00    1.402808e+01    5.820363e+08    7.942515e-09    4.592623e-10    7.466565e-09   -2.560015e+00
    2.093445e+00    4.592897e+00    1.388281e+01    5.832390e+08    7.930715e-09    4.448163e-10    7.465445e-09   -2.555015e+00
    2.116623e+00    4.751774e+00    1.373746e+01    5.843786e+08    7.919095e-09    4.307354e-10    7.464165e-09   -2.550015e+00
    2.140102e+00    4.919269e+00    1.359204e+01    5.854527e+08    7.907650e-09    4.170173e-10    7.462720e-09   -2.545015e+00
    2.163879e+00    5.095916e+00    1.344657e+01    5.864575e+08    7.896385e-09    4.036595e-10    7.461120e-09   -2.540015e+00
    2.187952e+00    5.282291e+00    1.330108e+01    5.873907e+08    7.885290e-09    3.906586e-10    7.459355e-09   -2.535015e+00
    2.212317e+00    5.478996e+00    1.315556e+01    5.882487e+08    7.874370e-09    3.780112e-10    7.457440e-09   -2.530015e+00
    2.236969e+00    5.686668e+00    1.301004e+01    5.890284e+08    7.863620e-09    3.657134e-10    7.455365e-09   -2.525015e+00
    2.261905e+00    5.905972e+00    1.286454e+01    5.897270e+08    7.853035e-09    3.537606e-10    7.453135e-09   -2.520015e+00
    2.287119e+00    6.137606e+00    1.271906e+01    5.903412e+08    7.842615e-09    3.421484e-10    7.450755e-09   -2.515015e+00
    2.312606e+00    6.382294e+00    1.257364e+01    5.908679e+08    7.832355e-09    3.308718e-10    7.448225e-09   -2.510015e+00
    2.338359e+00    6.640790e+00    1.242829e+01    5.913039e+08    7.822255e-09    3.199253e-10    7.445545e-09   -2.505015e+00
    2.364373e+00    6.913876e+00    1.228303e+01    5.916463e+08    7.812310e-09    3.093035e-10    7.442715e-09   -2.500015e+00
    2.390642e+00    7.202356e+00    1.213788e+01    5.918921e+08    7.802520e-09    2.990005e-10    7.439740e-09   -2.495015e+00
    2.417158e+00    7.507057e+00    1.199287e+01    5.920394e+08    7.792870e-09    2.890105e-10    7.436615e-09   -2.490015e+00
    2.443915e+00    7.828823e+00    1.184800e+01    5.920849e+08    7.783365e-09    2.793271e-10    7.433350e-09   -2.485015e+00
    2.470908e+00    8.168514e+00    1.170331e+01    5.920263e+08    7.774000e-09    2.699442e-10    7.429945e-09   -2.480015e+00
    2.498129e+00    8.527000e+00    1.155883e+01    5.918621e+08    7.764765e-09    2.608551e-10    7.426395e-09   -2.475015e+00
    2.525572e+00    8.905155e+00    1.141457e+01    5.915898e+08    7.755660e-09    2.520534e-10    7.422705e-09   -2.470015e+00
    2.553234e+00    9.303856e+00    1.127056e+01    5.912077e+08    7.746685e-09    2.435325e-10    7.418880e-09   -2.465015e+00
    2.581107e+00    9.723969e+00    1.112682e+01    5.907151e+08    7.737825e-09    2.352856e-10    7.414915e-09   -2.460015e+00
    2.609189e+00    1.016636e+01    1.098337e+01    5.901107e+08    7.729080e-09    2.273060e-10    7.410815e-09   -2.455015e+00
    2.637477e+00    1.063187e+01    1.084024e+01    5.893938e+08    7.720445e-09    2.195869e-10    7.406575e-09   -2.450015e+00
    2.665966e+00    1.112131e+01    1.069747e+01    5.885639e+08    7.711915e-09    2.121215e-10    7.402205e-09   -2.445015e+00
    2.694659e+00    1.163548e+01    1.055506e+01    5.876212e+08    7.703485e-09    2.049031e-10    7.397695e-09   -2.440015e+00
    2.723551e+00    1.217515e+01    1.041306e+01    5.865661e+08    7.695145e-09    1.979250e-10    7.393055e-09   -2.435015e+00
    2.752646e+00    1.274102e+01    1.027147e+01    5.853986e+08    7.686900e-09    1.911804e-10    7.388285e-09   -2.430015e+00
    2.781944e+00    1.333377e+01    1.013033e+01    5.841202e+08    7.678735e-09    1.846627e-10    7.383380e-09   -2.425015e+00
    2.811449e+00    1.395403e+01    9.989655e+00    5.827318e+08    7.670650e-09    1.783653e-10    7.378340e-09   -2.420015e+00
    2.841167e+00    1.460238e+01    9.849480e+00    5.812350e+08    7.662640e-09    1.722818e-10    7.373170e-09   -2.415015e+00
    2.871102e+00    1.527935e+01    9.709820e+00    5.796315e+08    7.654695e-09    1.664058e-10    7.367870e-09   -2.410015e+00
    2.901260e+00    1.598540e+01    9.570705e+00    5.779236e+08    7.646810e-09    1.607309e-10    7.362435e-09   -2.405015e+00
    2.931649e+00    1.672094e+01    9.432160e+00    5.761129e+08    7.638985e-09    1.552509e-10    7.356865e-09   -2.400015e+00
    2.962281e+00    1.748634e+01    9.294195e+00    5.742021e+08    7.631210e-09    1.499597e-10    7.351165e-09   -2.395015e+00
    2.993163e+00    1.828190e+01    9.156845e+00    5.721937e+08    7.623480e-09    1.448515e-10    7.345335e-09   -2.390015e+00
    3.024307e+00    1.910788e+01    9.020125e+00    5.700899e+08    7.615795e-09    1.399202e-10    7.339370e-09   -2.385015e+00
    3.055726e+00    1.996447e+01    8.884055e+00    5.678940e+08    7.608140e-09    1.351601e-10    7.333270e-09   -2.380015e+00
    3.087432e+00    2.085185e+01    8.748660e+00    5.656087e+08    7.600515e-09    1.305658e-10    7.327035e-09   -2.375015e+00
    3.119439e+00    2.177012e+01    8.613955e+00    5.632364e+08    7.592915e-09    1.261316e-10    7.320660e-09   -2.370015e+00
    3.151762e+00    2.271937e+01    8.479960e+00    5.607801e+08    7.585335e-09    1.218523e-10    7.314150e-09   -2.365015e+00
    3.184417e+00    2.369964e+01    8.346690e+00    5.582425e+08    7.577770e-09    1.177226e-10    7.307505e-09   -2.360015e+00
    3.217417e+00    2.471097e+01    8.214170e+00    5.556269e+08    7.570210e-09    1.137375e-10    7.300715e-09   -2.355015e+00
    3.250782e+00    2.575337e+01    8.082410e+00    5.529356e+08    7.562655e-09    1.098920e-10    7.293790e-09   -2.350015e+00
    3.284524e+00    2.682680e+01    7.951435e+00    5.501716e+08    7.555095e-09    1.061814e-10    7.286715e-09   -2.345015e+00
    3.318666e+00    2.793125e+01    7.821250e+00    5.473377e+08    7.547525e-09    1.026010e-10    7.279500e-09   -2.340015e+00
    3.353222e+00    2.906671e+01    7.691880e+00    5.444359e+08    7.539945e-09    9.914620e-11    7.272135e-09   -2.335015e+00
    3.388214e+00    3.023315e+01    7.563330e+00    5.414693e+08    7.532345e-09    9.581270e-11    7.264620e-09   -2.330015e+00
    3.423658e+00    3.143055e+01    7.435620e+00    5.384400e+08    7.524720e-09    9.259625e-11    7.256955e-09   -2.325015e+00
    3.459573e+00    3.265892e+01    7.308765e+00    5.353503e+08    7.517070e-09    8.949265e-11    7.249140e-09   -2.320015e+00
    3.495979e+00    3.391827e+01    7.182775e+00    5.322028e+08    7.509380e-09    8.649800e-11    7.241165e-09   -2.315015e+00
    3.532898e+00    3.520861e+01    7.057660e+00    5.289994e+08    7.501650e-09    8.360835e-11    7.233030e-09   -2.310015e+00
    3.570349e+00    3.653002e+01    6.933435e+00    5.257422e+08    7.493875e-09    8.082005e-11    7.224735e-09   -2.305015e+00
    3.608352e+00    3.788258e+01    6.810115e+00    5.224335e+08    7.486045e-09    7.812935e-11    7.216275e-09   -2.300015e+00
    3.646925e+00    3.926637e+01    6.687710e+00    5.190742e+08    7.478165e-09    7.553285e-11    7.207645e-09   -2.295015e+00
    3.686097e+00    4.068161e+01    6.566225e+00    5.156673e+08    7.470215e-09    7.302710e-11    7.198845e-09   -2.290015e+00
    3.725885e+00    4.212844e+01    6.445675e+00    5.122136e+08    7.462200e-09    7.060890e-11    7.189870e-09   -2.285015e+00
    3.766311e+00    4.360704e+01    6.326070e+00    5.087147e+08    7.454115e-09    6.827500e-11    7.180720e-09   -2.280015e+00
    3.807403e+00    4.511777e+01    6.207415e+00    5.051724e+08    7.445950e-09    6.602245e-11    7.171385e-09   -2.275015e+00
    3.849175e+00    4.666082e+01    6.089730e+00    5.015883e+08    7.437695e-09    6.384830e-11    7.161865e-09   -2.270015e+00
    3.891658e+00    4.823659e+01    5.973015e+00    4.979632e+08    7.429355e-09    6.174960e-11    7.152150e-09   -2.265015e+00
    3.934872e+00    4.984546e+01    5.857285e+00    4.942985e+08    7.420920e-09    5.972375e-11    7.142245e-09   -2.260015e+00
    3.978846e+00    5.148785e+01    5.742540e+00    4.905956e+08    7.412380e-09    5.776805e-11    7.132140e-09   -2.255015e+00
    4.023601e+00    5.316426e+01    5.628800e+00    4.868554e+08    7.403735e-09    5.587995e-11    7.121835e-09   -2.250015e+00
    4.069165e+00    5.487516e+01    5.516065e+00    4.830790e+08    7.394975e-09    5.405700e-11    7.111315e-09   -2.245015e+00
    4.115565e+00    5.662116e+01    5.404345e+00    4.792673e+08    7.386095e-09    5.229680e-11    7.100585e-09   -2.240015e+00
    4.162826e+00    5.840283e+01    5.293650e+00    4.754212e+08    7.377090e-09    5.059715e-11    7.089640e-09   -2.235015e+00
    4.210982e+00    6.022085e+01    5.183980e+00    4.715411e+08    7.367960e-09    4.895580e-11    7.078465e-09   -2.230015e+00
    4.260050e+00    6.207590e+01    5.075355e+00    4.676286e+08    7.358685e-09    4.737064e-11    7.067065e-09   -2.225015e+00
    4.310069e+00    6.396874e+01    4.967771e+00    4.636837e+08    7.349270e-09    4.583964e-11    7.055435e-09   -2.220015e+00
    4.361067e+00    6.590018e+01    4.861242e+00    4.597071e+08    7.339710e-09    4.436083e-11    7.043560e-09   -2.215015e+00
    4.413072e+00    6.787103e+01    4.755772e+00    4.556998e+08    7.329990e-09    4.293234e-11    7.031435e-09   -2.210015e+00
    4.466118e+00    6.988219e+01    4.651369e+00    4.516622e+08    7.320105e-09    4.155233e-11    7.019065e-09   -2.205015e+00
    4.520237e+00    7.193460e+01    4.548038e+00    4.475942e+08    7.310060e-09    4.021906e-11    7.006435e-09   -2.200015e+00
    4.575461e+00    7.402920e+01    4.445788e+00    4.434970e+08    7.299835e-09    3.893084e-11    6.993535e-09   -2.195015e+00
    4.631825e+00    7.616707e+01    4.344626e+00    4.393707e+08    7.289430e-09    3.768604e-11    6.980370e-09   -2.190015e+00
    4.689365e+00    7.834926e+01    4.244555e+00    4.352157e+08    7.278835e-09    3.648312e-11    6.966920e-09   -2.185015e+00
    4.748116e+00    8.057688e+01    4.145585e+00    4.310322e+08    7.268045e-09    3.532055e-11    6.953190e-09   -2.180015e+00
    4.808117e+00    8.285110e+01    4.047720e+00    4.268204e+08    7.257055e-09    3.419689e-11    6.939165e-09   -2.175015e+00
    4.869402e+00    8.517311e+01    3.950968e+00    4.225806e+08    7.245855e-09    3.311076e-11    6.924840e-09   -2.170015e+00
    4.932014e+00    8.754420e+01    3.855334e+00    4.183131e+08    7.234440e-09    3.206080e-11    6.910210e-09   -2.165015e+00
    4.995992e+00    8.996562e+01    3.760824e+00    4.140177e+08    7.222805e-09    3.104573e-11    6.895260e-09   -2.160015e+00
    5.061376e+00    9.243877e+01    3.667446e+00    4.096949e+08    7.210940e-09    3.006432e-11    6.879995e-09   -2.155015e+00
    5.128210e+00    9.496500e+01    3.575203e+00    4.053446e+08    7.198835e-09    2.911534e-11    6.864390e-09   -2.150015e+00
    5.196533e+00    9.754574e+01    3.484103e+00    4.009665e+08    7.186490e-09    2.819769e-11    6.848455e-09   -2.145015e+00
    5.266396e+00    1.001825e+02    3.394153e+00    3.965612e+08    7.173890e-09    2.731021e-11    6.832165e-09   -2.140015e+00
    5.337838e+00    1.028767e+02    3.305356e+00    3.921284e+08    7.161030e-09    2.645187e-11    6.815525e-09   -2.135015e+00
    5.410909e+00    1.056300e+02    3.217720e+00    3.876679e+08    7.147905e-09    2.562165e-11    6.798515e-09   -2.130015e+00
    5.485656e+00    1.084439e+02    3.131250e+00    3.831798e+08    7.134505e-09    2.481853e-11    6.781135e-09   -2.125015e+00
    5.562126e+00    1.113201e+02    3.045952e+00    3.786640e+08    7.120820e-09    2.404158e-11    6.763370e-09   -2.120015e+00
    5.640371e+00    1.142602e+02    2.961832e+00    3.741204e+08    7.106845e-09    2.328989e-11    6.745215e-09   -2.115015e+00
    5.720437e+00    1.172660e+02    2.878896e+00    3.695484e+08    7.092575e-09    2.256257e-11    6.726660e-09   -2.110015e+00
    5.802377e+00    1.203390e+02    2.797149e+00    3.649483e+08    7.077995e-09    2.185878e-11    6.707690e-09   -2.105015e+00
    5.886242e+00    1.234811e+02    2.716597e+00    3.603195e+08    7.063105e-09    2.117770e-11    6.688305e-09   -2.100015e+00
    5.972088e+00    1.266940e+02    2.637245e+00    3.556622e+08    7.047890e-09    2.051855e-11    6.668490e-09   -2.095015e+00
    6.059964e+00    1.299795e+02    2.559100e+00    3.509761e+08    7.032340e-09    1.988056e-11    6.648230e-09   -2.090015e+00
    6.149926e+00    1.333393e+02    2.482167e+00    3.462607e+08    7.016455e-09    1.926302e-11    6.627525e-09   -2.085015e+00
    6.242029e+00    1.367754e+02    2.406450e+00    3.415157e+08    7.000225e-09    1.866523e-11    6.606360e-09   -2.080015e+00
    6.336324e+00    1.402893e+02    2.331957e+00    3.367414e+08    6.983635e-09    1.808650e-11    6.584725e-09   -2.075015e+00
    6.432868e+00    1.438830e+02    2.258692e+00    3.319369e+08    6.966685e-09    1.752619e-11    6.562610e-09   -2.070015e+00
    6.531713e+00    1.475580e+02    2.186660e+00    3.271023e+08    6.949360e-09    1.698367e-11    6.540005e-09   -2.065015e+00
    6.632915e+00    1.513163e+02    2.115867e+00    3.222374e+08    6.931655e-09    1.645834e-11    6.516900e-09   -2.060015e+00
    6.736526e+00    1.551594e+02    2.046318e+00    3.173420e+08    6.913560e-09    1.594962e-11    6.493285e-09   -2.055015e+00
    6.842597e+00    1.590889e+02    1.978018e+00    3.124158e+08    6.895065e-09    1.545695e-11    6.469145e-09   -2.050015e+00
    6.951182e+00    1.631064e+02    1.910972e+00    3.074585e+08    6.876170e-09    1.497979e-11    6.444475e-09   -2.045015e+00
    7.062332e+00    1.672134e+02    1.845185e+00    3.024705e+08    6.856855e-09    1.451762e-11    6.419265e-09   -2.040015e+00
    7.176087e+00    1.714111e+02    1.780661e+00    2.974512e+08    6.837120e-09    1.406995e-11    6.393500e-09   -2.035015e+00
    7.292501e+00    1.757010e+02    1.717404e+00    2.924011e+08    6.816950e-09    1.363628e-11    6.367170e-09   -2.030015e+00
    7.411612e+00    1.800840e+02    1.655420e+00    2.873198e+08    6.796345e-09    1.321615e-11    6.340270e-09   -2.025015e+00
    7.533461e+00    1.845612e+02    1.594712e+00    2.822078e+08    6.775290e-09    1.280912e-11    6.312780e-09   -2.020015e+00
    7.658082e+00    1.891333e+02    1.535284e+00    2.770652e+08    6.753780e-09    1.241476e-11    6.284700e-09   -2.015015e+00
    7.785501e+00    1.938006e+02    1.477140e+00    2.718923e+08    6.731805e-09    1.203265e-11    6.256020e-09   -2.010015e+00
    7.915749e+00    1.985637e+02    1.420283e+00    2.666894e+08    6.709360e-09    1.166239e-11    6.226720e-09   -2.005015e+00
    8.048845e+00    2.034227e+02    1.364715e+00    2.614573e+08    6.686440e-09    1.130359e-11    6.196795e-09   -2.000015e+00
    8.184804e+00    2.083773e+02    1.310439e+00    2.561967e+08    6.663030e-09    1.095587e-11    6.166240e-09   -1.995015e+00
    8.323631e+00    2.134267e+02    1.257459e+00    2.509087e+08    6.639125e-09    1.061889e-11    6.135040e-09   -1.990015e+00
    8.465314e+00    2.185701e+02    1.205774e+00    2.455937e+08    6.614725e-09    1.029228e-11    6.103190e-09   -1.985015e+00
    8.609850e+00    2.238060e+02    1.155386e+00    2.402535e+08    6.589815e-09    9.975720e-12    6.070680e-09   -1.980015e+00
    8.757210e+00    2.291327e+02    1.106297e+00    2.348893e+08    6.564390e-09    9.668880e-12    6.037495e-09   -1.975015e+00
    8.907370e+00    2.345479e+02    1.058506e+00    2.295028e+08    6.538450e-09    9.371460e-12    6.003635e-09   -1.970015e+00
    9.060273e+00    2.400487e+02    1.012012e+00    2.240958e+08    6.511980e-09    9.083145e-12    5.969090e-09   -1.965015e+00
    9.215857e+00    2.456318e+02    9.668140e-01    2.186703e+08    6.484985e-09    8.803655e-12    5.933855e-09   -1.960015e+00
    9.374062e+00    2.512932e+02    9.229105e-01    2.132291e+08    6.457450e-09    8.532700e-12    5.897915e-09   -1.955015e+00
    9.534783e+00    2.570281e+02    8.802985e-01    2.077744e+08    6.429375e-09    8.270020e-12    5.861275e-09   -1.950015e+00
    9.697917e+00    2.628313e+02    8.389745e-01    2.023094e+08    6.400755e-09    8.015350e-12    5.823915e-09   -1.945015e+00
