# sky130 pfet_01v8 gm/ID Processed Lookup Table
# Corner: ff
# Temperature: 75C
# W = 2.0 um
# L = 1.62 um (1620 nm)
# Columns: gm/id [1/V]  gm/gds [V/V]  id/W [A/m]  ft [Hz]  Cgg/W [F/m]  Cgd/W [F/m]  Cgs/W [F/m]  Vov [V]
#         gm/id          gm/gds            id/W              ft           Cgg/W           Cgd/W           Cgs/W             Vov
    1.577656e+00    2.259566e+00    1.376279e+01    3.207112e+08    1.077518e-08    1.419350e-09    9.417300e-09   -2.706609e+00
    1.592991e+00    2.307135e+00    1.365413e+01    3.219137e+08    1.075370e-08    1.387719e-09    9.422755e-09   -2.701609e+00
    1.608555e+00    2.356485e+00    1.354528e+01    3.231120e+08    1.073225e-08    1.356285e-09    9.428030e-09   -2.696609e+00
    1.624354e+00    2.407708e+00    1.343625e+01    3.243055e+08    1.071086e-08    1.325065e-09    9.433125e-09   -2.691609e+00
    1.640390e+00    2.460907e+00    1.332703e+01    3.254932e+08    1.068953e-08    1.294077e-09    9.438030e-09   -2.686609e+00
    1.656669e+00    2.516186e+00    1.321763e+01    3.266746e+08    1.066827e-08    1.263339e-09    9.442740e-09   -2.681609e+00
    1.673194e+00    2.573663e+00    1.310806e+01    3.278488e+08    1.064709e-08    1.232867e-09    9.484130e-09   -2.676609e+00
    1.689970e+00    2.633459e+00    1.299831e+01    3.290148e+08    1.062602e-08    1.202680e-09    9.487450e-09   -2.671609e+00
    1.706999e+00    2.695704e+00    1.288839e+01    3.301716e+08    1.060505e-08    1.172793e-09    9.490590e-09   -2.666609e+00
    1.724288e+00    2.760538e+00    1.277830e+01    3.313186e+08    1.058419e-08    1.143223e-09    9.493535e-09   -2.661609e+00
    1.741840e+00    2.828111e+00    1.266806e+01    3.324546e+08    1.056346e-08    1.113987e-09    9.496290e-09   -2.656609e+00
    1.759658e+00    2.898581e+00    1.255765e+01    3.335786e+08    1.054287e-08    1.085099e-09    9.498845e-09   -2.651609e+00
    1.777747e+00    2.972117e+00    1.244709e+01    3.346895e+08    1.052242e-08    1.056575e-09    9.501205e-09   -2.646609e+00
    1.796110e+00    3.048903e+00    1.233637e+01    3.357863e+08    1.050213e-08    1.028429e-09    9.503355e-09   -2.641609e+00
    1.814750e+00    3.129134e+00    1.222551e+01    3.368678e+08    1.048201e-08    1.000675e-09    9.505305e-09   -2.636609e+00
    1.833672e+00    3.213016e+00    1.211451e+01    3.379327e+08    1.046207e-08    9.733255e-10    9.507045e-09   -2.631609e+00
    1.852878e+00    3.300773e+00    1.200338e+01    3.389801e+08    1.044230e-08    9.463935e-10    9.508570e-09   -2.626609e+00
    1.872372e+00    3.392643e+00    1.189211e+01    3.400083e+08    1.042273e-08    9.198900e-10    9.509880e-09   -2.621609e+00
    1.892156e+00    3.488880e+00    1.178071e+01    3.410163e+08    1.040336e-08    8.938265e-10    9.510980e-09   -2.616609e+00
    1.912233e+00    3.589755e+00    1.166920e+01    3.420025e+08    1.038419e-08    8.682125e-10    9.511860e-09   -2.611609e+00
    1.932605e+00    3.695563e+00    1.155757e+01    3.429657e+08    1.036524e-08    8.430570e-10    9.512520e-09   -2.606609e+00
    1.953275e+00    3.806612e+00    1.144584e+01    3.439042e+08    1.034650e-08    8.183690e-10    9.512965e-09   -2.601609e+00
    1.974242e+00    3.923234e+00    1.133401e+01    3.448165e+08    1.032799e-08    7.941550e-10    9.513185e-09   -2.596609e+00
    1.995509e+00    4.045785e+00    1.122208e+01    3.457010e+08    1.030972e-08    7.704215e-10    9.513185e-09   -2.591609e+00
    2.017078e+00    4.174646e+00    1.111007e+01    3.465564e+08    1.029166e-08    7.471745e-10    9.512965e-09   -2.586609e+00
    2.038947e+00    4.310216e+00    1.099798e+01    3.473806e+08    1.027386e-08    7.244185e-10    9.512520e-09   -2.581609e+00
    2.061118e+00    4.452929e+00    1.088583e+01    3.481721e+08    1.025630e-08    7.021575e-10    9.511860e-09   -2.576609e+00
    2.083588e+00    4.603245e+00    1.077362e+01    3.489292e+08    1.023897e-08    6.803935e-10    9.510975e-09   -2.571609e+00
    2.106358e+00    4.761647e+00    1.066136e+01    3.496498e+08    1.022190e-08    6.591295e-10    9.509870e-09   -2.566609e+00
    2.129425e+00    4.928655e+00    1.054906e+01    3.503324e+08    1.020507e-08    6.383655e-10    9.508550e-09   -2.561609e+00
    2.152788e+00    5.104816e+00    1.043673e+01    3.509751e+08    1.018848e-08    6.181030e-10    9.507005e-09   -2.556609e+00
    2.176445e+00    5.290712e+00    1.032438e+01    3.515756e+08    1.017215e-08    5.983405e-10    9.505245e-09   -2.551609e+00
    2.200390e+00    5.486958e+00    1.021203e+01    3.521325e+08    1.015606e-08    5.790770e-10    9.503270e-09   -2.546609e+00
    2.224622e+00    5.694200e+00    1.009968e+01    3.526435e+08    1.014023e-08    5.603100e-10    9.501085e-09   -2.541609e+00
    2.249134e+00    5.913119e+00    9.987350e+00    3.531068e+08    1.012464e-08    5.420370e-10    9.498680e-09   -2.536609e+00
    2.273925e+00    6.144434e+00    9.875050e+00    3.535207e+08    1.010929e-08    5.242540e-10    9.496065e-09   -2.531609e+00
    2.298986e+00    6.388892e+00    9.762800e+00    3.538828e+08    1.009419e-08    5.069570e-10    9.493245e-09   -2.526609e+00
    2.324315e+00    6.647279e+00    9.650610e+00    3.541918e+08    1.007932e-08    4.901415e-10    9.490215e-09   -2.521609e+00
    2.349905e+00    6.920410e+00    9.538495e+00    3.544456e+08    1.006470e-08    4.738016e-10    9.486975e-09   -2.516609e+00
    2.375749e+00    7.209132e+00    9.426470e+00    3.546424e+08    1.005030e-08    4.579313e-10    9.483535e-09   -2.511609e+00
    2.401841e+00    7.514326e+00    9.314555e+00    3.547809e+08    1.003613e-08    4.425243e-10    9.479895e-09   -2.506609e+00
    2.428178e+00    7.836896e+00    9.202755e+00    3.548591e+08    1.002219e-08    4.275736e-10    9.476050e-09   -2.501609e+00
    2.454751e+00    8.177773e+00    9.091100e+00    3.548759e+08    1.000847e-08    4.130718e-10    9.472010e-09   -2.496609e+00
    2.481554e+00    8.537907e+00    8.979600e+00    3.548298e+08    9.994955e-09    3.990112e-10    9.467770e-09   -2.491609e+00
    2.508585e+00    8.918274e+00    8.868270e+00    3.547196e+08    9.981655e-09    3.853836e-10    9.463340e-09   -2.486609e+00
    2.535834e+00    9.319862e+00    8.757135e+00    3.545446e+08    9.968555e-09    3.721809e-10    9.458710e-09   -2.481609e+00
    2.563300e+00    9.743666e+00    8.646210e+00    3.543036e+08    9.955655e-09    3.593942e-10    9.453895e-09   -2.476609e+00
    2.590977e+00    1.019069e+01    8.535515e+00    3.539961e+08    9.942945e-09    3.470149e-10    9.448890e-09   -2.471609e+00
    2.618863e+00    1.066195e+01    8.425065e+00    3.536215e+08    9.930420e-09    3.350339e-10    9.443695e-09   -2.466609e+00
    2.646956e+00    1.115845e+01    8.314880e+00    3.531797e+08    9.918070e-09    3.234419e-10    9.438315e-09   -2.461609e+00
    2.675254e+00    1.168117e+01    8.204980e+00    3.526704e+08    9.905895e-09    3.122298e-10    9.432750e-09   -2.456609e+00
    2.703757e+00    1.223112e+01    8.095380e+00    3.520938e+08    9.893880e-09    3.013881e-10    9.427005e-09   -2.451609e+00
    2.732464e+00    1.280925e+01    7.986105e+00    3.514501e+08    9.882025e-09    2.909075e-10    9.421070e-09   -2.446609e+00
    2.761378e+00    1.341652e+01    7.877170e+00    3.507399e+08    9.870315e-09    2.807785e-10    9.414960e-09   -2.441609e+00
    2.790501e+00    1.405385e+01    7.768595e+00    3.499637e+08    9.858750e-09    2.709916e-10    9.408665e-09   -2.436609e+00
    2.819839e+00    1.472213e+01    7.660395e+00    3.491223e+08    9.847320e-09    2.615375e-10    9.402195e-09   -2.431609e+00
    2.849395e+00    1.542223e+01    7.552590e+00    3.482164e+08    9.836020e-09    2.524067e-10    9.395540e-09   -2.426609e+00
    2.879176e+00    1.615498e+01    7.445195e+00    3.472476e+08    9.824835e-09    2.435900e-10    9.388710e-09   -2.421609e+00
    2.909189e+00    1.692117e+01    7.338235e+00    3.462167e+08    9.813765e-09    2.350781e-10    9.381700e-09   -2.416609e+00
    2.939442e+00    1.772153e+01    7.231720e+00    3.451250e+08    9.802800e-09    2.268619e-10    9.374510e-09   -2.411609e+00
    2.969947e+00    1.855682e+01    7.125665e+00    3.439742e+08    9.791930e-09    2.189324e-10    9.367140e-09   -2.406609e+00
    3.000709e+00    1.942769e+01    7.020095e+00    3.427657e+08    9.781145e-09    2.112808e-10    9.359595e-09   -2.401609e+00
    3.031744e+00    2.033478e+01    6.915020e+00    3.415008e+08    9.770445e-09    2.038983e-10    9.351870e-09   -2.396609e+00
    3.063063e+00    2.127869e+01    6.810455e+00    3.401812e+08    9.759820e-09    1.967763e-10    9.343965e-09   -2.391609e+00
    3.094679e+00    2.226000e+01    6.706415e+00    3.388086e+08    9.749260e-09    1.899064e-10    9.335875e-09   -2.386609e+00
    3.126603e+00    2.327923e+01    6.602920e+00    3.373846e+08    9.738760e-09    1.832804e-10    9.327610e-09   -2.381609e+00
    3.158854e+00    2.433690e+01    6.499975e+00    3.359109e+08    9.728305e-09    1.768902e-10    9.319160e-09   -2.376609e+00
    3.191445e+00    2.543346e+01    6.397595e+00    3.343891e+08    9.717895e-09    1.707279e-10    9.310525e-09   -2.371609e+00
    3.224391e+00    2.656938e+01    6.295800e+00    3.328208e+08    9.707520e-09    1.647858e-10    9.301705e-09   -2.366609e+00
    3.257707e+00    2.774506e+01    6.194600e+00    3.312077e+08    9.697170e-09    1.590564e-10    9.292695e-09   -2.361609e+00
    3.291412e+00    2.896096e+01    6.094005e+00    3.295511e+08    9.686845e-09    1.535325e-10    9.283500e-09   -2.356609e+00
    3.325523e+00    3.021745e+01    5.994025e+00    3.278531e+08    9.676525e-09    1.482068e-10    9.274110e-09   -2.351609e+00
    3.360058e+00    3.151492e+01    5.894675e+00    3.261147e+08    9.666215e-09    1.430725e-10    9.264530e-09   -2.346609e+00
    3.395033e+00    3.285372e+01    5.795965e+00    3.243376e+08    9.655895e-09    1.381228e-10    9.254750e-09   -2.341609e+00
    3.430468e+00    3.423432e+01    5.697905e+00    3.225231e+08    9.645570e-09    1.333511e-10    9.244775e-09   -2.336609e+00
    3.466381e+00    3.565702e+01    5.600505e+00    3.206727e+08    9.635220e-09    1.287512e-10    9.234595e-09   -2.331609e+00
    3.502796e+00    3.712228e+01    5.503770e+00    3.187877e+08    9.624845e-09    1.243169e-10    9.224210e-09   -2.326609e+00
    3.539726e+00    3.863047e+01    5.407720e+00    3.168691e+08    9.614440e-09    1.200422e-10    9.213620e-09   -2.321609e+00
    3.577194e+00    4.018199e+01    5.312355e+00    3.149184e+08    9.603990e-09    1.159215e-10    9.202820e-09   -2.316609e+00
    3.615220e+00    4.177730e+01    5.217690e+00    3.129367e+08    9.593490e-09    1.119489e-10    9.191800e-09   -2.311609e+00
    3.653824e+00    4.341685e+01    5.123730e+00    3.109251e+08    9.582930e-09    1.081194e-10    9.180565e-09   -2.306609e+00
    3.693032e+00    4.510110e+01    5.030480e+00    3.088844e+08    9.572310e-09    1.044274e-10    9.169105e-09   -2.301609e+00
    3.732861e+00    4.683058e+01    4.937954e+00    3.068158e+08    9.561615e-09    1.008680e-10    9.157415e-09   -2.296609e+00
    3.773334e+00    4.860581e+01    4.846156e+00    3.047200e+08    9.550845e-09    9.743640e-11    9.145495e-09   -2.291609e+00
    3.814475e+00    5.042735e+01    4.755095e+00    3.025984e+08    9.539980e-09    9.412780e-11    9.133340e-09   -2.286609e+00
    3.856306e+00    5.229581e+01    4.664777e+00    3.004512e+08    9.529025e-09    9.093765e-11    9.120945e-09   -2.281609e+00
    3.898852e+00    5.421183e+01    4.575208e+00    2.982798e+08    9.517960e-09    8.786165e-11    9.108300e-09   -2.276609e+00
    3.942135e+00    5.617606e+01    4.486398e+00    2.960844e+08    9.506790e-09    8.489550e-11    9.095405e-09   -2.271609e+00
    3.986181e+00    5.818925e+01    4.398351e+00    2.938659e+08    9.495500e-09    8.203510e-11    9.082250e-09   -2.266609e+00
    4.031015e+00    6.025212e+01    4.311074e+00    2.916251e+08    9.484080e-09    7.927660e-11    9.068835e-09   -2.261609e+00
    4.076664e+00    6.236551e+01    4.224573e+00    2.893623e+08    9.472530e-09    7.661615e-11    9.055145e-09   -2.256609e+00
    4.123153e+00    6.453023e+01    4.138854e+00    2.870782e+08    9.460835e-09    7.405015e-11    9.041185e-09   -2.251609e+00
    4.170510e+00    6.674722e+01    4.053924e+00    2.847735e+08    9.448990e-09    7.157505e-11    9.026940e-09   -2.246609e+00
    4.218762e+00    6.901735e+01    3.969787e+00    2.824484e+08    9.436985e-09    6.918745e-11    9.012410e-09   -2.241609e+00
    4.267939e+00    7.134170e+01    3.886450e+00    2.801035e+08    9.424815e-09    6.688415e-11    8.997585e-09   -2.236609e+00
    4.318068e+00    7.372122e+01    3.803918e+00    2.777392e+08    9.412470e-09    6.466195e-11    8.982455e-09   -2.231609e+00
    4.369182e+00    7.615709e+01    3.722196e+00    2.753559e+08    9.399940e-09    6.251785e-11    8.967015e-09   -2.226609e+00
    4.421310e+00    7.865041e+01    3.641290e+00    2.729539e+08    9.387220e-09    6.044895e-11    8.951260e-09   -2.221609e+00
    4.474483e+00    8.120238e+01    3.561205e+00    2.705335e+08    9.374300e-09    5.845245e-11    8.935175e-09   -2.216609e+00
    4.528735e+00    8.381428e+01    3.481946e+00    2.680951e+08    9.361170e-09    5.652570e-11    8.918765e-09   -2.211609e+00
    4.584099e+00    8.648743e+01    3.403518e+00    2.656390e+08    9.347820e-09    5.466605e-11    8.902010e-09   -2.206609e+00
    4.640608e+00    8.922315e+01    3.325927e+00    2.631651e+08    9.334250e-09    5.287105e-11    8.884905e-09   -2.201609e+00
    4.698300e+00    9.202290e+01    3.249177e+00    2.606739e+08    9.320445e-09    5.113830e-11    8.867440e-09   -2.196609e+00
    4.757209e+00    9.488820e+01    3.173272e+00    2.581655e+08    9.306395e-09    4.946550e-11    8.849610e-09   -2.191609e+00
    4.817371e+00    9.782049e+01    3.098219e+00    2.556401e+08    9.292090e-09    4.785043e-11    8.831405e-09   -2.186609e+00
    4.878827e+00    1.008214e+02    3.024021e+00    2.530976e+08    9.277530e-09    4.629095e-11    8.812820e-09   -2.181609e+00
    4.941614e+00    1.038927e+02    2.950683e+00    2.505384e+08    9.262695e-09    4.478504e-11    8.793835e-09   -2.176609e+00
    5.005772e+00    1.070360e+02    2.878212e+00    2.479624e+08    9.247580e-09    4.333071e-11    8.774445e-09   -2.171609e+00
    5.071343e+00    1.102531e+02    2.806608e+00    2.453697e+08    9.232175e-09    4.192608e-11    8.754640e-09   -2.166609e+00
    5.138369e+00    1.135458e+02    2.735880e+00    2.427603e+08    9.216475e-09    4.056932e-11    8.734415e-09   -2.161609e+00
    5.206893e+00    1.169160e+02    2.666031e+00    2.401342e+08    9.200465e-09    3.925870e-11    8.713750e-09   -2.156609e+00
    5.276958e+00    1.203656e+02    2.597065e+00    2.374915e+08    9.184140e-09    3.799252e-11    8.692645e-09   -2.151609e+00
    5.348610e+00    1.238967e+02    2.528986e+00    2.348320e+08    9.167485e-09    3.676918e-11    8.671080e-09   -2.146609e+00
    5.421897e+00    1.275112e+02    2.461800e+00    2.321558e+08    9.150495e-09    3.558711e-11    8.649050e-09   -2.141609e+00
    5.496863e+00    1.312113e+02    2.395511e+00    2.294627e+08    9.133160e-09    3.444482e-11    8.626540e-09   -2.136609e+00
    5.573557e+00    1.349992e+02    2.330124e+00    2.267528e+08    9.115465e-09    3.334088e-11    8.603545e-09   -2.131609e+00
    5.652027e+00    1.388769e+02    2.265642e+00    2.240260e+08    9.097400e-09    3.227390e-11    8.580045e-09   -2.126609e+00
    5.732326e+00    1.428467e+02    2.202071e+00    2.212820e+08    9.078960e-09    3.124256e-11    8.556035e-09   -2.121609e+00
    5.814500e+00    1.469110e+02    2.139414e+00    2.185207e+08    9.060135e-09    3.024558e-11    8.531495e-09   -2.116609e+00
    5.898606e+00    1.510720e+02    2.077676e+00    2.157422e+08    9.040910e-09    2.928173e-11    8.506425e-09   -2.111609e+00
    5.984691e+00    1.553319e+02    2.016861e+00    2.129461e+08    9.021280e-09    2.834982e-11    8.480800e-09   -2.106609e+00
    6.072809e+00    1.596932e+02    1.956974e+00    2.101325e+08    9.001225e-09    2.744873e-11    8.454620e-09   -2.101609e+00
    6.163011e+00    1.641581e+02    1.898020e+00    2.073010e+08    8.980745e-09    2.657736e-11    8.427860e-09   -2.096609e+00
    6.255357e+00    1.687293e+02    1.840001e+00    2.044517e+08    8.959825e-09    2.573466e-11    8.400520e-09   -2.091609e+00
    6.349894e+00    1.734086e+02    1.782922e+00    2.015842e+08    8.938455e-09    2.491962e-11    8.372575e-09   -2.086609e+00
    6.446674e+00    1.781989e+02    1.726788e+00    1.986984e+08    8.916625e-09    2.413126e-11    8.344025e-09   -2.081609e+00
    6.545753e+00    1.831020e+02    1.671603e+00    1.957942e+08    8.894325e-09    2.336866e-11    8.314845e-09   -2.076609e+00
    6.647184e+00    1.881204e+02    1.617371e+00    1.928716e+08    8.871540e-09    2.263091e-11    8.285030e-09   -2.071609e+00
    6.751021e+00    1.932563e+02    1.564094e+00    1.899305e+08    8.848260e-09    2.191714e-11    8.254560e-09   -2.066609e+00
    6.857306e+00    1.985118e+02    1.511780e+00    1.869705e+08    8.824480e-09    2.122653e-11    8.223430e-09   -2.061609e+00
    6.966099e+00    2.038889e+02    1.460429e+00    1.839916e+08    8.800190e-09    2.055827e-11    8.191625e-09   -2.056609e+00
    7.077436e+00    2.093894e+02    1.410046e+00    1.809939e+08    8.775370e-09    1.991158e-11    8.159125e-09   -2.051609e+00
    7.191377e+00    2.150152e+02    1.360634e+00    1.779773e+08    8.750020e-09    1.928573e-11    8.125930e-09   -2.046609e+00
    7.307949e+00    2.207678e+02    1.312199e+00    1.749418e+08    8.724120e-09    1.868001e-11    8.092015e-09   -2.041609e+00
    7.427204e+00    2.266487e+02    1.264741e+00    1.718875e+08    8.697670e-09    1.809372e-11    8.057370e-09   -2.036609e+00
    7.549173e+00    2.326589e+02    1.218265e+00    1.688144e+08    8.670650e-09    1.752620e-11    8.021985e-09   -2.031609e+00
    7.673889e+00    2.387995e+02    1.172773e+00    1.657228e+08    8.643055e-09    1.697680e-11    7.985850e-09   -2.026609e+00
    7.801379e+00    2.450709e+02    1.128268e+00    1.626128e+08    8.614880e-09    1.644494e-11    7.948945e-09   -2.021609e+00
    7.931672e+00    2.514737e+02    1.084753e+00    1.594848e+08    8.586110e-09    1.592999e-11    7.911260e-09   -2.016609e+00
    8.064775e+00    2.580077e+02    1.042230e+00    1.563393e+08    8.556730e-09    1.543140e-11    7.872790e-09   -2.011609e+00
    8.200695e+00    2.646723e+02    1.000700e+00    1.531763e+08    8.526745e-09    1.494862e-11    7.833510e-09   -2.006609e+00
    8.339443e+00    2.714665e+02    9.601660e-01    1.499968e+08    8.496135e-09    1.448112e-11    7.793425e-09   -2.001609e+00
    8.481010e+00    2.783891e+02    9.206280e-01    1.468014e+08    8.464895e-09    1.402839e-11    7.752510e-09   -1.996609e+00
    8.625369e+00    2.854378e+02    8.820875e-01    1.435908e+08    8.433015e-09    1.358994e-11    7.710760e-09   -1.991609e+00
    8.772505e+00    2.926103e+02    8.445450e-01    1.403659e+08    8.400495e-09    1.316529e-11    7.668165e-09   -1.986609e+00
    8.922370e+00    2.999030e+02    8.080000e-01    1.371278e+08    8.367315e-09    1.275399e-11    7.624715e-09   -1.981609e+00
    9.074920e+00    3.073120e+02    7.724520e-01    1.338776e+08    8.333480e-09    1.235559e-11    7.580400e-09   -1.976609e+00
    9.230085e+00    3.148325e+02    7.379000e-01    1.306168e+08    8.298975e-09    1.196969e-11    7.535210e-09   -1.971609e+00
    9.387791e+00    3.224591e+02    7.043425e-01    1.273468e+08    8.263795e-09    1.159586e-11    7.489135e-09   -1.966609e+00
    9.547930e+00    3.301848e+02    6.717770e-01    1.240690e+08    8.227940e-09    1.123371e-11    7.442175e-09   -1.961609e+00
    9.710411e+00    3.380030e+02    6.402005e-01    1.207857e+08    8.191405e-09    1.088286e-11    7.394315e-09   -1.956609e+00
    9.875084e+00    3.459046e+02    6.096095e-01    1.174985e+08    8.154180e-09    1.054296e-11    7.345550e-09   -1.951609e+00
