# sky130 pfet_01v8 gm/ID Processed Lookup Table
# Corner: ss
# Temperature: 85C
# W = 2.0 um
# L = 2 um (2000 nm)
# Columns: gm/id [1/V]  gm/gds [V/V]  id/W [A/m]  ft [Hz]  Cgg/W [F/m]  Cgd/W [F/m]  Cgs/W [F/m]  Cdb/W [F/m]  vgs [V]  vth [V]  vdsat [V]
# vdsat = BSIM4 saturation voltage (|VDS|_sat, positive); use for headroom / saturation / cascode-bias calculations
#           gm/id          gm/gds            id/W              ft           Cgg/W           Cgd/W           Cgs/W           Cdb/W             vgs             vth           vdsat
    1.775084e+00    3.198650e+00    8.201670e+00    1.940771e+08    1.193898e-08    1.229651e-09    1.071521e-08    1.294444e-09   -1.800000e+00    9.481861e-01    7.158402e-01
    1.810539e+00    3.372106e+00    8.056085e+00    1.951697e+08    1.189432e-08    1.166604e-09    1.072016e-08    1.285466e-09   -1.790000e+00    9.481861e-01    7.079974e-01
    1.847073e+00    3.561938e+00    7.909965e+00    1.962215e+08    1.185038e-08    1.105257e-09    1.072418e-08    1.276638e-09   -1.780000e+00    9.481861e-01    7.001573e-01
    1.884604e+00    3.770175e+00    7.763750e+00    1.972264e+08    1.180720e-08    1.045719e-09    1.072724e-08    1.267975e-09   -1.770000e+00    9.481861e-01    6.923198e-01
    1.923173e+00    3.999125e+00    7.617345e+00    1.981780e+08    1.176485e-08    9.880890e-10    1.072934e-08    1.259489e-09   -1.760000e+00    9.481861e-01    6.844848e-01
    1.962786e+00    4.251400e+00    7.470775e+00    1.990694e+08    1.172342e-08    9.324505e-10    1.073044e-08    1.251191e-09   -1.750000e+00    9.481861e-01    6.766523e-01
    2.003441e+00    4.529958e+00    7.324085e+00    1.998934e+08    1.168293e-08    8.788735e-10    1.073055e-08    1.243091e-09   -1.740000e+00    9.481861e-01    6.688221e-01
    2.045131e+00    4.838129e+00    7.177325e+00    2.006427e+08    1.164342e-08    8.274115e-10    1.072964e-08    1.235198e-09   -1.730000e+00    9.481861e-01    6.609942e-01
    2.087845e+00    5.179648e+00    7.030530e+00    2.013091e+08    1.160494e-08    7.781035e-10    1.072774e-08    1.227519e-09   -1.720000e+00    9.481861e-01    6.531684e-01
    2.131559e+00    5.558694e+00    6.883770e+00    2.018853e+08    1.156750e-08    7.309730e-10    1.072482e-08    1.220060e-09   -1.710000e+00    9.481861e-01    6.453447e-01
    2.176251e+00    5.979889e+00    6.737090e+00    2.023627e+08    1.153111e-08    6.860295e-10    1.072091e-08    1.212825e-09   -1.700000e+00    9.481861e-01    6.375229e-01
    2.221889e+00    6.448340e+00    6.590560e+00    2.027339e+08    1.149578e-08    6.432675e-10    1.071601e-08    1.205815e-09   -1.690000e+00    9.481861e-01    6.297031e-01
    2.268436e+00    6.969617e+00    6.444245e+00    2.029913e+08    1.146149e-08    6.026680e-10    1.071014e-08    1.199033e-09   -1.680000e+00    9.481861e-01    6.218850e-01
    2.315859e+00    7.549753e+00    6.298215e+00    2.031281e+08    1.142825e-08    5.642015e-10    1.070329e-08    1.192477e-09   -1.670000e+00    9.481861e-01    6.140686e-01
    2.364117e+00    8.195218e+00    6.152555e+00    2.031383e+08    1.139601e-08    5.278260e-10    1.069551e-08    1.186146e-09   -1.660000e+00    9.481861e-01    6.062539e-01
    2.413177e+00    8.912862e+00    6.007335e+00    2.030166e+08    1.136474e-08    4.934908e-10    1.068679e-08    1.180036e-09   -1.650000e+00    9.481861e-01    5.984407e-01
    2.463009e+00    9.709869e+00    5.862645e+00    2.027590e+08    1.133443e-08    4.611367e-10    1.067716e-08    1.174143e-09   -1.640000e+00    9.481861e-01    5.906289e-01
    2.513588e+00    1.059368e+01    5.718570e+00    2.023630e+08    1.130500e-08    4.306979e-10    1.066664e-08    1.168460e-09   -1.630000e+00    9.481861e-01    5.828185e-01
    2.564904e+00    1.157190e+01    5.575195e+00    2.018272e+08    1.127643e-08    4.021030e-10    1.065523e-08    1.162983e-09   -1.620000e+00    9.481861e-01    5.750094e-01
    2.616959e+00    1.265222e+01    5.432600e+00    2.011520e+08    1.124865e-08    3.752767e-10    1.064295e-08    1.157702e-09   -1.610000e+00    9.481861e-01    5.672016e-01
    2.669758e+00    1.384229e+01    5.290885e+00    2.003388e+08    1.122161e-08    3.501405e-10    1.062982e-08    1.152609e-09   -1.600000e+00    9.481861e-01    5.593948e-01
    2.723333e+00    1.514969e+01    5.150120e+00    1.993905e+08    1.119525e-08    3.266143e-10    1.061585e-08    1.147695e-09   -1.590000e+00    9.481861e-01    5.515892e-01
    2.777718e+00    1.658182e+01    5.010400e+00    1.983109e+08    1.116951e-08    3.046170e-10    1.060104e-08    1.142953e-09   -1.580000e+00    9.481861e-01    5.437845e-01
    2.832969e+00    1.814583e+01    4.871798e+00    1.971049e+08    1.114432e-08    2.840677e-10    1.058541e-08    1.138370e-09   -1.570000e+00    9.481861e-01    5.359808e-01
    2.889150e+00    1.984864e+01    4.734393e+00    1.957781e+08    1.111963e-08    2.648862e-10    1.056895e-08    1.133937e-09   -1.560000e+00    9.481861e-01    5.281780e-01
    2.946339e+00    2.169684e+01    4.598255e+00    1.943365e+08    1.109536e-08    2.469938e-10    1.055167e-08    1.129643e-09   -1.550000e+00    9.481861e-01    5.203760e-01
    3.004620e+00    2.369673e+01    4.463455e+00    1.927864e+08    1.107145e-08    2.303138e-10    1.053358e-08    1.125479e-09   -1.540000e+00    9.481861e-01    5.125748e-01
    3.064091e+00    2.585442e+01    4.330056e+00    1.911341e+08    1.104783e-08    2.147718e-10    1.051466e-08    1.121432e-09   -1.530000e+00    9.481861e-01    5.047744e-01
    3.124856e+00    2.817570e+01    4.198120e+00    1.893862e+08    1.102444e-08    2.002963e-10    1.049490e-08    1.117494e-09   -1.520000e+00    9.481861e-01    4.969746e-01
    3.187026e+00    3.066628e+01    4.067703e+00    1.875488e+08    1.100121e-08    1.868186e-10    1.047430e-08    1.113652e-09   -1.510000e+00    9.481861e-01    4.891755e-01
    3.250716e+00    3.333169e+01    3.938859e+00    1.856278e+08    1.097809e-08    1.742734e-10    1.045284e-08    1.109896e-09   -1.500000e+00    9.481861e-01    4.813771e-01
    3.316054e+00    3.617750e+01    3.811638e+00    1.836292e+08    1.095498e-08    1.625984e-10    1.043052e-08    1.106215e-09   -1.490000e+00    9.481861e-01    4.735794e-01
    3.383165e+00    3.920925e+01    3.686083e+00    1.815579e+08    1.093184e-08    1.517347e-10    1.040729e-08    1.102599e-09   -1.480000e+00    9.481861e-01    4.657823e-01
    3.452185e+00    4.243263e+01    3.562238e+00    1.794190e+08    1.090860e-08    1.416267e-10    1.038316e-08    1.099037e-09   -1.470000e+00    9.481861e-01    4.579859e-01
    3.523254e+00    4.585357e+01    3.440146e+00    1.772169e+08    1.088519e-08    1.322220e-10    1.035807e-08    1.095519e-09   -1.460000e+00    9.481861e-01    4.501902e-01
    3.596519e+00    4.947822e+01    3.319841e+00    1.749557e+08    1.086155e-08    1.234714e-10    1.033201e-08    1.092034e-09   -1.450000e+00    9.481861e-01    4.423953e-01
    3.672132e+00    5.331313e+01    3.201360e+00    1.726393e+08    1.083761e-08    1.153288e-10    1.030495e-08    1.088571e-09   -1.440000e+00    9.481861e-01    4.346012e-01
    3.750252e+00    5.736525e+01    3.084735e+00    1.702707e+08    1.081331e-08    1.077512e-10    1.027683e-08    1.085122e-09   -1.430000e+00    9.481861e-01    4.268081e-01
    3.831047e+00    6.164204e+01    2.969999e+00    1.678532e+08    1.078858e-08    1.006982e-10    1.024764e-08    1.081674e-09   -1.420000e+00    9.481861e-01    4.190160e-01
    3.914690e+00    6.615152e+01    2.857181e+00    1.653893e+08    1.076336e-08    9.413250e-11    1.021731e-08    1.078219e-09   -1.410000e+00    9.481861e-01    4.112252e-01
    4.001364e+00    7.090232e+01    2.746309e+00    1.628813e+08    1.073758e-08    8.801900e-11    1.018581e-08    1.074746e-09   -1.400000e+00    9.481861e-01    4.034358e-01
    4.091264e+00    7.590385e+01    2.637410e+00    1.603312e+08    1.071118e-08    8.232525e-11    1.015308e-08    1.071243e-09   -1.390000e+00    9.481861e-01    3.956480e-01
    4.184590e+00    8.116614e+01    2.530511e+00    1.577408e+08    1.068408e-08    7.702110e-11    1.011906e-08    1.067703e-09   -1.380000e+00    9.481861e-01    3.878621e-01
    4.281559e+00    8.670016e+01    2.425635e+00    1.551116e+08    1.065622e-08    7.207845e-11    1.008371e-08    1.064114e-09   -1.370000e+00    9.481861e-01    3.800785e-01
    4.382396e+00    9.251759e+01    2.322808e+00    1.524448e+08    1.062753e-08    6.747140e-11    1.004695e-08    1.060464e-09   -1.360000e+00    9.481861e-01    3.722975e-01
    4.487338e+00    9.863119e+01    2.222054e+00    1.497414e+08    1.059795e-08    6.317580e-11    1.000874e-08    1.056745e-09   -1.350000e+00    9.481861e-01    3.645196e-01
    4.596637e+00    1.050545e+02    2.123394e+00    1.470020e+08    1.056738e-08    5.916930e-11    9.968985e-09    1.052945e-09   -1.340000e+00    9.481861e-01    3.567453e-01
    4.710557e+00    1.118022e+02    2.026851e+00    1.442274e+08    1.053578e-08    5.543130e-11    9.927630e-09    1.049053e-09   -1.330000e+00    9.481861e-01    3.489752e-01
    4.829380e+00    1.188898e+02    1.932449e+00    1.414177e+08    1.050306e-08    5.194250e-11    9.884590e-09    1.045059e-09   -1.320000e+00    9.481861e-01    3.412100e-01
    4.953402e+00    1.263342e+02    1.840208e+00    1.385733e+08    1.046914e-08    4.868529e-11    9.839795e-09    1.040951e-09   -1.310000e+00    9.481861e-01    3.334506e-01
    5.082929e+00    1.341529e+02    1.750151e+00    1.356939e+08    1.043396e-08    4.564319e-11    9.793160e-09    1.036718e-09   -1.300000e+00    9.481861e-01    3.256978e-01
    5.218293e+00    1.423649e+02    1.662297e+00    1.327796e+08    1.039743e-08    4.280102e-11    9.744595e-09    1.032348e-09   -1.290000e+00    9.481861e-01    3.179529e-01
    5.359829e+00    1.509899e+02    1.576671e+00    1.298298e+08    1.035947e-08    4.014472e-11    9.694025e-09    1.027831e-09   -1.280000e+00    9.481861e-01    3.102170e-01
    5.507902e+00    1.600486e+02    1.493291e+00    1.268441e+08    1.032002e-08    3.766127e-11    9.641345e-09    1.023153e-09   -1.270000e+00    9.481861e-01    3.024916e-01
    5.662878e+00    1.695630e+02    1.412180e+00    1.238219e+08    1.027897e-08    3.533862e-11    9.586475e-09    1.018303e-09   -1.260000e+00    9.481861e-01    2.947783e-01
    5.825142e+00    1.795555e+02    1.333358e+00    1.207625e+08    1.023626e-08    3.316561e-11    9.529310e-09    1.013267e-09   -1.250000e+00    9.481861e-01    2.870790e-01
    5.995096e+00    1.900492e+02    1.256847e+00    1.176651e+08    1.019180e-08    3.113191e-11    9.469755e-09    1.008034e-09   -1.240000e+00    9.481861e-01    2.793959e-01
    6.173135e+00    2.010676e+02    1.182667e+00    1.145287e+08    1.014551e-08    2.922797e-11    9.407715e-09    1.002592e-09   -1.230000e+00    9.481861e-01    2.717313e-01
    6.359681e+00    2.126345e+02    1.110838e+00    1.113527e+08    1.009731e-08    2.744491e-11    9.343085e-09    9.969265e-10   -1.220000e+00    9.481861e-01    2.640881e-01
    6.555129e+00    2.247729e+02    1.041381e+00    1.081360e+08    1.004710e-08    2.577453e-11    9.275765e-09    9.910250e-10   -1.210000e+00    9.481861e-01    2.564693e-01
    6.759898e+00    2.375061e+02    9.743165e-01    1.048782e+08    9.994825e-09    2.420923e-11    9.205650e-09    9.848745e-10   -1.200000e+00    9.481861e-01    2.488785e-01
    6.974376e+00    2.508552e+02    9.096620e-01    1.015786e+08    9.940385e-09    2.274194e-11    9.132645e-09    9.784620e-10   -1.190000e+00    9.481861e-01    2.413196e-01
    7.198927e+00    2.648393e+02    8.474360e-01    9.823694e+07    9.883710e-09    2.136613e-11    9.056645e-09    9.717740e-10   -1.180000e+00    9.481861e-01    2.337971e-01
    7.433902e+00    2.794754e+02    7.876550e-01    9.485343e+07    9.824715e-09    2.007572e-11    8.977555e-09    9.647980e-10   -1.170000e+00    9.481861e-01    2.263159e-01
    7.679581e+00    2.947756e+02    7.303335e-01    9.142830e+07    9.763335e-09    1.886509e-11    8.895275e-09    9.575205e-10   -1.160000e+00    9.481861e-01    2.188817e-01
    7.936196e+00    3.107476e+02    6.754855e-01    8.796292e+07    9.699490e-09    1.772900e-11    8.809710e-09    9.499290e-10   -1.150000e+00    9.481861e-01    2.115007e-01
    8.203888e+00    3.273924e+02    6.231210e-01    8.445892e+07    9.633115e-09    1.666260e-11    8.720780e-09    9.420105e-10   -1.140000e+00    9.481861e-01    2.041795e-01
    8.482728e+00    3.447034e+02    5.732470e-01    8.091907e+07    9.564155e-09    1.566137e-11    8.628395e-09    9.337540e-10   -1.130000e+00    9.481861e-01    1.969259e-01
    8.772622e+00    3.626639e+02    5.258675e-01    7.734696e+07    9.492545e-09    1.472112e-11    8.532480e-09    9.251475e-10   -1.120000e+00    9.481861e-01    1.897480e-01
    9.073358e+00    3.812460e+02    4.809813e-01    7.374734e+07    9.418245e-09    1.383795e-11    8.432965e-09    9.161795e-10   -1.110000e+00    9.481861e-01    1.826548e-01
    9.384540e+00    4.004084e+02    4.385822e-01    7.012638e+07    9.341200e-09    1.300823e-11    8.329795e-09    9.068405e-10   -1.100000e+00    9.481861e-01    1.756562e-01
    9.705572e+00    4.200950e+02    3.986583e-01    6.649147e+07    9.261390e-09    1.222856e-11    8.222915e-09    8.971210e-10   -1.090000e+00    9.481861e-01    1.687624e-01
    1.003564e+01    4.402331e+02    3.611905e-01    6.285158e+07    9.178790e-09    1.149583e-11    8.112290e-09    8.870125e-10   -1.080000e+00    9.481861e-01    1.619848e-01
    1.037368e+01    4.607320e+02    3.261525e-01    5.921726e+07    9.093380e-09    1.080707e-11    7.997895e-09    8.765080e-10   -1.070000e+00    9.481861e-01    1.553350e-01
    1.071836e+01    4.814816e+02    2.935095e-01    5.560053e+07    9.005165e-09    1.015956e-11    7.879715e-09    8.656015e-10   -1.060000e+00    9.481861e-01    1.488253e-01
    1.106809e+01    5.023544e+02    2.632176e-01    5.201488e+07    8.914155e-09    9.550760e-12    7.757765e-09    8.542880e-10   -1.050000e+00    9.481861e-01    1.424686e-01
    1.142100e+01    5.232032e+02    2.352238e-01    4.847508e+07    8.820375e-09    8.978275e-12    7.632055e-09    8.425655e-10   -1.040000e+00    9.481861e-01    1.362777e-01
    1.177498e+01    5.438665e+02    2.094652e-01    4.499696e+07    8.723865e-09    8.439890e-12    7.502635e-09    8.304325e-10   -1.030000e+00    9.481861e-01    1.302657e-01
    1.212769e+01    5.641688e+02    1.858690e-01    4.159699e+07    8.624685e-09    7.933530e-12    7.369555e-09    8.178900e-10   -1.020000e+00    9.481861e-01    1.244454e-01
    1.247663e+01    5.839271e+02    1.643529e-01    3.829196e+07    8.522900e-09    7.457250e-12    7.232900e-09    8.049400e-10   -1.010000e+00    9.481861e-01    1.188292e-01
    1.281921e+01    6.029567e+02    1.448257e-01    3.509838e+07    8.418600e-09    7.009240e-12    7.092770e-09    7.915885e-10   -1.000000e+00    9.481861e-01    1.134288e-01
    1.315283e+01    6.210781e+02    1.271875e-01    3.203196e+07    8.311895e-09    6.587805e-12    6.949290e-09    7.778415e-10   -9.900000e-01    9.481861e-01    1.082551e-01
    1.347501e+01    6.381257e+02    1.113315e-01    2.910716e+07    8.202900e-09    6.191350e-12    6.802595e-09    7.637090e-10   -9.800000e-01    9.481861e-01    1.033176e-01
    1.378349e+01    6.539565e+02    9.714525e-02    2.633649e+07    8.091760e-09    5.818385e-12    6.652860e-09    7.492025e-10   -9.700000e-01    9.481861e-01    9.862415e-02
    1.407635e+01    6.684577e+02    8.451210e-02    2.373015e+07    7.978635e-09    5.467520e-12    6.500265e-09    7.343365e-10   -9.600000e-01    9.481861e-01    9.418117e-02
    1.435218e+01    6.815559e+02    7.331295e-02    2.129571e+07    7.863695e-09    5.137450e-12    6.345030e-09    7.191280e-10   -9.500000e-01    9.481861e-01    8.999300e-02
    1.461012e+01    6.932212e+02    6.342835e-02    1.903780e+07    7.747125e-09    4.826940e-12    6.187385e-09    7.035955e-10   -9.400000e-01    9.481861e-01    8.606196e-02
    1.485001e+01    7.034725e+02    5.474000e-02    1.695804e+07    7.629145e-09    4.534844e-12    6.027575e-09    6.877610e-10   -9.300000e-01    9.481861e-01    8.238829e-02
    1.507235e+01    7.123764e+02    4.713280e-02    1.505521e+07    7.509960e-09    4.260080e-12    5.865880e-09    6.716480e-10   -9.200000e-01    9.481861e-01    7.897015e-02
    1.527843e+01    7.200485e+02    4.049597e-02    1.332531e+07    7.389815e-09    4.001632e-12    5.702580e-09    6.552825e-10   -9.100000e-01    9.481861e-01    7.580367e-02
    1.547026e+01    7.266475e+02    3.472459e-02    1.176206e+07    7.268950e-09    3.758545e-12    5.537985e-09    6.386925e-10   -9.000000e-01    9.481861e-01    7.288311e-02
    1.565041e+01    7.323643e+02    2.972047e-02    1.035715e+07    7.147620e-09    3.529923e-12    5.372405e-09    6.219080e-10   -8.900000e-01    9.481861e-01    7.020104e-02
    1.582205e+01    7.374203e+02    2.539287e-02    9.100829e+06    7.026090e-09    3.314921e-12    5.206180e-09    6.049600e-10   -8.800000e-01    9.481861e-01    6.774857e-02
    1.598871e+01    7.420515e+02    2.165880e-02    7.982301e+06    6.904620e-09    3.112744e-12    5.039630e-09    5.878825e-10   -8.700000e-01    9.481861e-01    6.551560e-02
    1.615414e+01    7.465005e+02    1.844325e-02    6.990176e+06    6.783490e-09    2.922644e-12    4.873110e-09    5.707085e-10   -8.600000e-01    9.481861e-01    6.349107e-02
    1.632218e+01    7.510058e+02    1.567897e-02    6.112915e+06    6.662965e-09    2.743918e-12    4.706956e-09    5.534735e-10   -8.500000e-01    9.481861e-01    6.166324e-02
    1.649654e+01    7.557923e+02    1.330625e-02    5.339125e+06    6.543325e-09    2.575902e-12    4.541512e-09    5.362130e-10   -8.400000e-01    9.481861e-01    6.001990e-02
    1.668067e+01    7.610631e+02    1.127240e-02    4.657876e+06    6.424835e-09    2.417971e-12    4.377120e-09    5.189630e-10   -8.300000e-01    9.481861e-01    5.854865e-02
    1.687761e+01    7.669936e+02    9.531260e-03    4.058887e+06    6.307750e-09    2.269536e-12    4.214112e-09    5.017585e-10   -8.200000e-01    9.481861e-01    5.723704e-02
    1.708983e+01    7.737253e+02    8.042610e-03    3.532650e+06    6.192330e-09    2.130042e-12    4.052812e-09    4.846350e-10   -8.100000e-01    9.481861e-01    5.607277e-02
    1.731918e+01    7.813623e+02    6.771505e-03    3.070530e+06    6.078820e-09    1.998965e-12    3.893531e-09    4.676277e-10   -8.000000e-01    9.481861e-01    5.504380e-02
    1.756682e+01    7.899712e+02    5.687715e-03    2.664788e+06    5.967445e-09    1.875812e-12    3.736566e-09    4.507700e-10   -7.900000e-01    9.481861e-01    5.413848e-02
    1.783312e+01    7.995787e+02    4.765130e-03    2.308559e+06    5.858430e-09    1.760118e-12    3.582200e-09    4.340944e-10   -7.800000e-01    9.481861e-01    5.334561e-02
    1.811777e+01    8.101735e+02    3.981208e-03    1.995826e+06    5.751975e-09    1.651444e-12    3.430691e-09    4.176321e-10   -7.700000e-01    9.481861e-01    5.265450e-02
    1.841969e+01    8.217083e+02    3.316505e-03    1.721344e+06    5.648270e-09    1.549376e-12    3.282284e-09    4.014123e-10   -7.600000e-01    9.481861e-01    5.205503e-02
    1.873713e+01    8.341030e+02    2.754235e-03    1.480569e+06    5.547475e-09    1.453523e-12    3.137195e-09    3.854626e-10   -7.500000e-01    9.481861e-01    5.153765e-02
    1.906776e+01    8.472491e+02    2.279885e-03    1.269569e+06    5.449750e-09    1.363518e-12    2.995623e-09    3.698084e-10   -7.400000e-01    9.481861e-01    5.109341e-02
    1.940880e+01    8.610171e+02    1.880898e-03    1.084943e+06    5.355220e-09    1.279013e-12    2.857739e-09    3.544728e-10   -7.300000e-01    9.481861e-01    5.071396e-02
    1.975707e+01    8.752588e+02    1.546393e-03    9.237323e+05    5.264005e-09    1.199682e-12    2.723695e-09    3.394768e-10   -7.200000e-01    9.481861e-01    5.039159e-02
