# sky130 nfet_01v8 gm/ID Processed Lookup Table
# Corner: ss
# Temperature: -40C
# W = 2.0 um
# L = 0.5 um (500 nm)
# Columns: gm/id [1/V]  gm/gds [V/V]  id/W [A/m]  ft [Hz]  Cgg/W [F/m]  Cgd/W [F/m]  Cgs/W [F/m]  Cdb/W [F/m]  vgs [V]  vth [V]  vdsat [V]
# vdsat = BSIM4 saturation voltage (|VDS|_sat, positive); use for headroom / saturation / cascode-bias calculations
#           gm/id          gm/gds            id/W              ft           Cgg/W           Cgd/W           Cgs/W           Cdb/W             vgs             vth           vdsat
    3.336521e+01    1.668143e+02    6.485325e-05    3.024055e+05    1.138822e-09    5.854475e-13    3.031649e-10    3.982267e-11    4.000000e-01    7.178668e-01    3.077026e-02
    3.334657e+01    1.666793e+02    9.053230e-05    4.141997e+05    1.160019e-09    6.485305e-13    3.351818e-10    4.337763e-11    4.100000e-01    7.178668e-01    3.077179e-02
    3.330427e+01    1.665159e+02    1.263404e-04    5.658231e+05    1.183536e-09    7.171515e-13    3.700223e-10    4.718566e-11    4.200000e-01    7.178668e-01    3.077392e-02
    3.324026e+01    1.663197e+02    1.762177e-04    7.708076e+05    1.209450e-09    7.914565e-13    4.077773e-10    5.124965e-11    4.300000e-01    7.178668e-01    3.077690e-02
    3.315530e+01    1.660858e+02    2.456026e-04    1.047007e+06    1.237818e-09    8.715265e-13    4.485105e-10    5.556975e-11    4.400000e-01    7.178668e-01    3.078103e-02
    3.304921e+01    1.658090e+02    3.419811e-04    1.417865e+06    1.268670e-09    9.573660e-13    4.922527e-10    6.014270e-11    4.500000e-01    7.178668e-01    3.078678e-02
    3.292113e+01    1.654836e+02    4.756232e-04    1.914012e+06    1.302007e-09    1.048897e-12    5.389985e-10    6.496210e-11    4.600000e-01    7.178668e-01    3.079474e-02
    3.276972e+01    1.651038e+02    6.605680e-04    2.575246e+06    1.337802e-09    1.145947e-12    5.887015e-10    7.001770e-11    4.700000e-01    7.178668e-01    3.080574e-02
    3.259325e+01    1.646637e+02    9.159270e-04    3.452977e+06    1.375989e-09    1.248244e-12    6.412740e-10    7.529565e-11    4.800000e-01    7.178668e-01    3.082093e-02
    3.238988e+01    1.641580e+02    1.267594e-03    4.613191e+06    1.416472e-09    1.355418e-12    6.965835e-10    8.077840e-11    4.900000e-01    7.178668e-01    3.084182e-02
    3.215780e+01    1.635818e+02    1.750468e-03    6.140030e+06    1.459117e-09    1.466994e-12    7.544540e-10    8.644475e-11    5.000000e-01    7.178668e-01    3.087046e-02
    3.189539e+01    1.629317e+02    2.411321e-03    8.140024e+06    1.503757e-09    1.582399e-12    8.146665e-10    9.227035e-11    5.100000e-01    7.178668e-01    3.090957e-02
    3.160156e+01    1.622068e+02    3.312444e-03    1.074712e+07    1.550191e-09    1.700969e-12    8.769630e-10    9.822790e-11    5.200000e-01    7.178668e-01    3.096273e-02
    3.127592e+01    1.614089e+02    4.536248e-03    1.412856e+07    1.598193e-09    1.821956e-12    9.410515e-10    1.042877e-10    5.300000e-01    7.178668e-01    3.103465e-02
    3.091905e+01    1.605442e+02    6.191025e-03    1.849189e+07    1.647508e-09    1.944542e-12    1.006609e-09    1.104183e-10    5.400000e-01    7.178668e-01    3.113136e-02
    3.053276e+01    1.596237e+02    8.418090e-03    2.409331e+07    1.697866e-09    2.067854e-12    1.073291e-09    1.165870e-10    5.500000e-01    7.178668e-01    3.126059e-02
    3.012023e+01    1.586646e+02    1.140063e-02    3.124799e+07    1.748981e-09    2.190981e-12    1.140737e-09    1.227608e-10    5.600000e-01    7.178668e-01    3.143201e-02
    2.968599e+01    1.576904e+02    1.537458e-02    4.034292e+07    1.800560e-09    2.312988e-12    1.208582e-09    1.289069e-10    5.700000e-01    7.178668e-01    3.165760e-02
    2.923578e+01    1.567303e+02    2.064214e-02    5.185324e+07    1.852310e-09    2.432939e-12    1.276457e-09    1.349934e-10    5.800000e-01    7.178668e-01    3.195185e-02
    2.877608e+01    1.558183e+02    2.758850e-02    6.636301e+07    1.903942e-09    2.549911e-12    1.344005e-09    1.409901e-10    5.900000e-01    7.178668e-01    3.233201e-02
    2.831335e+01    1.549895e+02    3.670255e-02    8.459029e+07    1.955182e-09    2.663007e-12    1.410884e-09    1.468689e-10    6.000000e-01    7.178668e-01    3.281812e-02
    2.785318e+01    1.542770e+02    4.860249e-02    1.074171e+08    2.005765e-09    2.771380e-12    1.476773e-09    1.526041e-10    6.100000e-01    7.178668e-01    3.343292e-02
    2.739915e+01    1.537061e+02    6.406705e-02    1.359203e+08    2.055454e-09    2.874231e-12    1.541378e-09    1.581735e-10    6.200000e-01    7.178668e-01    3.420154e-02
    2.695192e+01    1.532887e+02    8.407260e-02    1.714006e+08    2.104030e-09    2.970829e-12    1.604438e-09    1.635575e-10    6.300000e-01    7.178668e-01    3.515094e-02
    2.650871e+01    1.530192e+02    1.098354e-01    2.154018e+08    2.151304e-09    3.060513e-12    1.665722e-09    1.687402e-10    6.400000e-01    7.178668e-01    3.630918e-02
    2.606319e+01    1.528710e+02    1.428575e-01    2.697108e+08    2.197113e-09    3.142693e-12    1.725039e-09    1.737090e-10    6.500000e-01    7.178668e-01    3.770437e-02
    2.560608e+01    1.527970e+02    1.849727e-01    3.363305e+08    2.241323e-09    3.216855e-12    1.782230e-09    1.784547e-10    6.600000e-01    7.178668e-01    3.936363e-02
    2.512648e+01    1.527321e+02    2.383868e-01    4.174174e+08    2.283828e-09    3.282560e-12    1.837174e-09    1.829711e-10    6.700000e-01    7.178668e-01    4.131180e-02
    2.461339e+01    1.525992e+02    3.057066e-01    5.151785e+08    2.324549e-09    3.339433e-12    1.889783e-09    1.872549e-10    6.800000e-01    7.178668e-01    4.357025e-02
    2.405736e+01    1.523166e+02    3.899500e-01    6.317338e+08    2.363432e-09    3.387168e-12    1.940001e-09    1.913056e-10    6.900000e-01    7.178668e-01    4.615575e-02
    2.345191e+01    1.518055e+02    4.945301e-01    7.689515e+08    2.400447e-09    3.425513e-12    1.987801e-09    1.951252e-10    7.000000e-01    7.178668e-01    4.907957e-02
    2.279429e+01    1.509967e+02    6.232095e-01    9.282756e+08    2.435586e-09    3.454268e-12    2.033182e-09    1.987174e-10    7.100000e-01    7.178668e-01    5.234674e-02
    2.208583e+01    1.498365e+02    7.800235e-01    1.110569e+09    2.468858e-09    3.473275e-12    2.076165e-09    2.020880e-10    7.200000e-01    7.178668e-01    5.595577e-02
    2.133152e+01    1.482889e+02    9.691760e-01    1.315995e+09    2.500290e-09    3.482410e-12    2.116793e-09    2.052440e-10    7.300000e-01    7.178668e-01    5.989867e-02
    2.053936e+01    1.463371e+02    1.194912e+00    1.543960e+09    2.529921e-09    3.481575e-12    2.155123e-09    2.081937e-10    7.400000e-01    7.178668e-01    6.416131e-02
    1.971932e+01    1.439829e+02    1.461386e+00    1.793121e+09    2.557804e-09    3.470690e-12    2.191227e-09    2.109460e-10    7.500000e-01    7.178668e-01    6.872420e-02
    1.888244e+01    1.412442e+02    1.772522e+00    2.061473e+09    2.583997e-09    3.449687e-12    2.225186e-09    2.135108e-10    7.600000e-01    7.178668e-01    7.356340e-02
    1.803982e+01    1.381524e+02    2.131902e+00    2.346482e+09    2.608569e-09    3.418500e-12    2.257091e-09    2.158979e-10    7.700000e-01    7.178668e-01    7.865172e-02
    1.720190e+01    1.347490e+02    2.542671e+00    2.645260e+09    2.631591e-09    3.377062e-12    2.287037e-09    2.181177e-10    7.800000e-01    7.178668e-01    8.395989e-02
    1.637799e+01    1.310820e+02    3.007471e+00    2.954760e+09    2.653139e-09    3.325298e-12    2.315122e-09    2.201806e-10    7.900000e-01    7.178668e-01    8.945775e-02
    1.557588e+01    1.272029e+02    3.528412e+00    3.271945e+09    2.673289e-09    3.263118e-12    2.341447e-09    2.220965e-10    8.000000e-01    7.178668e-01    9.511529e-02
    1.480176e+01    1.231641e+02    4.107073e+00    3.593944e+09    2.692121e-09    3.190417e-12    2.366113e-09    2.238757e-10    8.100000e-01    7.178668e-01    1.009035e-01
    1.406020e+01    1.190159e+02    4.744527e+00    3.918156e+09    2.709710e-09    3.107062e-12    2.389219e-09    2.255277e-10    8.200000e-01    7.178668e-01    1.067951e-01
    1.335432e+01    1.148055e+02    5.441385e+00    4.242327e+09    2.726134e-09    3.012897e-12    2.410863e-09    2.270618e-10    8.300000e-01    7.178668e-01    1.127650e-01
    1.268594e+01    1.105756e+02    6.197855e+00    4.564582e+09    2.741468e-09    2.907739e-12    2.431140e-09    2.284870e-10    8.400000e-01    7.178668e-01    1.187905e-01
    1.205576e+01    1.063631e+02    7.013800e+00    4.883412e+09    2.755782e-09    2.791367e-12    2.450141e-09    2.298116e-10    8.500000e-01    7.178668e-01    1.248516e-01
    1.146364e+01    1.021998e+02    7.888810e+00    5.197666e+09    2.769146e-09    2.663528e-12    2.467954e-09    2.310438e-10    8.600000e-01    7.178668e-01    1.309305e-01
    1.090876e+01    9.811177e+01    8.822250e+00    5.506503e+09    2.781628e-09    2.523930e-12    2.484661e-09    2.321908e-10    8.700000e-01    7.178668e-01    1.370123e-01
    1.038980e+01    9.411960e+01    9.813315e+00    5.809348e+09    2.793288e-09    2.372240e-12    2.500342e-09    2.332600e-10    8.800000e-01    7.178668e-01    1.430842e-01
    9.905106e+00    9.023929e+01    1.086110e+01    6.105846e+09    2.804188e-09    2.208084e-12    2.515072e-09    2.342577e-10    8.900000e-01    7.178668e-01    1.491354e-01
    9.452822e+00    8.648260e+01    1.196458e+01    6.395817e+09    2.814382e-09    2.031039e-12    2.528919e-09    2.351903e-10    9.000000e-01    7.178668e-01    1.551569e-01
    9.030955e+00    8.285738e+01    1.312272e+01    6.679203e+09    2.823925e-09    1.840638e-12    2.541950e-09    2.360632e-10    9.100000e-01    7.178668e-01    1.611417e-01
    8.637494e+00    7.936855e+01    1.433443e+01    6.956048e+09    2.832864e-09    1.636363e-12    2.554226e-09    2.368818e-10    9.200000e-01    7.178668e-01    1.670837e-01
    8.270428e+00    7.601838e+01    1.559862e+01    7.226457e+09    2.841247e-09    1.417642e-12    2.565805e-09    2.376509e-10    9.300000e-01    7.178668e-01    1.729784e-01
    7.927817e+00    7.280710e+01    1.691421e+01    7.490578e+09    2.849117e-09    1.183849e-12    2.576738e-09    2.383751e-10    9.400000e-01    7.178668e-01    1.788221e-01
    7.607801e+00    6.973331e+01    1.828013e+01    7.748579e+09    2.856514e-09    9.343010e-13    2.587075e-09    2.390586e-10    9.500000e-01    7.178668e-01    1.846121e-01
    7.308624e+00    6.679435e+01    1.969530e+01    8.000642e+09    2.863475e-09    6.682520e-13    2.596861e-09    2.397049e-10    9.600000e-01    7.178668e-01    1.903463e-01
    7.028640e+00    6.398667e+01    2.115870e+01    8.246947e+09    2.870035e-09    3.848931e-13    2.606139e-09    2.403179e-10    9.700000e-01    7.178668e-01    1.960231e-01
    6.766325e+00    6.130602e+01    2.266930e+01    8.487664e+09    2.876225e-09    8.334745e-14    2.614948e-09    2.409006e-10    9.800000e-01    7.178668e-01    2.016418e-01
    6.520259e+00    5.874772e+01    2.422612e+01    8.722949e+09    2.882077e-09    2.373333e-13    2.623322e-09    2.414560e-10    9.900000e-01    7.178668e-01    2.072016e-01
    6.289148e+00    5.630683e+01    2.582819e+01    8.952955e+09    2.887617e-09    5.781730e-13    2.631295e-09    2.419870e-10    1.000000e+00    7.178668e-01    2.127024e-01
    6.071796e+00    5.397829e+01    2.747456e+01    9.177810e+09    2.892870e-09    9.402750e-13    2.638897e-09    2.424959e-10    1.010000e+00    7.178668e-01    2.181441e-01
    5.867114e+00    5.175695e+01    2.916428e+01    9.397630e+09    2.897861e-09    1.324828e-12    2.646156e-09    2.429850e-10    1.020000e+00    7.178668e-01    2.235271e-01
    5.674102e+00    4.963775e+01    3.089646e+01    9.612517e+09    2.902611e-09    1.733110e-12    2.653097e-09    2.434566e-10    1.030000e+00    7.178668e-01    2.288517e-01
    5.491855e+00    4.761573e+01    3.267018e+01    9.822561e+09    2.907141e-09    2.166494e-12    2.659744e-09    2.439127e-10    1.040000e+00    7.178668e-01    2.341184e-01
    5.319544e+00    4.568607e+01    3.448456e+01    1.002783e+10    2.911469e-09    2.626455e-12    2.666117e-09    2.443550e-10    1.050000e+00    7.178668e-01    2.393281e-01
    5.156414e+00    4.384413e+01    3.633873e+01    1.022841e+10    2.915612e-09    3.114575e-12    2.672236e-09    2.447852e-10    1.060000e+00    7.178668e-01    2.444813e-01
    5.001779e+00    4.208547e+01    3.823183e+01    1.042433e+10    2.919586e-09    3.632551e-12    2.678120e-09    2.452048e-10    1.070000e+00    7.178668e-01    2.495790e-01
    4.855011e+00    4.040580e+01    4.016299e+01    1.061566e+10    2.923407e-09    4.182201e-12    2.683783e-09    2.456153e-10    1.080000e+00    7.178668e-01    2.546219e-01
    4.715542e+00    3.880114e+01    4.213138e+01    1.080243e+10    2.927089e-09    4.765475e-12    2.689242e-09    2.460182e-10    1.090000e+00    7.178668e-01    2.596112e-01
    4.582851e+00    3.726759e+01    4.413616e+01    1.098468e+10    2.930644e-09    5.384455e-12    2.694509e-09    2.464145e-10    1.100000e+00    7.178668e-01    2.645476e-01
    4.456465e+00    3.580159e+01    4.617650e+01    1.116244e+10    2.934084e-09    6.041385e-12    2.699597e-09    2.468055e-10    1.110000e+00    7.178668e-01    2.694323e-01
    4.335950e+00    3.439964e+01    4.825157e+01    1.133574e+10    2.937420e-09    6.738645e-12    2.704517e-09    2.471924e-10    1.120000e+00    7.178668e-01    2.742661e-01
    4.220909e+00    3.305852e+01    5.036055e+01    1.150459e+10    2.940663e-09    7.478795e-12    2.709279e-09    2.475761e-10    1.130000e+00    7.178668e-01    2.790502e-01
    4.110981e+00    3.177519e+01    5.250265e+01    1.166904e+10    2.943824e-09    8.264570e-12    2.713892e-09    2.479576e-10    1.140000e+00    7.178668e-01    2.837855e-01
    4.005832e+00    3.054673e+01    5.467705e+01    1.182909e+10    2.946910e-09    9.098895e-12    2.718364e-09    2.483379e-10    1.150000e+00    7.178668e-01    2.884730e-01
    3.905163e+00    2.937044e+01    5.688290e+01    1.198476e+10    2.949931e-09    9.984900e-12    2.722703e-09    2.487180e-10    1.160000e+00    7.178668e-01    2.931139e-01
    3.808686e+00    2.824373e+01    5.911950e+01    1.213607e+10    2.952896e-09    1.092592e-11    2.726914e-09    2.490985e-10    1.170000e+00    7.178668e-01    2.977092e-01
    3.716149e+00    2.716418e+01    6.138600e+01    1.228304e+10    2.955812e-09    1.192551e-11    2.731004e-09    2.494805e-10    1.180000e+00    7.178668e-01    3.022598e-01
    3.627311e+00    2.612950e+01    6.368165e+01    1.242568e+10    2.958686e-09    1.298749e-11    2.734979e-09    2.498646e-10    1.190000e+00    7.178668e-01    3.067668e-01
    3.541960e+00    2.513756e+01    6.600560e+01    1.256403e+10    2.961527e-09    1.411591e-11    2.738842e-09    2.502518e-10    1.200000e+00    7.178668e-01    3.112313e-01
    3.459888e+00    2.418629e+01    6.835715e+01    1.269807e+10    2.964342e-09    1.531511e-11    2.742598e-09    2.506427e-10    1.210000e+00    7.178668e-01    3.156543e-01
    3.380911e+00    2.327378e+01    7.073550e+01    1.282785e+10    2.967136e-09    1.658969e-11    2.746249e-09    2.510381e-10    1.220000e+00    7.178668e-01    3.200368e-01
    3.304855e+00    2.239821e+01    7.313990e+01    1.295336e+10    2.969917e-09    1.794458e-11    2.749798e-09    2.514387e-10    1.230000e+00    7.178668e-01    3.243797e-01
    3.231559e+00    2.155785e+01    7.556960e+01    1.307463e+10    2.972692e-09    1.938500e-11    2.753249e-09    2.518453e-10    1.240000e+00    7.178668e-01    3.286842e-01
    3.160878e+00    2.075109e+01    7.802380e+01    1.319168e+10    2.975466e-09    2.091651e-11    2.756601e-09    2.522586e-10    1.250000e+00    7.178668e-01    3.329511e-01
    3.092668e+00    1.997639e+01    8.050185e+01    1.330451e+10    2.978245e-09    2.254501e-11    2.759858e-09    2.526793e-10    1.260000e+00    7.178668e-01    3.371816e-01
    3.026806e+00    1.923230e+01    8.300290e+01    1.341314e+10    2.981037e-09    2.427679e-11    2.763019e-09    2.531081e-10    1.270000e+00    7.178668e-01    3.413765e-01
    2.963169e+00    1.851743e+01    8.552625e+01    1.351759e+10    2.983847e-09    2.611847e-11    2.766085e-09    2.535458e-10    1.280000e+00    7.178668e-01    3.455368e-01
    2.901644e+00    1.783049e+01    8.807120e+01    1.361787e+10    2.986683e-09    2.807710e-11    2.769057e-09    2.539929e-10    1.290000e+00    7.178668e-01    3.496635e-01
    2.842126e+00    1.717022e+01    9.063705e+01    1.371399e+10    2.989549e-09    3.016012e-11    2.771932e-09    2.544504e-10    1.300000e+00    7.178668e-01    3.537576e-01
    2.784520e+00    1.653548e+01    9.322300e+01    1.380596e+10    2.992452e-09    3.237538e-11    2.774711e-09    2.549187e-10    1.310000e+00    7.178668e-01    3.578199e-01
    2.728731e+00    1.592513e+01    9.582845e+01    1.389380e+10    2.995398e-09    3.473114e-11    2.777393e-09    2.553989e-10    1.320000e+00    7.178668e-01    3.618514e-01
    2.674675e+00    1.533813e+01    9.845260e+01    1.397750e+10    2.998394e-09    3.723611e-11    2.779975e-09    2.558913e-10    1.330000e+00    7.178668e-01    3.658530e-01
    2.622270e+00    1.477346e+01    1.010948e+02    1.405710e+10    3.001447e-09    3.989944e-11    2.782456e-09    2.563970e-10    1.340000e+00    7.178668e-01    3.698256e-01
    2.571441e+00    1.423020e+01    1.037543e+02    1.413259e+10    3.004562e-09    4.273067e-11    2.784833e-09    2.569164e-10    1.350000e+00    7.178668e-01    3.737702e-01
    2.522114e+00    1.370741e+01    1.064305e+02    1.420397e+10    3.007746e-09    4.573981e-11    2.787102e-09    2.574503e-10    1.360000e+00    7.178668e-01    3.776875e-01
    2.474224e+00    1.320425e+01    1.091227e+02    1.427127e+10    3.011007e-09    4.893724e-11    2.789262e-09    2.579995e-10    1.370000e+00    7.178668e-01    3.815785e-01
    2.427706e+00    1.271990e+01    1.118302e+02    1.433446e+10    3.014349e-09    5.233380e-11    2.791309e-09    2.585645e-10    1.380000e+00    7.178668e-01    3.854440e-01
    2.382499e+00    1.225358e+01    1.145523e+02    1.439358e+10    3.017782e-09    5.594065e-11    2.793238e-09    2.591461e-10    1.390000e+00    7.178668e-01    3.892848e-01
    2.338549e+00    1.180455e+01    1.172884e+02    1.444861e+10    3.021311e-09    5.976930e-11    2.795045e-09    2.597451e-10    1.400000e+00    7.178668e-01    3.931018e-01
    2.295801e+00    1.137211e+01    1.200378e+02    1.449956e+10    3.024943e-09    6.383160e-11    2.796727e-09    2.603620e-10    1.410000e+00    7.178668e-01    3.968959e-01
    2.254203e+00    1.095559e+01    1.227998e+02    1.454644e+10    3.028685e-09    6.813970e-11    2.798277e-09    2.609974e-10    1.420000e+00    7.178668e-01    4.006677e-01
    2.213708e+00    1.055434e+01    1.255738e+02    1.458923e+10    3.032544e-09    7.270580e-11    2.799691e-09    2.616520e-10    1.430000e+00    7.178668e-01    4.044182e-01
    2.174269e+00    1.016777e+01    1.283593e+02    1.462795e+10    3.036527e-09    7.754235e-11    2.800964e-09    2.623263e-10    1.440000e+00    7.178668e-01    4.081481e-01
    2.135844e+00    9.795279e+00    1.311554e+02    1.466260e+10    3.040640e-09    8.266190e-11    2.802089e-09    2.630208e-10    1.450000e+00    7.178668e-01    4.118582e-01
    2.098391e+00    9.436330e+00    1.339616e+02    1.469317e+10    3.044889e-09    8.807680e-11    2.803061e-09    2.637362e-10    1.460000e+00    7.178668e-01    4.155492e-01
    2.061871e+00    9.090393e+00    1.367773e+02    1.471966e+10    3.049282e-09    9.379945e-11    2.803874e-09    2.644728e-10    1.470000e+00    7.178668e-01    4.192219e-01
    2.026245e+00    8.756964e+00    1.396018e+02    1.474209e+10    3.053823e-09    9.984185e-11    2.804523e-09    2.652310e-10    1.480000e+00    7.178668e-01    4.228770e-01
