# sky130 nfet_01v8 gm/ID Processed Lookup Table
# Corner: ss
# Temperature: -40C
# W = 2.0 um
# L = 2.5 um (2500 nm)
# Columns: gm/id [1/V]  gm/gds [V/V]  id/W [A/m]  ft [Hz]  Cgg/W [F/m]  Cgd/W [F/m]  Cgs/W [F/m]  Cdb/W [F/m]  vgs [V]  vth [V]  vdsat [V]
# vdsat = BSIM4 saturation voltage (|VDS|_sat, positive); use for headroom / saturation / cascode-bias calculations
#           gm/id          gm/gds            id/W              ft           Cgg/W           Cgd/W           Cgs/W           Cdb/W             vgs             vth           vdsat
    3.393507e+01    1.661127e+02    4.462406e-05    3.739661e+04    6.444745e-09    6.800745e-13    2.743621e-09    3.514148e-10    3.900000e-01    6.395218e-01    2.894597e-02
    3.391244e+01    1.656980e+02    6.264860e-05    5.101027e+04    6.628770e-09    7.509360e-13    3.000252e-09    3.792267e-10    4.000000e-01    6.395218e-01    2.895113e-02
    3.385519e+01    1.652199e+02    8.791820e-05    6.941292e+04    6.824705e-09    8.288065e-13    3.271275e-09    4.082270e-10    4.100000e-01    6.395218e-01    2.895837e-02
    3.376693e+01    1.646718e+02    1.232904e-04    9.422522e+04    7.031915e-09    9.142560e-13    3.555849e-09    4.383057e-10    4.200000e-01    6.395218e-01    2.896849e-02
    3.364951e+01    1.640483e+02    1.727159e-04    1.275903e+05    7.249590e-09    1.007882e-12    3.852904e-09    4.693328e-10    4.300000e-01    6.395218e-01    2.898262e-02
    3.350356e+01    1.633452e+02    2.416371e-04    1.723305e+05    7.476745e-09    1.110309e-12    4.161149e-09    5.011605e-10    4.400000e-01    6.395218e-01    2.900231e-02
    3.332901e+01    1.625612e+02    3.375198e-04    2.321465e+05    7.712225e-09    1.222185e-12    4.479098e-09    5.336270e-10    4.500000e-01    6.395218e-01    2.902966e-02
    3.312534e+01    1.616990e+02    4.705586e-04    3.118657e+05    7.954750e-09    1.344186e-12    4.805099e-09    5.665570e-10    4.600000e-01    6.395218e-01    2.906754e-02
    3.289196e+01    1.607667e+02    6.546050e-04    4.177538e+05    8.202925e-09    1.477011e-12    5.137365e-09    5.997680e-10    4.700000e-01    6.395218e-01    2.911979e-02
    3.262865e+01    1.597806e+02    9.083770e-04    5.579013e+05    8.455280e-09    1.621386e-12    5.474020e-09    6.330745e-10    4.800000e-01    6.395218e-01    2.919157e-02
    3.233575e+01    1.587671e+02    1.257029e-03    7.427036e+05    8.710290e-09    1.778063e-12    5.813145e-09    6.662900e-10    4.900000e-01    6.395218e-01    2.928968e-02
    3.201455e+01    1.577652e+02    1.734163e-03    9.854570e+05    8.966435e-09    1.947819e-12    6.152805e-09    6.992335e-10    5.000000e-01    6.395218e-01    2.942301e-02
    3.166749e+01    1.568290e+02    2.384418e-03    1.303111e+06    9.222210e-09    2.131460e-12    6.491120e-09    7.317310e-10    5.100000e-01    6.395218e-01    2.960303e-02
    3.129820e+01    1.560287e+02    3.266766e-03    1.717217e+06    9.476160e-09    2.329822e-12    6.826275e-09    7.636210e-10    5.200000e-01    6.395218e-01    2.984428e-02
    3.091133e+01    1.554514e+02    4.458715e-03    2.255131e+06    9.726930e-09    2.543771e-12    7.156580e-09    7.947570e-10    5.300000e-01    6.395218e-01    3.016489e-02
    3.051206e+01    1.551987e+02    6.061675e-03    2.951531e+06    9.973255e-09    2.774206e-12    7.480470e-09    8.250075e-10    5.400000e-01    6.395218e-01    3.058702e-02
    3.010519e+01    1.553815e+02    8.207735e-03    3.850248e+06    1.021400e-08    3.022065e-12    7.796565e-09    8.542610e-10    5.500000e-01    6.395218e-01    3.113705e-02
    2.969380e+01    1.561120e+02    1.106818e-02    5.006351e+06    1.044819e-08    3.288326e-12    8.103660e-09    8.824250e-10    5.600000e-01    6.395218e-01    3.184563e-02
    2.927791e+01    1.574921e+02    1.486394e-02    6.488249e+06    1.067497e-08    3.574008e-12    8.400730e-09    9.094250e-10    5.700000e-01    6.395218e-01    3.274728e-02
    2.885320e+01    1.595986e+02    1.987782e-02    8.379334e+06    1.089365e-08    3.880182e-12    8.686960e-09    9.352070e-10    5.800000e-01    6.395218e-01    3.387951e-02
    2.841047e+01    1.624690e+02    2.646816e-02    1.077844e+07    1.110367e-08    4.207972e-12    8.961715e-09    9.597345e-10    5.900000e-01    6.395218e-01    3.528149e-02
    2.793606e+01    1.660868e+02    3.508270e-02    1.379816e+07    1.130465e-08    4.558555e-12    9.224535e-09    9.829880e-10    6.000000e-01    6.395218e-01    3.699223e-02
    2.741373e+01    1.703747e+02    4.627048e-02    1.756037e+07    1.149632e-08    4.933178e-12    9.475140e-09    1.004964e-09    6.100000e-01    6.395218e-01    3.904841e-02
    2.682740e+01    1.751921e+02    6.068940e-02    2.218827e+07    1.167853e-08    5.333155e-12    9.713395e-09    1.025672e-09    6.200000e-01    6.395218e-01    4.148207e-02
    2.616419e+01    1.803426e+02    7.910650e-02    2.779556e+07    1.185125e-08    5.759875e-12    9.939320e-09    1.045134e-09    6.300000e-01    6.395218e-01    4.431845e-02
    2.541713e+01    1.855898e+02    1.023883e-01    3.447381e+07    1.201456e-08    6.214810e-12    1.015304e-08    1.063380e-09    6.400000e-01    6.395218e-01    4.757418e-02
    2.458655e+01    1.906789e+02    1.314805e-01    4.228040e+07    1.216858e-08    6.699530e-12    1.035478e-08    1.080451e-09    6.500000e-01    6.395218e-01    5.125619e-02
    2.368010e+01    1.953605e+02    1.673773e-01    5.122904e+07    1.231357e-08    7.215690e-12    1.054486e-08    1.096394e-09    6.600000e-01    6.395218e-01    5.536129e-02
    2.271141e+01    1.994133e+02    2.110833e-01    6.128534e+07    1.244977e-08    7.765065e-12    1.072367e-08    1.111257e-09    6.700000e-01    6.395218e-01    5.987663e-02
    2.169809e+01    2.026616e+02    2.635728e-01    7.236806e+07    1.257753e-08    8.349530e-12    1.089164e-08    1.125096e-09    6.800000e-01    6.395218e-01    6.478086e-02
    2.065951e+01    2.049860e+02    3.257501e-01    8.435625e+07    1.269718e-08    8.971100e-12    1.104924e-08    1.137968e-09    6.900000e-01    6.395218e-01    7.004574e-02
    1.961466e+01    2.063254e+02    3.984168e-01    9.710001e+07    1.280912e-08    9.631920e-12    1.119699e-08    1.149929e-09    7.000000e-01    6.395218e-01    7.563812e-02
    1.858078e+01    2.066742e+02    4.822489e-01    1.104341e+08    1.291374e-08    1.033427e-11    1.133540e-08    1.161037e-09    7.100000e-01    6.395218e-01    8.152193e-02
    1.757240e+01    2.060731e+02    5.777835e-01    1.241913e+08    1.301144e-08    1.108060e-11    1.146499e-08    1.171349e-09    7.200000e-01    6.395218e-01    8.766007e-02
    1.660086e+01    2.045978e+02    6.854195e-01    1.382131e+08    1.310262e-08    1.187352e-11    1.158629e-08    1.180921e-09    7.300000e-01    6.395218e-01    9.401600e-02
    1.567446e+01    2.023471e+02    8.054230e-01    1.523591e+08    1.318768e-08    1.271584e-11    1.169982e-08    1.189806e-09    7.400000e-01    6.395218e-01    1.005550e-01
    1.479860e+01    1.994320e+02    9.379430e-01    1.665113e+08    1.326702e-08    1.361053e-11    1.180607e-08    1.198055e-09    7.500000e-01    6.395218e-01    1.072450e-01
    1.397623e+01    1.959661e+02    1.083030e+00    1.805768e+08    1.334101e-08    1.456082e-11    1.190554e-08    1.205719e-09    7.600000e-01    6.395218e-01    1.140572e-01
    1.320833e+01    1.920589e+02    1.240656e+00    1.944867e+08    1.341003e-08    1.557011e-11    1.199869e-08    1.212844e-09    7.700000e-01    6.395218e-01    1.209663e-01
    1.249438e+01    1.878116e+02    1.410733e+00    2.081947e+08    1.347442e-08    1.664210e-11    1.208597e-08    1.219474e-09    7.800000e-01    6.395218e-01    1.279504e-01
    1.183271e+01    1.833134e+02    1.593133e+00    2.216734e+08    1.353452e-08    1.778072e-11    1.216780e-08    1.225650e-09    7.900000e-01    6.395218e-01    1.349911e-01
    1.122090e+01    1.786411e+02    1.787700e+00    2.349103e+08    1.359065e-08    1.899020e-11    1.224459e-08    1.231412e-09    8.000000e-01    6.395218e-01    1.420731e-01
    1.065603e+01    1.738587e+02    1.994267e+00    2.479052e+08    1.364311e-08    2.027507e-11    1.231672e-08    1.236795e-09    8.100000e-01    6.395218e-01    1.491837e-01
    1.013495e+01    1.690185e+02    2.212662e+00    2.606662e+08    1.369217e-08    2.164018e-11    1.238451e-08    1.241834e-09    8.200000e-01    6.395218e-01    1.563127e-01
    9.654385e+00    1.641618e+02    2.442716e+00    2.732066e+08    1.373810e-08    2.309075e-11    1.244832e-08    1.246559e-09    8.300000e-01    6.395218e-01    1.634521e-01
    9.211100e+00    1.593209e+02    2.684269e+00    2.855433e+08    1.378115e-08    2.463238e-11    1.250844e-08    1.250999e-09    8.400000e-01    6.395218e-01    1.705956e-01
    8.801957e+00    1.545200e+02    2.937170e+00    2.976949e+08    1.382156e-08    2.627109e-11    1.256517e-08    1.255182e-09    8.500000e-01    6.395218e-01    1.777383e-01
    8.423978e+00    1.497770e+02    3.201282e+00    3.096797e+08    1.385953e-08    2.801331e-11    1.261877e-08    1.259132e-09    8.600000e-01    6.395218e-01    1.848765e-01
    8.074376e+00    1.451044e+02    3.476481e+00    3.215157e+08    1.389527e-08    2.986599e-11    1.266946e-08    1.262872e-09    8.700000e-01    6.395218e-01    1.920077e-01
    7.750572e+00    1.405110e+02    3.762655e+00    3.332191e+08    1.392895e-08    3.183659e-11    1.271749e-08    1.266423e-09    8.800000e-01    6.395218e-01    1.991298e-01
    7.450196e+00    1.360020e+02    4.059705e+00    3.448048e+08    1.396075e-08    3.393310e-11    1.276307e-08    1.269803e-09    8.900000e-01    6.395218e-01    2.062416e-01
    7.171091e+00    1.315805e+02    4.367539e+00    3.562856e+08    1.399085e-08    3.616413e-11    1.280637e-08    1.273033e-09    9.000000e-01    6.395218e-01    2.133423e-01
    6.911292e+00    1.272476e+02    4.686079e+00    3.676721e+08    1.401937e-08    3.853893e-11    1.284757e-08    1.276127e-09    9.100000e-01    6.395218e-01    2.204314e-01
    6.669025e+00    1.230036e+02    5.015255e+00    3.789737e+08    1.404645e-08    4.106746e-11    1.288684e-08    1.279101e-09    9.200000e-01    6.395218e-01    2.275087e-01
    6.442694e+00    1.188474e+02    5.354995e+00    3.901970e+08    1.407223e-08    4.376041e-11    1.292432e-08    1.281971e-09    9.300000e-01    6.395218e-01    2.345742e-01
    6.230853e+00    1.147778e+02    5.705245e+00    4.013479e+08    1.409682e-08    4.662931e-11    1.296014e-08    1.284747e-09    9.400000e-01    6.395218e-01    2.416281e-01
    6.032206e+00    1.107931e+02    6.065950e+00    4.124302e+08    1.412033e-08    4.968653e-11    1.299444e-08    1.287444e-09    9.500000e-01    6.395218e-01    2.486707e-01
    5.845595e+00    1.068915e+02    6.437050e+00    4.234466e+08    1.414286e-08    5.294540e-11    1.302732e-08    1.290071e-09    9.600000e-01    6.395218e-01    2.557023e-01
    5.669971e+00    1.030712e+02    6.818500e+00    4.343986e+08    1.416451e-08    5.642025e-11    1.305888e-08    1.292640e-09    9.700000e-01    6.395218e-01    2.627232e-01
    5.504398e+00    9.933056e+01    7.210245e+00    4.452867e+08    1.418536e-08    6.012650e-11    1.308922e-08    1.295162e-09    9.800000e-01    6.395218e-01    2.697340e-01
    5.348025e+00    9.566784e+01    7.612245e+00    4.561102e+08    1.420550e-08    6.408075e-11    1.311842e-08    1.297644e-09    9.900000e-01    6.395218e-01    2.767349e-01
    5.200101e+00    9.208171e+01    8.024440e+00    4.668681e+08    1.422500e-08    6.830085e-11    1.314655e-08    1.300097e-09    1.000000e+00    6.395218e-01    2.837264e-01
    5.059938e+00    8.857092e+01    8.446785e+00    4.775582e+08    1.424395e-08    7.280600e-11    1.317369e-08    1.302527e-09    1.010000e+00    6.395218e-01    2.907088e-01
    4.926924e+00    8.513444e+01    8.879225e+00    4.881783e+08    1.426240e-08    7.761685e-11    1.319990e-08    1.304944e-09    1.020000e+00    6.395218e-01    2.976826e-01
    4.800500e+00    8.177148e+01    9.321710e+00    4.987251e+08    1.428042e-08    8.275560e-11    1.322524e-08    1.307356e-09    1.030000e+00    6.395218e-01    3.046481e-01
    4.680164e+00    7.848137e+01    9.774185e+00    5.091953e+08    1.429807e-08    8.824615e-11    1.324975e-08    1.309768e-09    1.040000e+00    6.395218e-01    3.116057e-01
    4.565462e+00    7.526363e+01    1.023659e+01    5.195845e+08    1.431542e-08    9.411410e-11    1.327348e-08    1.312190e-09    1.050000e+00    6.395218e-01    3.185556e-01
    4.455983e+00    7.211800e+01    1.070886e+01    5.298888e+08    1.433251e-08    1.003870e-10    1.329646e-08    1.314627e-09    1.060000e+00    6.395218e-01    3.254982e-01
    4.351350e+00    6.904431e+01    1.119094e+01    5.401034e+08    1.434939e-08    1.070944e-10    1.331875e-08    1.317086e-09    1.070000e+00    6.395218e-01    3.324338e-01
    4.251221e+00    6.604252e+01    1.168275e+01    5.502231e+08    1.436614e-08    1.142681e-10    1.334037e-08    1.319574e-09    1.080000e+00    6.395218e-01    3.393625e-01
    4.155285e+00    6.311271e+01    1.218423e+01    5.602423e+08    1.438279e-08    1.219419e-10    1.336133e-08    1.322098e-09    1.090000e+00    6.395218e-01    3.462847e-01
    4.063258e+00    6.025513e+01    1.269531e+01    5.701556e+08    1.439939e-08    1.301524e-10    1.338167e-08    1.324664e-09    1.100000e+00    6.395218e-01    3.532005e-01
    3.974882e+00    5.747006e+01    1.321589e+01    5.799571e+08    1.441600e-08    1.389385e-10    1.340141e-08    1.327278e-09    1.110000e+00    6.395218e-01    3.601103e-01
    3.889910e+00    5.475776e+01    1.374591e+01    5.896396e+08    1.443267e-08    1.483417e-10    1.342055e-08    1.329947e-09    1.120000e+00    6.395218e-01    3.670141e-01
    3.808127e+00    5.211863e+01    1.428527e+01    5.991965e+08    1.444943e-08    1.584065e-10    1.343912e-08    1.332679e-09    1.130000e+00    6.395218e-01    3.739122e-01
    3.729321e+00    4.955304e+01    1.483388e+01    6.086199e+08    1.446634e-08    1.691802e-10    1.345711e-08    1.335478e-09    1.140000e+00    6.395218e-01    3.808048e-01
    3.653314e+00    4.706153e+01    1.539164e+01    6.179029e+08    1.448345e-08    1.807132e-10    1.347455e-08    1.338352e-09    1.150000e+00    6.395218e-01    3.876919e-01
    3.579925e+00    4.464445e+01    1.595845e+01    6.270364e+08    1.450080e-08    1.930589e-10    1.349141e-08    1.341306e-09    1.160000e+00    6.395218e-01    3.945739e-01
    3.508989e+00    4.230226e+01    1.653421e+01    6.360121e+08    1.451845e-08    2.062741e-10    1.350772e-08    1.344350e-09    1.170000e+00    6.395218e-01    4.014508e-01
    3.440359e+00    4.003537e+01    1.711878e+01    6.448202e+08    1.453644e-08    2.204187e-10    1.352345e-08    1.347488e-09    1.180000e+00    6.395218e-01    4.083228e-01
    3.373891e+00    3.784417e+01    1.771205e+01    6.534515e+08    1.455482e-08    2.355558e-10    1.353861e-08    1.350727e-09    1.190000e+00    6.395218e-01    4.151900e-01
    3.309447e+00    3.572893e+01    1.831391e+01    6.618936e+08    1.457365e-08    2.517519e-10    1.355319e-08    1.354075e-09    1.200000e+00    6.395218e-01    4.220526e-01
    3.246908e+00    3.369001e+01    1.892419e+01    6.701372e+08    1.459297e-08    2.690766e-10    1.356717e-08    1.357538e-09    1.210000e+00    6.395218e-01    4.289106e-01
    3.186153e+00    3.172757e+01    1.954275e+01    6.781689e+08    1.461284e-08    2.876027e-10    1.358054e-08    1.361122e-09    1.220000e+00    6.395218e-01    4.357644e-01
    3.127064e+00    2.984171e+01    2.016946e+01    6.859758e+08    1.463331e-08    3.074058e-10    1.359327e-08    1.364836e-09    1.230000e+00    6.395218e-01    4.426139e-01
    3.069545e+00    2.803251e+01    2.080413e+01    6.935455e+08    1.465442e-08    3.285643e-10    1.360536e-08    1.368685e-09    1.240000e+00    6.395218e-01    4.494592e-01
    3.013490e+00    2.629987e+01    2.144658e+01    7.008632e+08    1.467624e-08    3.511587e-10    1.361677e-08    1.372676e-09    1.250000e+00    6.395218e-01    4.563006e-01
    2.958803e+00    2.464359e+01    2.209664e+01    7.079135e+08    1.469881e-08    3.752718e-10    1.362749e-08    1.376816e-09    1.260000e+00    6.395218e-01    4.631382e-01
    2.905390e+00    2.306332e+01    2.275411e+01    7.146807e+08    1.472219e-08    4.009876e-10    1.363748e-08    1.381112e-09    1.270000e+00    6.395218e-01    4.699720e-01
    2.853170e+00    2.155864e+01    2.341876e+01    7.211488e+08    1.474643e-08    4.283912e-10    1.364672e-08    1.385568e-09    1.280000e+00    6.395218e-01    4.768022e-01
    2.802056e+00    2.012888e+01    2.409038e+01    7.273006e+08    1.477157e-08    4.575678e-10    1.365517e-08    1.390191e-09    1.290000e+00    6.395218e-01    4.836290e-01
    2.751970e+00    1.877326e+01    2.476873e+01    7.331186e+08    1.479767e-08    4.886019e-10    1.366280e-08    1.394988e-09    1.300000e+00    6.395218e-01    4.904524e-01
    2.702837e+00    1.749080e+01    2.545355e+01    7.385846e+08    1.482477e-08    5.215770e-10    1.366958e-08    1.399961e-09    1.310000e+00    6.395218e-01    4.972725e-01
    2.654589e+00    1.628038e+01    2.614457e+01    7.436813e+08    1.485293e-08    5.565730e-10    1.367548e-08    1.405117e-09    1.320000e+00    6.395218e-01    5.040896e-01
    2.607161e+00    1.514063e+01    2.684152e+01    7.483913e+08    1.488217e-08    5.936675e-10    1.368046e-08    1.410458e-09    1.330000e+00    6.395218e-01    5.109037e-01
    2.560491e+00    1.407002e+01    2.754408e+01    7.526968e+08    1.491253e-08    6.329325e-10    1.368449e-08    1.415989e-09    1.340000e+00    6.395218e-01    5.177149e-01
    2.514527e+00    1.306684e+01    2.825193e+01    7.565820e+08    1.494406e-08    6.744345e-10    1.368753e-08    1.421711e-09    1.350000e+00    6.395218e-01    5.245234e-01
    2.469217e+00    1.212914e+01    2.896476e+01    7.600312e+08    1.497677e-08    7.182320e-10    1.368955e-08    1.427627e-09    1.360000e+00    6.395218e-01    5.313293e-01
    2.424522e+00    1.125479e+01    2.968223e+01    7.630315e+08    1.501068e-08    7.643760e-10    1.369053e-08    1.433738e-09    1.370000e+00    6.395218e-01    5.381328e-01
    2.380406e+00    1.044152e+01    3.040395e+01    7.655718e+08    1.504580e-08    8.129065e-10    1.369043e-08    1.440042e-09    1.380000e+00    6.395218e-01    5.449339e-01
    2.336842e+00    9.686869e+00    3.112957e+01    7.676430e+08    1.508216e-08    8.638530e-10    1.368922e-08    1.446541e-09    1.390000e+00    6.395218e-01    5.517328e-01
    2.293812e+00    8.988224e+00    3.185872e+01    7.692408e+08    1.511973e-08    9.172330e-10    1.368689e-08    1.453231e-09    1.400000e+00    6.395218e-01    5.585296e-01
    2.251301e+00    8.342854e+00    3.259100e+01    7.703618e+08    1.515852e-08    9.730505e-10    1.368342e-08    1.460110e-09    1.410000e+00    6.395218e-01    5.653245e-01
    2.209306e+00    7.747928e+00    3.332603e+01    7.710082e+08    1.519850e-08    1.031296e-09    1.367880e-08    1.467174e-09    1.420000e+00    6.395218e-01    5.721175e-01
    2.167831e+00    7.200545e+00    3.406342e+01    7.711855e+08    1.523965e-08    1.091945e-09    1.367302e-08    1.474420e-09    1.430000e+00    6.395218e-01    5.789089e-01
    2.126888e+00    6.697775e+00    3.480278e+01    7.709042e+08    1.528193e-08    1.154957e-09    1.366607e-08    1.481840e-09    1.440000e+00    6.395218e-01    5.856988e-01
    2.086489e+00    6.236658e+00    3.554373e+01    7.701762e+08    1.532531e-08    1.220279e-09    1.365797e-08    1.489430e-09    1.450000e+00    6.395218e-01    5.924873e-01
    2.046659e+00    5.814279e+00    3.628589e+01    7.690200e+08    1.536971e-08    1.287839e-09    1.364871e-08    1.497182e-09    1.460000e+00    6.395218e-01    5.992744e-01
    2.007421e+00    5.427766e+00    3.702891e+01    7.674556e+08    1.541509e-08    1.357554e-09    1.363832e-08    1.505088e-09    1.470000e+00    6.395218e-01    6.060605e-01
