# sky130 pfet_01v8 gm/ID Processed Lookup Table
# Corner: fs
# Temperature: 25C
# W = 2.0 um
# L = 2 um (2000 nm)
# Columns: gm/id [1/V]  gm/gds [V/V]  id/W [A/m]  ft [Hz]  Cgg/W [F/m]  Cgd/W [F/m]  Cgs/W [F/m]  Cdb/W [F/m]  vgs [V]  vth [V]  vdsat [V]
# vdsat = BSIM4 saturation voltage (|VDS|_sat, positive); use for headroom / saturation / cascode-bias calculations
#           gm/id          gm/gds            id/W              ft           Cgg/W           Cgd/W           Cgs/W           Cdb/W             vgs             vth           vdsat
    1.827411e+00    3.452140e+00    1.128264e+01    2.456562e+08    1.335794e-08    1.373969e-09    1.196697e-08    1.303195e-09   -1.800000e+00    9.796406e-01    7.043721e-01
    1.866265e+00    3.657985e+00    1.107646e+01    2.472609e+08    1.330574e-08    1.301000e-09    1.197366e-08    1.293789e-09   -1.790000e+00    9.796406e-01    6.962733e-01
    1.906331e+00    3.884739e+00    1.086923e+01    2.488032e+08    1.325444e-08    1.230070e-09    1.197932e-08    1.284553e-09   -1.780000e+00    9.796406e-01    6.881779e-01
    1.947484e+00    4.135125e+00    1.066180e+01    2.502731e+08    1.320415e-08    1.161316e-09    1.198391e-08    1.275502e-09   -1.770000e+00    9.796406e-01    6.800860e-01
    1.989767e+00    4.412231e+00    1.045397e+01    2.516600e+08    1.315496e-08    1.094860e-09    1.198743e-08    1.266649e-09   -1.760000e+00    9.796406e-01    6.719974e-01
    2.033177e+00    4.719564e+00    1.024580e+01    2.529531e+08    1.310694e-08    1.030801e-09    1.198986e-08    1.258009e-09   -1.750000e+00    9.796406e-01    6.639119e-01
    2.077699e+00    5.061079e+00    1.003737e+01    2.541406e+08    1.306016e-08    9.692245e-10    1.199119e-08    1.249592e-09   -1.740000e+00    9.796406e-01    6.558295e-01
    2.123314e+00    5.441217e+00    9.828735e+00    2.552107e+08    1.301467e-08    9.101935e-10    1.199142e-08    1.241410e-09   -1.730000e+00    9.796406e-01    6.477500e-01
    2.169992e+00    5.864931e+00    9.620005e+00    2.561511e+08    1.297052e-08    8.537525e-10    1.199056e-08    1.233470e-09   -1.720000e+00    9.796406e-01    6.396733e-01
    2.217700e+00    6.337712e+00    9.411260e+00    2.569500e+08    1.292773e-08    7.999265e-10    1.198862e-08    1.225778e-09   -1.710000e+00    9.796406e-01    6.315994e-01
    2.266398e+00    6.865590e+00    9.202610e+00    2.575958e+08    1.288631e-08    7.487215e-10    1.198560e-08    1.218339e-09   -1.700000e+00    9.796406e-01    6.235280e-01
    2.316043e+00    7.455128e+00    8.994165e+00    2.580776e+08    1.284628e-08    7.001255e-10    1.198153e-08    1.211155e-09   -1.690000e+00    9.796406e-01    6.154592e-01
    2.366592e+00    8.113397e+00    8.786035e+00    2.583856e+08    1.280761e-08    6.541105e-10    1.197642e-08    1.204229e-09   -1.680000e+00    9.796406e-01    6.073927e-01
    2.418005e+00    8.847920e+00    8.578345e+00    2.585116e+08    1.277029e-08    6.106325e-10    1.197031e-08    1.197557e-09   -1.670000e+00    9.796406e-01    5.993285e-01
    2.470243e+00    9.666612e+00    8.371230e+00    2.584486e+08    1.273429e-08    5.696360e-10    1.196320e-08    1.191139e-09   -1.660000e+00    9.796406e-01    5.912665e-01
    2.523282e+00    1.057770e+01    8.164810e+00    2.581920e+08    1.269957e-08    5.310525e-10    1.195512e-08    1.184971e-09   -1.650000e+00    9.796406e-01    5.832065e-01
    2.577105e+00    1.158961e+01    7.959230e+00    2.577394e+08    1.266608e-08    4.948045e-10    1.194611e-08    1.179046e-09   -1.640000e+00    9.796406e-01    5.751485e-01
    2.631709e+00    1.271087e+01    7.754620e+00    2.570901e+08    1.263378e-08    4.608061e-10    1.193618e-08    1.173358e-09   -1.630000e+00    9.796406e-01    5.670923e-01
    2.687104e+00    1.395002e+01    7.551120e+00    2.562457e+08    1.260258e-08    4.289660e-10    1.192535e-08    1.167900e-09   -1.620000e+00    9.796406e-01    5.590379e-01
    2.743325e+00    1.531548e+01    7.348850e+00    2.552098e+08    1.257244e-08    3.991880e-10    1.191366e-08    1.162661e-09   -1.610000e+00    9.796406e-01    5.509851e-01
    2.800410e+00    1.681549e+01    7.147955e+00    2.539878e+08    1.254327e-08    3.713733e-10    1.190111e-08    1.157634e-09   -1.600000e+00    9.796406e-01    5.429338e-01
    2.858422e+00    1.845802e+01    6.948550e+00    2.525861e+08    1.251501e-08    3.454216e-10    1.188772e-08    1.152807e-09   -1.590000e+00    9.796406e-01    5.348840e-01
    2.917437e+00    2.025076e+01    6.750755e+00    2.510127e+08    1.248758e-08    3.212322e-10    1.187352e-08    1.148172e-09   -1.580000e+00    9.796406e-01    5.268356e-01
    2.977537e+00    2.220108e+01    6.554690e+00    2.492758e+08    1.246090e-08    2.987054e-10    1.185849e-08    1.143715e-09   -1.570000e+00    9.796406e-01    5.187883e-01
    3.038828e+00    2.431605e+01    6.360455e+00    2.473843e+08    1.243490e-08    2.777428e-10    1.184266e-08    1.139426e-09   -1.560000e+00    9.796406e-01    5.107423e-01
    3.101418e+00    2.660246e+01    6.168155e+00    2.453475e+08    1.240950e-08    2.582488e-10    1.182604e-08    1.135294e-09   -1.550000e+00    9.796406e-01    5.026973e-01
    3.165425e+00    2.906684e+01    5.977885e+00    2.431743e+08    1.238460e-08    2.401306e-10    1.180861e-08    1.131308e-09   -1.540000e+00    9.796406e-01    4.946533e-01
    3.230979e+00    3.171565e+01    5.789730e+00    2.408735e+08    1.236014e-08    2.232989e-10    1.179038e-08    1.127454e-09   -1.530000e+00    9.796406e-01    4.866103e-01
    3.298211e+00    3.455519e+01    5.603780e+00    2.384535e+08    1.233604e-08    2.076684e-10    1.177133e-08    1.123722e-09   -1.520000e+00    9.796406e-01    4.785681e-01
    3.367268e+00    3.759182e+01    5.420105e+00    2.359224e+08    1.231222e-08    1.931574e-10    1.175147e-08    1.120101e-09   -1.510000e+00    9.796406e-01    4.705266e-01
    3.438293e+00    4.083195e+01    5.238785e+00    2.332876e+08    1.228859e-08    1.796886e-10    1.173076e-08    1.116578e-09   -1.500000e+00    9.796406e-01    4.624859e-01
    3.511448e+00    4.428225e+01    5.059880e+00    2.305559e+08    1.226508e-08    1.671893e-10    1.170919e-08    1.113143e-09   -1.490000e+00    9.796406e-01    4.544459e-01
    3.586894e+00    4.794963e+01    4.883455e+00    2.277337e+08    1.224161e-08    1.555904e-10    1.168673e-08    1.109784e-09   -1.480000e+00    9.796406e-01    4.464065e-01
    3.664802e+00    5.184146e+01    4.709570e+00    2.248269e+08    1.221809e-08    1.448273e-10    1.166336e-08    1.106489e-09   -1.470000e+00    9.796406e-01    4.383678e-01
    3.745352e+00    5.596555e+01    4.538280e+00    2.218408e+08    1.219446e-08    1.348395e-10    1.163904e-08    1.103249e-09   -1.460000e+00    9.796406e-01    4.303296e-01
    3.828731e+00    6.033030e+01    4.369638e+00    2.187800e+08    1.217062e-08    1.255705e-10    1.161373e-08    1.100050e-09   -1.450000e+00    9.796406e-01    4.222920e-01
    3.915141e+00    6.494479e+01    4.203693e+00    2.156488e+08    1.214651e-08    1.169673e-10    1.158738e-08    1.096883e-09   -1.440000e+00    9.796406e-01    4.142551e-01
    4.004792e+00    6.981892e+01    4.040492e+00    2.124511e+08    1.212203e-08    1.089810e-10    1.155996e-08    1.093737e-09   -1.430000e+00    9.796406e-01    4.062188e-01
    4.097904e+00    7.496332e+01    3.880081e+00    2.091901e+08    1.209711e-08    1.015658e-10    1.153140e-08    1.090600e-09   -1.420000e+00    9.796406e-01    3.981833e-01
    4.194718e+00    8.038971e+01    3.722502e+00    2.058689e+08    1.207166e-08    9.467940e-11    1.150165e-08    1.087462e-09   -1.410000e+00    9.796406e-01    3.901486e-01
    4.295482e+00    8.611073e+01    3.567798e+00    2.024902e+08    1.204559e-08    8.828235e-11    1.147064e-08    1.084310e-09   -1.400000e+00    9.796406e-01    3.821149e-01
    4.400467e+00    9.214023e+01    3.416007e+00    1.990561e+08    1.201883e-08    8.233830e-11    1.143830e-08    1.081134e-09   -1.390000e+00    9.796406e-01    3.740824e-01
    4.509957e+00    9.849320e+01    3.267170e+00    1.955685e+08    1.199128e-08    7.681350e-11    1.140456e-08    1.077922e-09   -1.380000e+00    9.796406e-01    3.660512e-01
    4.624259e+00    1.051860e+02    3.121324e+00    1.920291e+08    1.196283e-08    7.167680e-11    1.136933e-08    1.074663e-09   -1.370000e+00    9.796406e-01    3.580217e-01
    4.743702e+00    1.122364e+02    2.978506e+00    1.884391e+08    1.193342e-08    6.689935e-11    1.133252e-08    1.071344e-09   -1.360000e+00    9.796406e-01    3.499942e-01
    4.868636e+00    1.196637e+02    2.838753e+00    1.847997e+08    1.190293e-08    6.245455e-11    1.129405e-08    1.067954e-09   -1.350000e+00    9.796406e-01    3.419690e-01
    4.999434e+00    1.274886e+02    2.702101e+00    1.811114e+08    1.187126e-08    5.831775e-11    1.125381e-08    1.064478e-09   -1.340000e+00    9.796406e-01    3.339468e-01
    5.136498e+00    1.357337e+02    2.568586e+00    1.773747e+08    1.183831e-08    5.446635e-11    1.121168e-08    1.060906e-09   -1.330000e+00    9.796406e-01    3.259280e-01
    5.280261e+00    1.444231e+02    2.438242e+00    1.735900e+08    1.180396e-08    5.087930e-11    1.116756e-08    1.057223e-09   -1.320000e+00    9.796406e-01    3.179134e-01
    5.431179e+00    1.535831e+02    2.311106e+00    1.697570e+08    1.176811e-08    4.753729e-11    1.112134e-08    1.053415e-09   -1.310000e+00    9.796406e-01    3.099038e-01
    5.589744e+00    1.632414e+02    2.187213e+00    1.658754e+08    1.173063e-08    4.442246e-11    1.107287e-08    1.049468e-09   -1.300000e+00    9.796406e-01    3.019002e-01
    5.756479e+00    1.734282e+02    2.066599e+00    1.619446e+08    1.169141e-08    4.151833e-11    1.102201e-08    1.045367e-09   -1.290000e+00    9.796406e-01    2.939038e-01
    5.931939e+00    1.841749e+02    1.949299e+00    1.579638e+08    1.165031e-08    3.880970e-11    1.096864e-08    1.041097e-09   -1.280000e+00    9.796406e-01    2.859159e-01
    6.116713e+00    1.955154e+02    1.835349e+00    1.539320e+08    1.160721e-08    3.628252e-11    1.091258e-08    1.036641e-09   -1.270000e+00    9.796406e-01    2.779381e-01
    6.311429e+00    2.074848e+02    1.724785e+00    1.498480e+08    1.156197e-08    3.392384e-11    1.085370e-08    1.031983e-09   -1.260000e+00    9.796406e-01    2.699724e-01
    6.516733e+00    2.201202e+02    1.617644e+00    1.457100e+08    1.151446e-08    3.172168e-11    1.079182e-08    1.027106e-09   -1.250000e+00    9.796406e-01    2.620209e-01
    6.733310e+00    2.334597e+02    1.513962e+00    1.415168e+08    1.146452e-08    2.966498e-11    1.072677e-08    1.021991e-09   -1.240000e+00    9.796406e-01    2.540861e-01
    6.961864e+00    2.475421e+02    1.413776e+00    1.372665e+08    1.141200e-08    2.774355e-11    1.065838e-08    1.016620e-09   -1.230000e+00    9.796406e-01    2.461711e-01
    7.203121e+00    2.624068e+02    1.317124e+00    1.329575e+08    1.135676e-08    2.594794e-11    1.058645e-08    1.010974e-09   -1.220000e+00    9.796406e-01    2.382792e-01
    7.457805e+00    2.780923e+02    1.224041e+00    1.285880e+08    1.129865e-08    2.426941e-11    1.051080e-08    1.005034e-09   -1.210000e+00    9.796406e-01    2.304144e-01
    7.726639e+00    2.946355e+02    1.134563e+00    1.241566e+08    1.123750e-08    2.269992e-11    1.043124e-08    9.987780e-10   -1.200000e+00    9.796406e-01    2.225813e-01
    8.010331e+00    3.120706e+02    1.048725e+00    1.196621e+08    1.117315e-08    2.123198e-11    1.034757e-08    9.921860e-10   -1.190000e+00    9.796406e-01    2.147851e-01
    8.309526e+00    3.304267e+02    9.665605e-01    1.151038e+08    1.110544e-08    1.985869e-11    1.025959e-08    9.852375e-10   -1.180000e+00    9.796406e-01    2.070318e-01
    8.624808e+00    3.497261e+02    8.881015e-01    1.104817e+08    1.103422e-08    1.857366e-11    1.016710e-08    9.779105e-10   -1.170000e+00    9.796406e-01    1.993283e-01
    8.956638e+00    3.699813e+02    8.133755e-01    1.057967e+08    1.095933e-08    1.737096e-11    1.006990e-08    9.701835e-10   -1.160000e+00    9.796406e-01    1.916823e-01
    9.305340e+00    3.911927e+02    7.424065e-01    1.010511e+08    1.088061e-08    1.624510e-11    9.967795e-09    9.620340e-10   -1.150000e+00    9.796406e-01    1.841028e-01
    9.671023e+00    4.133436e+02    6.752135e-01    9.624845e+07    1.079792e-08    1.519099e-11    9.860590e-09    9.534420e-10   -1.140000e+00    9.796406e-01    1.765995e-01
    1.005351e+01    4.363971e+02    6.118090e-01    9.139440e+07    1.071111e-08    1.420391e-11    9.748105e-09    9.443845e-10   -1.130000e+00    9.796406e-01    1.691836e-01
    1.045232e+01    4.602911e+02    5.521970e-01    8.649698e+07    1.062003e-08    1.327946e-11    9.630160e-09    9.348420e-10   -1.120000e+00    9.796406e-01    1.618674e-01
    1.086656e+01    4.849337e+02    4.963704e-01    8.156668e+07    1.052459e-08    1.241359e-11    9.506590e-09    9.247940e-10   -1.110000e+00    9.796406e-01    1.546644e-01
    1.129482e+01    5.101972e+02    4.443117e-01    7.661694e+07    1.042467e-08    1.160252e-11    9.377260e-09    9.142215e-10   -1.100000e+00    9.796406e-01    1.475892e-01
    1.173514e+01    5.359164e+02    3.959887e-01    7.166457e+07    1.032017e-08    1.084272e-11    9.242035e-09    9.031075e-10   -1.090000e+00    9.796406e-01    1.406580e-01
    1.218492e+01    5.618827e+02    3.513532e-01    6.672951e+07    1.021102e-08    1.013092e-11    9.100815e-09    8.914355e-10   -1.080000e+00    9.796406e-01    1.338875e-01
    1.264089e+01    5.878443e+02    3.103394e-01    6.183511e+07    1.009717e-08    9.464085e-12    8.953515e-09    8.791925e-10   -1.070000e+00    9.796406e-01    1.272955e-01
    1.309905e+01    6.135069e+02    2.728622e-01    5.700773e+07    9.978600e-09    8.839375e-12    8.800095e-09    8.663660e-10   -1.060000e+00    9.796406e-01    1.209005e-01
    1.355472e+01    6.385381e+02    2.388161e-01    5.227622e+07    9.855305e-09    8.254155e-12    8.640540e-09    8.529485e-10   -1.050000e+00    9.796406e-01    1.147208e-01
    1.400259e+01    6.625753e+02    2.080750e-01    4.767103e+07    9.727330e-09    7.705950e-12    8.474875e-09    8.389340e-10   -1.040000e+00    9.796406e-01    1.087749e-01
    1.443686e+01    6.852407e+02    1.804921e-01    4.322332e+07    9.594735e-09    7.192465e-12    8.303165e-09    8.243205e-10   -1.030000e+00    9.796406e-01    1.030802e-01
    1.485146e+01    7.061563e+02    1.559019e-01    3.896352e+07    9.457630e-09    6.711550e-12    8.125525e-09    8.091105e-10   -1.020000e+00    9.796406e-01    9.765314e-02
    1.524028e+01    7.249651e+02    1.341212e-01    3.491999e+07    9.316150e-09    6.261205e-12    7.942105e-09    7.933095e-10   -1.010000e+00    9.796406e-01    9.250801e-02
    1.559752e+01    7.413545e+02    1.149533e-01    3.111750e+07    9.170490e-09    5.839545e-12    7.753125e-09    7.769290e-10   -1.000000e+00    9.796406e-01    8.765684e-02
    1.591799e+01    7.550771e+02    9.819120e-02    2.757612e+07    9.020860e-09    5.444820e-12    7.558835e-09    7.599840e-10   -9.900000e-01    9.796406e-01    8.310869e-02
    1.619754e+01    7.659713e+02    8.362170e-02    2.431000e+07    8.867540e-09    5.075375e-12    7.359555e-09    7.424950e-10   -9.800000e-01    9.796406e-01    7.886934e-02
    1.643321e+01    7.739736e+02    7.103070e-02    2.132697e+07    8.710830e-09    4.729679e-12    7.155650e-09    7.244875e-10   -9.700000e-01    9.796406e-01    7.494099e-02
    1.662362e+01    7.791268e+02    6.020710e-02    1.862826e+07    8.551085e-09    4.406277e-12    6.947530e-09    7.059930e-10   -9.600000e-01    9.796406e-01    7.132218e-02
    1.676895e+01    7.815739e+02    5.094720e-02    1.620886e+07    8.388685e-09    4.103813e-12    6.735665e-09    6.870465e-10   -9.500000e-01    9.796406e-01    6.800786e-02
    1.687095e+01    7.815516e+02    4.305833e-02    1.405824e+07    8.224055e-09    3.821012e-12    6.520565e-09    6.676890e-10   -9.400000e-01    9.796406e-01    6.498964e-02
    1.693286e+01    7.793682e+02    3.636129e-02    1.216132e+07    8.057660e-09    3.556676e-12    6.302790e-09    6.479660e-10   -9.300000e-01    9.796406e-01    6.225613e-02
    1.695904e+01    7.753836e+02    3.069248e-02    1.049972e+07    7.889975e-09    3.309678e-12    6.082925e-09    6.279265e-10   -9.200000e-01    9.796406e-01    5.979346e-02
    1.695480e+01    7.699838e+02    2.590473e-02    9.052935e+06    7.721515e-09    3.078956e-12    5.861600e-09    6.076250e-10   -9.100000e-01    9.796406e-01    5.758580e-02
    1.692591e+01    7.635565e+02    2.186755e-02    7.799457e+06    7.552800e-09    2.863512e-12    5.639460e-09    5.871175e-10   -9.000000e-01    9.796406e-01    5.561597e-02
    1.687833e+01    7.564738e+02    1.846671e-02    6.717771e+06    7.384375e-09    2.662406e-12    5.417165e-09    5.664635e-10   -8.900000e-01    9.796406e-01    5.386592e-02
    1.681786e+01    7.490745e+02    1.560326e-02    5.787131e+06    7.216775e-09    2.474751e-12    5.195385e-09    5.457240e-10   -8.800000e-01    9.796406e-01    5.231733e-02
    1.674998e+01    7.416556e+02    1.319235e-02    4.988083e+06    7.050545e-09    2.299712e-12    4.974799e-09    5.249625e-10   -8.700000e-01    9.796406e-01    5.095198e-02
    1.667958e+01    7.344676e+02    1.116171e-02    4.302841e+06    6.886215e-09    2.136502e-12    4.756062e-09    5.042410e-10   -8.600000e-01    9.796406e-01    4.975215e-02
    1.661098e+01    7.277143e+02    9.450230e-03    3.715443e+06    6.724300e-09    1.984378e-12    4.539822e-09    4.836221e-10   -8.500000e-01    9.796406e-01    4.870092e-02
    1.654782e+01    7.215558e+02    8.006480e-03    3.211799e+06    6.565295e-09    1.842642e-12    4.326696e-09    4.631673e-10   -8.400000e-01    9.796406e-01    4.778234e-02
    1.649320e+01    7.161151e+02    6.787305e-03    2.779631e+06    6.409665e-09    1.710633e-12    4.117273e-09    4.429359e-10   -8.300000e-01    9.796406e-01    4.698158e-02
    1.644965e+01    7.114830e+02    5.756615e-03    2.408348e+06    6.257845e-09    1.587730e-12    3.912098e-09    4.229845e-10   -8.200000e-01    9.796406e-01    4.628502e-02
    1.641926e+01    7.077266e+02    4.884258e-03    2.088886e+06    6.110230e-09    1.473346e-12    3.711674e-09    4.033666e-10   -8.100000e-01    9.796406e-01    4.568023e-02
    1.640384e+01    7.048966e+02    4.145050e-03    1.813538e+06    5.967175e-09    1.366929e-12    3.516454e-09    3.841318e-10   -8.000000e-01    9.796406e-01    4.515600e-02
    1.640495e+01    7.030318e+02    3.517974e-03    1.575775e+06    5.828995e-09    1.267959e-12    3.326837e-09    3.653255e-10   -7.900000e-01    9.796406e-01    4.470229e-02
    1.642400e+01    7.021650e+02    2.985467e-03    1.370075e+06    5.695960e-09    1.175947e-12    3.143167e-09    3.469884e-10   -7.800000e-01    9.796406e-01    4.431013e-02
    1.646238e+01    7.023293e+02    2.532839e-03    1.191788e+06    5.568285e-09    1.090432e-12    2.965733e-09    3.291563e-10   -7.700000e-01    9.796406e-01    4.397157e-02
    1.652148e+01    7.035589e+02    2.147790e-03    1.036982e+06    5.446150e-09    1.010981e-12    2.794766e-09    3.118601e-10   -7.600000e-01    9.796406e-01    4.367962e-02
    1.660276e+01    7.058938e+02    1.820002e-03    9.023398e+05    5.329690e-09    9.371865e-13    2.630441e-09    2.951256e-10   -7.500000e-01    9.796406e-01    4.342812e-02
    1.670776e+01    7.093784e+02    1.540806e-03    7.850544e+05    5.218990e-09    8.686660e-13    2.472880e-09    2.789734e-10   -7.400000e-01    9.796406e-01    4.321167e-02
    1.683816e+01    7.140652e+02    1.302906e-03    6.827447e+05    5.114105e-09    8.050610e-13    2.322153e-09    2.634195e-10   -7.300000e-01    9.796406e-01    4.302558e-02
    1.699569e+01    7.200119e+02    1.100156e-03    5.933871e+05    5.015045e-09    7.460350e-13    2.178286e-09    2.484749e-10   -7.200000e-01    9.796406e-01    4.286574e-02
