# sky130 pfet_01v8 gm/ID Processed Lookup Table
# Corner: fs
# Temperature: 25C
# W = 2.0 um
# L = 0.5 um (500 nm)
# Columns: gm/id [1/V]  gm/gds [V/V]  id/W [A/m]  ft [Hz]  Cgg/W [F/m]  Cgd/W [F/m]  Cgs/W [F/m]  Cdb/W [F/m]  vgs [V]  vth [V]  vdsat [V]
# vdsat = BSIM4 saturation voltage (|VDS|_sat, positive); use for headroom / saturation / cascode-bias calculations
#           gm/id          gm/gds            id/W              ft           Cgg/W           Cgd/W           Cgs/W           Cdb/W             vgs             vth           vdsat
    1.559167e+00    2.238837e+00    4.704746e+01    3.626437e+09    3.219355e-09    1.972745e-10    3.051196e-09    2.798747e-10   -1.800000e+00    9.245632e-01    7.650933e-01
    1.591291e+00    2.337378e+00    4.631390e+01    3.652563e+09    3.211319e-09    1.858526e-10    3.052315e-09    2.783268e-10   -1.790000e+00    9.245632e-01    7.568945e-01
    1.624499e+00    2.443397e+00    4.557351e+01    3.678134e+09    3.203498e-09    1.749030e-10    3.053204e-09    2.768229e-10   -1.780000e+00    9.245632e-01    7.486985e-01
    1.658643e+00    2.557671e+00    4.483153e+01    3.703091e+09    3.195893e-09    1.644258e-10    3.053863e-09    2.753638e-10   -1.770000e+00    9.245632e-01    7.405052e-01
    1.693812e+00    2.681068e+00    4.408635e+01    3.727369e+09    3.188505e-09    1.544184e-10    3.054296e-09    2.739496e-10   -1.760000e+00    9.245632e-01    7.323144e-01
    1.730031e+00    2.814554e+00    4.333809e+01    3.750893e+09    3.181333e-09    1.448761e-10    3.054506e-09    2.725807e-10   -1.750000e+00    9.245632e-01    7.241260e-01
    1.767328e+00    2.959212e+00    4.258687e+01    3.773591e+09    3.174374e-09    1.357924e-10    3.054497e-09    2.712569e-10   -1.740000e+00    9.245632e-01    7.159398e-01
    1.805720e+00    3.116237e+00    4.183284e+01    3.795373e+09    3.167623e-09    1.271584e-10    3.054273e-09    2.699779e-10   -1.730000e+00    9.245632e-01    7.077557e-01
    1.845228e+00    3.286957e+00    4.107616e+01    3.816148e+09    3.161076e-09    1.189642e-10    3.053840e-09    2.687431e-10   -1.720000e+00    9.245632e-01    6.995736e-01
    1.885866e+00    3.472831e+00    4.031701e+01    3.835812e+09    3.154727e-09    1.111982e-10    3.053202e-09    2.675520e-10   -1.710000e+00    9.245632e-01    6.913933e-01
    1.927640e+00    3.675457e+00    3.955558e+01    3.854254e+09    3.148570e-09    1.038474e-10    3.052365e-09    2.664036e-10   -1.700000e+00    9.245632e-01    6.832148e-01
    1.970556e+00    3.896576e+00    3.879210e+01    3.871361e+09    3.142596e-09    9.689830e-11    3.051333e-09    2.652969e-10   -1.690000e+00    9.245632e-01    6.750377e-01
    2.014608e+00    4.138048e+00    3.802683e+01    3.886998e+09    3.136797e-09    9.033625e-11    3.050111e-09    2.642308e-10   -1.680000e+00    9.245632e-01    6.668621e-01
    2.059788e+00    4.401855e+00    3.726002e+01    3.901035e+09    3.131165e-09    8.414630e-11    3.048707e-09    2.632039e-10   -1.670000e+00    9.245632e-01    6.586878e-01
    2.106078e+00    4.690060e+00    3.649198e+01    3.913328e+09    3.125689e-09    7.831285e-11    3.047122e-09    2.622151e-10   -1.660000e+00    9.245632e-01    6.505146e-01
    2.153455e+00    5.004783e+00    3.572304e+01    3.923734e+09    3.120360e-09    7.282025e-11    3.045363e-09    2.612627e-10   -1.650000e+00    9.245632e-01    6.423425e-01
    2.201891e+00    5.348145e+00    3.495354e+01    3.932111e+09    3.115168e-09    6.765275e-11    3.043433e-09    2.603453e-10   -1.640000e+00    9.245632e-01    6.341712e-01
    2.251354e+00    5.722207e+00    3.418389e+01    3.938318e+09    3.110103e-09    6.279460e-11    3.041336e-09    2.594612e-10   -1.630000e+00    9.245632e-01    6.260006e-01
    2.301810e+00    6.128892e+00    3.341448e+01    3.942225e+09    3.105153e-09    5.823030e-11    3.039076e-09    2.586090e-10   -1.620000e+00    9.245632e-01    6.178306e-01
    2.353226e+00    6.569913e+00    3.264576e+01    3.943715e+09    3.100309e-09    5.394445e-11    3.036657e-09    2.577870e-10   -1.610000e+00    9.245632e-01    6.096611e-01
    2.405570e+00    7.046685e+00    3.187818e+01    3.942690e+09    3.095559e-09    4.992223e-11    3.034079e-09    2.569934e-10   -1.600000e+00    9.245632e-01    6.014920e-01
    2.458822e+00    7.560264e+00    3.111221e+01    3.939075e+09    3.090893e-09    4.614906e-11    3.031346e-09    2.562268e-10   -1.590000e+00    9.245632e-01    5.933230e-01
    2.512965e+00    8.111248e+00    3.034836e+01    3.932817e+09    3.086298e-09    4.261090e-11    3.028458e-09    2.554854e-10   -1.580000e+00    9.245632e-01    5.851541e-01
    2.567996e+00    8.699792e+00    2.958710e+01    3.923893e+09    3.081766e-09    3.929422e-11    3.025418e-09    2.547675e-10   -1.570000e+00    9.245632e-01    5.769852e-01
    2.623928e+00    9.325551e+00    2.882893e+01    3.912306e+09    3.077286e-09    3.618604e-11    3.022224e-09    2.540716e-10   -1.560000e+00    9.245632e-01    5.688160e-01
    2.680786e+00    9.987738e+00    2.807436e+01    3.898087e+09    3.072845e-09    3.327392e-11    3.018878e-09    2.533959e-10   -1.550000e+00    9.245632e-01    5.606466e-01
    2.738615e+00    1.068516e+01    2.732387e+01    3.881296e+09    3.068432e-09    3.054601e-11    3.015377e-09    2.527389e-10   -1.540000e+00    9.245632e-01    5.524767e-01
    2.797468e+00    1.141629e+01    2.657793e+01    3.862000e+09    3.064038e-09    2.799103e-11    3.011721e-09    2.520991e-10   -1.530000e+00    9.245632e-01    5.443062e-01
    2.857420e+00    1.217939e+01    2.583700e+01    3.840293e+09    3.059651e-09    2.559830e-11    3.007906e-09    2.514747e-10   -1.520000e+00    9.245632e-01    5.361351e-01
    2.918558e+00    1.297263e+01    2.510152e+01    3.816282e+09    3.055259e-09    2.335769e-11    3.003932e-09    2.508641e-10   -1.510000e+00    9.245632e-01    5.279631e-01
    2.980979e+00    1.379414e+01    2.437193e+01    3.790073e+09    3.050853e-09    2.125964e-11    2.999793e-09    2.502661e-10   -1.500000e+00    9.245632e-01    5.197903e-01
    3.044790e+00    1.464212e+01    2.364861e+01    3.761779e+09    3.046420e-09    1.929514e-11    2.995486e-09    2.496789e-10   -1.490000e+00    9.245632e-01    5.116165e-01
    3.110113e+00    1.551501e+01    2.293195e+01    3.731516e+09    3.041950e-09    1.745569e-11    2.991005e-09    2.491010e-10   -1.480000e+00    9.245632e-01    5.034416e-01
    3.177075e+00    1.641143e+01    2.222231e+01    3.699394e+09    3.037429e-09    1.573332e-11    2.986346e-09    2.485309e-10   -1.470000e+00    9.245632e-01    4.952654e-01
    3.245812e+00    1.733026e+01    2.152003e+01    3.665519e+09    3.032848e-09    1.412054e-11    2.981500e-09    2.479671e-10   -1.460000e+00    9.245632e-01    4.870880e-01
    3.316465e+00    1.827067e+01    2.082541e+01    3.629990e+09    3.028195e-09    1.261034e-11    2.976461e-09    2.474081e-10   -1.450000e+00    9.245632e-01    4.789092e-01
    3.389187e+00    1.923217e+01    2.013879e+01    3.592903e+09    3.023455e-09    1.119613e-11    2.971223e-09    2.468524e-10   -1.440000e+00    9.245632e-01    4.707289e-01
    3.464130e+00    2.021449e+01    1.946043e+01    3.554338e+09    3.018617e-09    9.871770e-12    2.965773e-09    2.462984e-10   -1.430000e+00    9.245632e-01    4.625472e-01
    3.541467e+00    2.121769e+01    1.879060e+01    3.514380e+09    3.013668e-09    8.631505e-12    2.960103e-09    2.457447e-10   -1.420000e+00    9.245632e-01    4.543639e-01
    3.621363e+00    2.224200e+01    1.812958e+01    3.473093e+09    3.008594e-09    7.469970e-12    2.954203e-09    2.451895e-10   -1.410000e+00    9.245632e-01    4.461791e-01
    3.704002e+00    2.328793e+01    1.747761e+01    3.430543e+09    3.003382e-09    6.382155e-12    2.948060e-09    2.446315e-10   -1.400000e+00    9.245632e-01    4.379926e-01
    3.789575e+00    2.435618e+01    1.683492e+01    3.386787e+09    2.998016e-09    5.363375e-12    2.941661e-09    2.440688e-10   -1.390000e+00    9.245632e-01    4.298046e-01
    3.878287e+00    2.544762e+01    1.620174e+01    3.341876e+09    2.992482e-09    4.409287e-12    2.934992e-09    2.435000e-10   -1.380000e+00    9.245632e-01    4.216150e-01
    3.970346e+00    2.656322e+01    1.557829e+01    3.295850e+09    2.986764e-09    3.515827e-12    2.928040e-09    2.429231e-10   -1.370000e+00    9.245632e-01    4.134239e-01
    4.065979e+00    2.770414e+01    1.496479e+01    3.248750e+09    2.980845e-09    2.679217e-12    2.920787e-09    2.423367e-10   -1.360000e+00    9.245632e-01    4.052314e-01
    4.165428e+00    2.887164e+01    1.436143e+01    3.200612e+09    2.974709e-09    1.895943e-12    2.913215e-09    2.417387e-10   -1.350000e+00    9.245632e-01    3.970375e-01
    4.268947e+00    3.006702e+01    1.376842e+01    3.151460e+09    2.968336e-09    1.162737e-12    2.905307e-09    2.411273e-10   -1.340000e+00    9.245632e-01    3.888426e-01
    4.376807e+00    3.129172e+01    1.318596e+01    3.101321e+09    2.961710e-09    4.765591e-13    2.897042e-09    2.405006e-10   -1.330000e+00    9.245632e-01    3.806467e-01
    4.489299e+00    3.254722e+01    1.261424e+01    3.050214e+09    2.954809e-09    1.654130e-13    2.888399e-09    2.398566e-10   -1.320000e+00    9.245632e-01    3.724501e-01
    4.606735e+00    3.383502e+01    1.205344e+01    2.998154e+09    2.947613e-09    7.658000e-13    2.879354e-09    2.391930e-10   -1.310000e+00    9.245632e-01    3.642532e-01
    4.729441e+00    3.515670e+01    1.150376e+01    2.945151e+09    2.940100e-09    1.327035e-12    2.869885e-09    2.385077e-10   -1.300000e+00    9.245632e-01    3.560563e-01
    4.857773e+00    3.651384e+01    1.096537e+01    2.891214e+09    2.932248e-09    1.851374e-12    2.859965e-09    2.377985e-10   -1.290000e+00    9.245632e-01    3.478600e-01
    4.992113e+00    3.790810e+01    1.043848e+01    2.836348e+09    2.924032e-09    2.340907e-12    2.849566e-09    2.370627e-10   -1.280000e+00    9.245632e-01    3.396648e-01
    5.132867e+00    3.934109e+01    9.923235e+00    2.780553e+09    2.915428e-09    2.797572e-12    2.838660e-09    2.362980e-10   -1.270000e+00    9.245632e-01    3.314714e-01
    5.280462e+00    4.081435e+01    9.419840e+00    2.723824e+09    2.906408e-09    3.223160e-12    2.827215e-09    2.355015e-10   -1.260000e+00    9.245632e-01    3.232807e-01
    5.435358e+00    4.232948e+01    8.928475e+00    2.666153e+09    2.896947e-09    3.619330e-12    2.815201e-09    2.346707e-10   -1.250000e+00    9.245632e-01    3.150936e-01
    5.598048e+00    4.388798e+01    8.449315e+00    2.607531e+09    2.887014e-09    3.987614e-12    2.802583e-09    2.338024e-10   -1.240000e+00    9.245632e-01    3.069112e-01
    5.769057e+00    4.549125e+01    7.982540e+00    2.547942e+09    2.876580e-09    4.329426e-12    2.789323e-09    2.328938e-10   -1.230000e+00    9.245632e-01    2.987350e-01
    5.948928e+00    4.714061e+01    7.528340e+00    2.487369e+09    2.865616e-09    4.646071e-12    2.775387e-09    2.319413e-10   -1.220000e+00    9.245632e-01    2.905666e-01
    6.138250e+00    4.883720e+01    7.086890e+00    2.425791e+09    2.854086e-09    4.938750e-12    2.760733e-09    2.309420e-10   -1.210000e+00    9.245632e-01    2.824077e-01
    6.337625e+00    5.058197e+01    6.658380e+00    2.363183e+09    2.841959e-09    5.208570e-12    2.745322e-09    2.298920e-10   -1.200000e+00    9.245632e-01    2.742606e-01
    6.547699e+00    5.237562e+01    6.242985e+00    2.299522e+09    2.829199e-09    5.456550e-12    2.729110e-09    2.287878e-10   -1.190000e+00    9.245632e-01    2.661278e-01
    6.769122e+00    5.421854e+01    5.840895e+00    2.234778e+09    2.815772e-09    5.683620e-12    2.712055e-09    2.276256e-10   -1.180000e+00    9.245632e-01    2.580121e-01
    7.002571e+00    5.611070e+01    5.452290e+00    2.168924e+09    2.801640e-09    5.890640e-12    2.694110e-09    2.264014e-10   -1.170000e+00    9.245632e-01    2.499171e-01
    7.248723e+00    5.805165e+01    5.077355e+00    2.101932e+09    2.786767e-09    6.078390e-12    2.675229e-09    2.251112e-10   -1.160000e+00    9.245632e-01    2.418465e-01
    7.508260e+00    6.004041e+01    4.716264e+00    2.033777e+09    2.771113e-09    6.247600e-12    2.655365e-09    2.237508e-10   -1.150000e+00    9.245632e-01    2.338049e-01
    7.781834e+00    6.207528e+01    4.369194e+00    1.964438e+09    2.754641e-09    6.398920e-12    2.634469e-09    2.223159e-10   -1.140000e+00    9.245632e-01    2.257974e-01
    8.070065e+00    6.415382e+01    4.036312e+00    1.893902e+09    2.737312e-09    6.532955e-12    2.612493e-09    2.208019e-10   -1.130000e+00    9.245632e-01    2.178300e-01
    8.373503e+00    6.627285e+01    3.717779e+00    1.822165e+09    2.719088e-09    6.650260e-12    2.589388e-09    2.192045e-10   -1.120000e+00    9.245632e-01    2.099093e-01
    8.692605e+00    6.842800e+01    3.413742e+00    1.749235e+09    2.699930e-09    6.751340e-12    2.565104e-09    2.175190e-10   -1.110000e+00    9.245632e-01    2.020429e-01
    9.027689e+00    7.061390e+01    3.124334e+00    1.675141e+09    2.679802e-09    6.836660e-12    2.539594e-09    2.157410e-10   -1.100000e+00    9.245632e-01    1.942395e-01
    9.378897e+00    7.282396e+01    2.849665e+00    1.599934e+09    2.658666e-09    6.906655e-12    2.512810e-09    2.138658e-10   -1.090000e+00    9.245632e-01    1.865087e-01
    9.746137e+00    7.505021e+01    2.589824e+00    1.523691e+09    2.636488e-09    6.961725e-12    2.484708e-09    2.118890e-10   -1.080000e+00    9.245632e-01    1.788614e-01
    1.012902e+01    7.728334e+01    2.344862e+00    1.446526e+09    2.613237e-09    7.002240e-12    2.455245e-09    2.098062e-10   -1.070000e+00    9.245632e-01    1.713096e-01
    1.052681e+01    7.951254e+01    2.114799e+00    1.368591e+09    2.588881e-09    7.028565e-12    2.424381e-09    2.076131e-10   -1.060000e+00    9.245632e-01    1.638665e-01
    1.093831e+01    8.172557e+01    1.899603e+00    1.290083e+09    2.563395e-09    7.041040e-12    2.392079e-09    2.053056e-10   -1.050000e+00    9.245632e-01    1.565465e-01
    1.136185e+01    8.390874e+01    1.699193e+00    1.211247e+09    2.536758e-09    7.039990e-12    2.358309e-09    2.028801e-10   -1.040000e+00    9.245632e-01    1.493653e-01
    1.179518e+01    8.604709e+01    1.513424e+00    1.132383e+09    2.508949e-09    7.025740e-12    2.323045e-09    2.003331e-10   -1.030000e+00    9.245632e-01    1.423395e-01
    1.223542e+01    8.812460e+01    1.342088e+00    1.053842e+09    2.479959e-09    6.998625e-12    2.286266e-09    1.976616e-10   -1.020000e+00    9.245632e-01    1.354866e-01
    1.267906e+01    9.012439e+01    1.184896e+00    9.760244e+08    2.449779e-09    6.958970e-12    2.247962e-09    1.948631e-10   -1.010000e+00    9.245632e-01    1.288249e-01
    1.312193e+01    9.202920e+01    1.041485e+00    8.993750e+08    2.418410e-09    6.907130e-12    2.208126e-09    1.919355e-10   -1.000000e+00    9.245632e-01    1.223730e-01
    1.355924e+01    9.382172e+01    9.114075e-01    8.243712e+08    2.385861e-09    6.843455e-12    2.166765e-09    1.888776e-10   -9.900000e-01    9.245632e-01    1.161493e-01
    1.398571e+01    9.548543e+01    7.941355e-01    7.515101e+08    2.352147e-09    6.768325e-12    2.123892e-09    1.856888e-10   -9.800000e-01    9.245632e-01    1.101718e-01
    1.439571e+01    9.700474e+01    6.890620e-01    6.812878e+08    2.317293e-09    6.682155e-12    2.079534e-09    1.823694e-10   -9.700000e-01    9.245632e-01    1.044575e-01
    1.478347e+01    9.836618e+01    5.955075e-01    6.141795e+08    2.281332e-09    6.585370e-12    2.033726e-09    1.789203e-10   -9.600000e-01    9.245632e-01    9.902182e-02
    1.514335e+01    9.955859e+01    5.127325e-01    5.506178e+08    2.244310e-09    6.478445e-12    1.986518e-09    1.753437e-10   -9.500000e-01    9.245632e-01    9.387786e-02
    1.547015e+01    1.005741e+02    4.399485e-01    4.909714e+08    2.206278e-09    6.361870e-12    1.937970e-09    1.716425e-10   -9.400000e-01    9.245632e-01    8.903625e-02
    1.575941e+01    1.014080e+02    3.763340e-01    4.355258e+08    2.167303e-09    6.236180e-12    1.888157e-09    1.678210e-10   -9.300000e-01    9.245632e-01    8.450450e-02
    1.600772e+01    1.020600e+02    3.210530e-01    3.844729e+08    2.127456e-09    6.101960e-12    1.837163e-09    1.638840e-10   -9.200000e-01    9.245632e-01    8.028670e-02
    1.621291e+01    1.025336e+02    2.732717e-01    3.379019e+08    2.086821e-09    5.959810e-12    1.785089e-09    1.598380e-10   -9.100000e-01    9.245632e-01    7.638341e-02
    1.637429e+01    1.028365e+02    2.321757e-01    2.958019e+08    2.045494e-09    5.810380e-12    1.732046e-09    1.556902e-10   -9.000000e-01    9.245632e-01    7.279159e-02
    1.649258e+01    1.029801e+02    1.969844e-01    2.580684e+08    2.003576e-09    5.654350e-12    1.678155e-09    1.514490e-10   -8.900000e-01    9.245632e-01    6.950476e-02
    1.656995e+01    1.029794e+02    1.669642e-01    2.245161e+08    1.961178e-09    5.492435e-12    1.623551e-09    1.471237e-10   -8.800000e-01    9.245632e-01    6.651329e-02
    1.660975e+01    1.028516e+02    1.414365e-01    1.948953e+08    1.918419e-09    5.325365e-12    1.568376e-09    1.427247e-10   -8.700000e-01    9.245632e-01    6.380484e-02
    1.661632e+01    1.026163e+02    1.197846e-01    1.689106e+08    1.875423e-09    5.153905e-12    1.512780e-09    1.382633e-10   -8.600000e-01    9.245632e-01    6.136479e-02
    1.659465e+01    1.022936e+02    1.014554e-01    1.462387e+08    1.832318e-09    4.978825e-12    1.456922e-09    1.337512e-10   -8.500000e-01    9.245632e-01    5.917685e-02
    1.655008e+01    1.019039e+02    8.595965e-02    1.265455e+08    1.789239e-09    4.800917e-12    1.400963e-09    1.292012e-10   -8.400000e-01    9.245632e-01    5.722356e-02
    1.648793e+01    1.014671e+02    7.286990e-02    1.094993e+08    1.746318e-09    4.620964e-12    1.345068e-09    1.246261e-10   -8.300000e-01    9.245632e-01    5.548683e-02
    1.641334e+01    1.010013e+02    6.181590e-02    9.478220e+07    1.703690e-09    4.439748e-12    1.289402e-09    1.200394e-10   -8.200000e-01    9.245632e-01    5.394840e-02
    1.633097e+01    1.005232e+02    5.248015e-02    8.209743e+07    1.661489e-09    4.258036e-12    1.234129e-09    1.154546e-10   -8.100000e-01    9.245632e-01    5.259028e-02
    1.624497e+01    1.000468e+02    4.459196e-02    7.117419e+07    1.619844e-09    4.076576e-12    1.179411e-09    1.108853e-10   -8.000000e-01    9.245632e-01    5.139503e-02
    1.615882e+01    9.958397e+01    3.792217e-02    6.176946e+07    1.578880e-09    3.896086e-12    1.125402e-09    1.063448e-10   -7.900000e-01    9.245632e-01    5.034603e-02
    1.607540e+01    9.914426e+01    3.227742e-02    5.366884e+07    1.538716e-09    3.717250e-12    1.072252e-09    1.018462e-10   -7.800000e-01    9.245632e-01    4.942769e-02
    1.599700e+01    9.873524e+01    2.749519e-02    4.668521e+07    1.499465e-09    3.540712e-12    1.020100e-09    9.740200e-11   -7.700000e-01    9.245632e-01    4.862552e-02
    1.592537e+01    9.836216e+01    2.343910e-02    4.065676e+07    1.461227e-09    3.367067e-12    9.690740e-10    9.302415e-11   -7.600000e-01    9.245632e-01    4.792620e-02
    1.586182e+01    9.802893e+01    1.999489e-02    3.544479e+07    1.424098e-09    3.196859e-12    9.192935e-10    8.872380e-11   -7.500000e-01    9.245632e-01    4.731760e-02
    1.580731e+01    9.773803e+01    1.706687e-02    3.093091e+07    1.388159e-09    3.030578e-12    8.708625e-10    8.451135e-11   -7.400000e-01    9.245632e-01    4.678878e-02
    1.576252e+01    9.749106e+01    1.457486e-02    2.701455e+07    1.353482e-09    2.868658e-12    8.238730e-10    8.039610e-11   -7.300000e-01    9.245632e-01    4.632989e-02
    1.572798e+01    9.728883e+01    1.245167e-02    2.361044e+07    1.320129e-09    2.711472e-12    7.784035e-10    7.638645e-11   -7.200000e-01    9.245632e-01    4.593216e-02
