# sky130 pfet_01v8 gm/ID Processed Lookup Table
# Corner: fs
# Temperature: -40C
# W = 2.0 um
# L = 1 um (1000 nm)
# Columns: gm/id [1/V]  gm/gds [V/V]  id/W [A/m]  ft [Hz]  Cgg/W [F/m]  Cgd/W [F/m]  Cgs/W [F/m]  Cdb/W [F/m]  vgs [V]  vth [V]  vdsat [V]
# vdsat = BSIM4 saturation voltage (|VDS|_sat, positive); use for headroom / saturation / cascode-bias calculations
#           gm/id          gm/gds            id/W              ft           Cgg/W           Cgd/W           Cgs/W           Cdb/W             vgs             vth           vdsat
    2.147152e+00    5.386490e+00    2.280570e+01    1.200248e+09    6.493145e-09    3.151755e-10    6.116350e-09    5.541760e-10   -1.800000e+00    1.052089e+00    6.526098e-01
    2.196027e+00    5.807254e+00    2.231602e+01    1.204078e+09    6.477690e-09    2.953497e-10    6.115875e-09    5.514210e-10   -1.790000e+00    1.052089e+00    6.441690e-01
    2.245964e+00    6.274818e+00    2.182565e+01    1.207173e+09    6.462800e-09    2.765941e-10    6.114970e-09    5.487695e-10   -1.780000e+00    1.052089e+00    6.357345e-01
    2.296848e+00    6.794209e+00    2.133551e+01    1.209482e+09    6.448460e-09    2.588801e-10    6.113640e-09    5.462200e-10   -1.770000e+00    1.052089e+00    6.273062e-01
    2.348649e+00    7.370624e+00    2.084567e+01    1.210956e+09    6.434660e-09    2.421761e-10    6.111910e-09    5.437700e-10   -1.760000e+00    1.052089e+00    6.188840e-01
    2.401316e+00    8.009343e+00    2.035643e+01    1.211554e+09    6.421380e-09    2.264471e-10    6.109780e-09    5.414180e-10   -1.750000e+00    1.052089e+00    6.104678e-01
    2.454801e+00    8.715551e+00    1.986813e+01    1.211240e+09    6.408600e-09    2.116559e-10    6.107280e-09    5.391610e-10   -1.740000e+00    1.052089e+00    6.020575e-01
    2.509066e+00    9.494201e+00    1.938110e+01    1.209991e+09    6.396295e-09    1.977638e-10    6.104415e-09    5.369965e-10   -1.730000e+00    1.052089e+00    5.936530e-01
    2.564082e+00    1.034984e+01    1.889568e+01    1.207790e+09    6.384445e-09    1.847306e-10    6.101205e-09    5.349215e-10   -1.720000e+00    1.052089e+00    5.852542e-01
    2.619836e+00    1.128646e+01    1.841221e+01    1.204632e+09    6.373025e-09    1.725156e-10    6.097655e-09    5.329320e-10   -1.710000e+00    1.052089e+00    5.768611e-01
    2.676333e+00    1.230732e+01    1.793105e+01    1.200527e+09    6.362005e-09    1.610778e-10    6.093785e-09    5.310250e-10   -1.700000e+00    1.052089e+00    5.684734e-01
    2.733594e+00    1.341487e+01    1.745253e+01    1.195489e+09    6.351365e-09    1.503766e-10    6.089605e-09    5.291965e-10   -1.690000e+00    1.052089e+00    5.600912e-01
    2.791662e+00    1.461071e+01    1.697700e+01    1.189544e+09    6.341080e-09    1.403716e-10    6.085125e-09    5.274425e-10   -1.680000e+00    1.052089e+00    5.517143e-01
    2.850594e+00    1.589557e+01    1.650476e+01    1.182727e+09    6.331115e-09    1.310235e-10    6.080355e-09    5.257600e-10   -1.670000e+00    1.052089e+00    5.433426e-01
    2.910467e+00    1.726940e+01    1.603613e+01    1.175074e+09    6.321455e-09    1.222938e-10    6.075300e-09    5.241450e-10   -1.660000e+00    1.052089e+00    5.349761e-01
    2.971374e+00    1.873148e+01    1.557140e+01    1.166632e+09    6.312065e-09    1.141453e-10    6.069975e-09    5.225930e-10   -1.650000e+00    1.052089e+00    5.266146e-01
    3.033419e+00    2.028055e+01    1.511085e+01    1.157443e+09    6.302920e-09    1.065425e-10    6.064380e-09    5.211005e-10   -1.640000e+00    1.052089e+00    5.182580e-01
    3.096719e+00    2.191503e+01    1.465474e+01    1.147554e+09    6.294000e-09    9.945070e-11    6.058520e-09    5.196635e-10   -1.630000e+00    1.052089e+00    5.099064e-01
    3.161401e+00    2.363318e+01    1.420330e+01    1.137011e+09    6.285275e-09    9.283740e-11    6.052405e-09    5.182790e-10   -1.620000e+00    1.052089e+00    5.015595e-01
    3.227598e+00    2.543330e+01    1.375676e+01    1.125856e+09    6.276720e-09    8.667135e-11    6.046025e-09    5.169425e-10   -1.610000e+00    1.052089e+00    4.932173e-01
    3.295454e+00    2.731387e+01    1.331534e+01    1.114133e+09    6.268310e-09    8.092305e-11    6.039395e-09    5.156505e-10   -1.600000e+00    1.052089e+00    4.848797e-01
    3.365120e+00    2.927371e+01    1.287922e+01    1.101881e+09    6.260020e-09    7.556460e-11    6.032500e-09    5.143995e-10   -1.590000e+00    1.052089e+00    4.765466e-01
    3.436749e+00    3.131207e+01    1.244859e+01    1.089134e+09    6.251825e-09    7.056965e-11    6.025350e-09    5.131865e-10   -1.580000e+00    1.052089e+00    4.682180e-01
    3.510508e+00    3.342874e+01    1.202362e+01    1.075927e+09    6.243705e-09    6.591345e-11    6.017935e-09    5.120070e-10   -1.570000e+00    1.052089e+00    4.598938e-01
    3.586563e+00    3.562411e+01    1.160446e+01    1.062292e+09    6.235625e-09    6.157275e-11    6.010245e-09    5.108580e-10   -1.560000e+00    1.052089e+00    4.515738e-01
    3.665096e+00    3.789915e+01    1.119127e+01    1.048253e+09    6.227570e-09    5.752580e-11    6.002280e-09    5.097360e-10   -1.550000e+00    1.052089e+00    4.432580e-01
    3.746293e+00    4.025552e+01    1.078416e+01    1.033836e+09    6.219515e-09    5.375215e-11    5.994030e-09    5.086380e-10   -1.540000e+00    1.052089e+00    4.349464e-01
    3.830350e+00    4.269548e+01    1.038330e+01    1.019067e+09    6.211425e-09    5.023285e-11    5.985485e-09    5.075605e-10   -1.530000e+00    1.052089e+00    4.266388e-01
    3.917478e+00    4.522206e+01    9.988775e+00    1.003962e+09    6.203285e-09    4.695010e-11    5.976625e-09    5.065000e-10   -1.520000e+00    1.052089e+00    4.183353e-01
    4.007900e+00    4.783883e+01    9.600715e+00    9.885419e+08    6.195060e-09    4.388737e-11    5.967440e-09    5.054535e-10   -1.510000e+00    1.052089e+00    4.100357e-01
    4.101850e+00    5.055006e+01    9.219235e+00    9.728232e+08    6.186725e-09    4.102924e-11    5.957915e-09    5.044170e-10   -1.500000e+00    1.052089e+00    4.017400e-01
    4.199584e+00    5.336075e+01    8.844430e+00    9.568204e+08    6.178255e-09    3.836138e-11    5.948025e-09    5.033875e-10   -1.490000e+00    1.052089e+00    3.934482e-01
    4.301370e+00    5.627651e+01    8.476410e+00    9.405477e+08    6.169615e-09    3.587047e-11    5.937750e-09    5.023615e-10   -1.480000e+00    1.052089e+00    3.851602e-01
    4.407506e+00    5.930372e+01    8.115260e+00    9.240167e+08    6.160780e-09    3.354414e-11    5.927070e-09    5.013355e-10   -1.470000e+00    1.052089e+00    3.768760e-01
    4.518305e+00    6.244934e+01    7.761080e+00    9.072397e+08    6.151710e-09    3.137088e-11    5.915950e-09    5.003055e-10   -1.460000e+00    1.052089e+00    3.685957e-01
    4.634114e+00    6.572123e+01    7.413950e+00    8.902251e+08    6.142380e-09    2.934002e-11    5.904365e-09    4.992682e-10   -1.450000e+00    1.052089e+00    3.603191e-01
    4.755298e+00    6.912793e+01    7.073965e+00    8.729833e+08    6.132745e-09    2.744167e-11    5.892280e-09    4.982193e-10   -1.440000e+00    1.052089e+00    3.520464e-01
    4.882270e+00    7.267893e+01    6.741200e+00    8.555228e+08    6.122765e-09    2.566664e-11    5.879650e-09    4.971547e-10   -1.430000e+00    1.052089e+00    3.437776e-01
    5.015462e+00    7.638454e+01    6.415745e+00    8.378489e+08    6.112410e-09    2.400641e-11    5.866445e-09    4.960701e-10   -1.420000e+00    1.052089e+00    3.355128e-01
    5.155362e+00    8.025603e+01    6.097670e+00    8.199695e+08    6.101625e-09    2.245309e-11    5.852610e-09    4.949610e-10   -1.410000e+00    1.052089e+00    3.272521e-01
    5.302495e+00    8.430577e+01    5.787055e+00    8.018898e+08    6.090365e-09    2.099933e-11    5.838100e-09    4.938223e-10   -1.400000e+00    1.052089e+00    3.189956e-01
    5.457439e+00    8.854725e+01    5.483975e+00    7.836137e+08    6.078585e-09    1.963838e-11    5.822855e-09    4.926489e-10   -1.390000e+00    1.052089e+00    3.107436e-01
    5.620819e+00    9.299512e+01    5.188510e+00    7.651458e+08    6.066220e-09    1.836391e-11    5.806820e-09    4.914353e-10   -1.380000e+00    1.052089e+00    3.024963e-01
    5.793335e+00    9.766545e+01    4.900728e+00    7.464888e+08    6.053215e-09    1.717009e-11    5.789925e-09    4.901755e-10   -1.370000e+00    1.052089e+00    2.942542e-01
    5.975747e+00    1.025757e+02    4.620704e+00    7.276442e+08    6.039505e-09    1.605151e-11    5.772095e-09    4.888631e-10   -1.360000e+00    1.052089e+00    2.860176e-01
    6.168891e+00    1.077448e+02    4.348509e+00    7.086125e+08    6.025025e-09    1.500315e-11    5.753255e-09    4.874913e-10   -1.350000e+00    1.052089e+00    2.777871e-01
    6.373685e+00    1.131936e+02    4.084218e+00    6.893930e+08    6.009700e-09    1.402035e-11    5.733320e-09    4.860526e-10   -1.340000e+00    1.052089e+00    2.695634e-01
    6.591139e+00    1.189444e+02    3.827903e+00    6.699849e+08    5.993445e-09    1.309879e-11    5.712190e-09    4.845390e-10   -1.330000e+00    1.052089e+00    2.613473e-01
    6.822357e+00    1.250216e+02    3.579638e+00    6.503848e+08    5.976175e-09    1.223446e-11    5.689765e-09    4.829420e-10   -1.320000e+00    1.052089e+00    2.531400e-01
    7.068554e+00    1.314514e+02    3.339497e+00    6.305881e+08    5.957800e-09    1.142365e-11    5.665935e-09    4.812522e-10   -1.310000e+00    1.052089e+00    2.449428e-01
    7.331053e+00    1.382620e+02    3.107555e+00    6.105896e+08    5.938215e-09    1.066290e-11    5.640585e-09    4.794597e-10   -1.300000e+00    1.052089e+00    2.367572e-01
    7.611299e+00    1.454835e+02    2.883889e+00    5.903811e+08    5.917320e-09    9.949000e-12    5.613580e-09    4.775535e-10   -1.290000e+00    1.052089e+00    2.285853e-01
    7.910858e+00    1.531477e+02    2.668579e+00    5.699546e+08    5.894995e-09    9.278990e-12    5.584780e-09    4.755220e-10   -1.280000e+00    1.052089e+00    2.204294e-01
    8.231422e+00    1.612882e+02    2.461702e+00    5.492998e+08    5.871120e-09    8.650100e-12    5.554045e-09    4.733527e-10   -1.270000e+00    1.052089e+00    2.122925e-01
    8.574805e+00    1.699396e+02    2.263340e+00    5.284063e+08    5.845560e-09    8.059765e-12    5.521205e-09    4.710323e-10   -1.260000e+00    1.052089e+00    2.041782e-01
    8.942920e+00    1.791368e+02    2.073575e+00    5.072621e+08    5.818175e-09    7.505600e-12    5.486095e-09    4.685463e-10   -1.250000e+00    1.052089e+00    1.960908e-01
    9.337772e+00    1.889144e+02    1.892491e+00    4.858552e+08    5.788825e-09    6.985395e-12    5.448530e-09    4.658795e-10   -1.240000e+00    1.052089e+00    1.880355e-01
    9.761422e+00    1.993049e+02    1.720170e+00    4.641747e+08    5.757355e-09    6.497085e-12    5.408325e-09    4.630155e-10   -1.230000e+00    1.052089e+00    1.800187e-01
    1.021592e+01    2.103371e+02    1.556691e+00    4.422126e+08    5.723595e-09    6.038755e-12    5.365280e-09    4.599372e-10   -1.220000e+00    1.052089e+00    1.720480e-01
    1.070322e+01    2.220331e+02    1.402134e+00    4.199638e+08    5.687380e-09    5.608630e-12    5.319185e-09    4.566263e-10   -1.210000e+00    1.052089e+00    1.641324e-01
    1.122511e+01    2.344050e+02    1.256567e+00    3.974298e+08    5.648535e-09    5.205045e-12    5.269815e-09    4.530640e-10   -1.200000e+00    1.052089e+00    1.562828e-01
    1.178301e+01    2.474512e+02    1.120050e+00    3.746207e+08    5.606885e-09    4.826468e-12    5.216955e-09    4.492304e-10   -1.190000e+00    1.052089e+00    1.485118e-01
    1.237778e+01    2.611502e+02    9.926270e-01    3.515596e+08    5.562245e-09    4.471456e-12    5.160375e-09    4.451050e-10   -1.180000e+00    1.052089e+00    1.408345e-01
    1.300950e+01    2.754543e+02    8.743225e-01    3.282856e+08    5.514430e-09    4.138672e-12    5.099845e-09    4.406673e-10   -1.170000e+00    1.052089e+00    1.332683e-01
    1.367715e+01    2.902836e+02    7.651295e-01    3.048586e+08    5.463265e-09    3.826868e-12    5.035140e-09    4.358960e-10   -1.160000e+00    1.052089e+00    1.258332e-01
    1.437823e+01    3.055175e+02    6.650050e-01    2.813637e+08    5.408570e-09    3.534879e-12    4.966034e-09    4.307701e-10   -1.150000e+00    1.052089e+00    1.185518e-01
    1.510842e+01    3.209881e+02    5.738585e-01    2.579144e+08    5.350180e-09    3.261616e-12    4.892313e-09    4.252689e-10   -1.140000e+00    1.052089e+00    1.114498e-01
    1.586120e+01    3.364765e+02    4.915435e-01    2.346558e+08    5.287945e-09    3.006062e-12    4.813780e-09    4.193728e-10   -1.130000e+00    1.052089e+00    1.045548e-01
    1.662754e+01    3.517088e+02    4.178463e-01    2.117633e+08    5.221725e-09    2.767262e-12    4.730255e-09    4.130628e-10   -1.120000e+00    1.052089e+00    9.789675e-02
    1.739578e+01    3.663629e+02    3.524797e-01    1.894402e+08    5.151410e-09    2.544321e-12    4.641589e-09    4.063221e-10   -1.110000e+00    1.052089e+00    9.150685e-02
    1.815176e+01    3.800788e+02    2.950777e-01    1.679099e+08    5.076905e-09    2.336395e-12    4.547663e-09    3.991362e-10   -1.100000e+00    1.052089e+00    8.541640e-02
    1.887921e+01    3.924781e+02    2.451948e-01    1.474022e+08    4.998171e-09    2.142690e-12    4.448399e-09    3.914934e-10   -1.090000e+00    1.052089e+00    7.965562e-02
    1.956072e+01    4.031958e+02    2.023113e-01    1.281400e+08    4.915190e-09    1.962452e-12    4.343769e-09    3.833856e-10   -1.080000e+00    1.052089e+00    7.425204e-02
    2.017895e+01    4.119126e+02    1.658444e-01    1.103195e+08    4.827998e-09    1.794971e-12    4.233800e-09    3.748089e-10   -1.070000e+00    1.052089e+00    6.922888e-02
    2.071825e+01    4.183929e+02    1.351644e-01    9.409388e+07    4.736682e-09    1.639566e-12    4.118580e-09    3.657645e-10   -1.060000e+00    1.052089e+00    6.460347e-02
    2.116626e+01    4.225157e+02    1.096166e-01    7.955977e+07    4.641383e-09    1.495588e-12    3.998270e-09    3.562587e-10   -1.050000e+00    1.052089e+00    6.038598e-02
    2.151540e+01    4.242945e+02    8.854375e-02    6.675003e+07    4.542302e-09    1.362416e-12    3.873100e-09    3.463040e-10   -1.040000e+00    1.052089e+00    5.657866e-02
    2.176374e+01    4.238783e+02    7.130870e-02    5.563421e+07    4.439707e-09    1.239451e-12    3.743378e-09    3.359197e-10   -1.030000e+00    1.052089e+00    5.317565e-02
    2.191523e+01    4.215362e+02    5.731405e-02    4.612604e+07    4.333922e-09    1.126117e-12    3.609494e-09    3.251311e-10   -1.020000e+00    1.052089e+00    5.016344e-02
    2.197904e+01    4.176249e+02    4.601678e-02    3.809636e+07    4.225339e-09    1.021855e-12    3.471910e-09    3.139709e-10   -1.010000e+00    1.052089e+00    4.752184e-02
    2.196824e+01    4.125466e+02    3.693700e-02    3.138844e+07    4.114408e-09    9.261245e-13    3.331167e-09    3.024782e-10   -1.000000e+00    1.052089e+00    4.522544e-02
    2.189830e+01    4.067092e+02    2.966116e-02    2.583341e+07    4.001630e-09    8.384000e-13    3.187872e-09    2.906984e-10   -9.900000e-01    1.052089e+00    4.324521e-02
    2.178517e+01    4.004877e+02    2.384064e-02    2.126289e+07    3.887557e-09    7.581715e-13    3.042689e-09    2.786830e-10   -9.800000e-01    1.052089e+00    4.155014e-02
    2.164397e+01    3.942021e+02    1.918692e-02    1.751869e+07    3.772773e-09    6.849435e-13    2.896333e-09    2.664881e-10   -9.700000e-01    1.052089e+00    4.010868e-02
    2.148791e+01    3.881034e+02    1.546473e-02    1.445858e+07    3.657891e-09    6.182360e-13    2.749549e-09    2.541738e-10   -9.600000e-01    1.052089e+00    3.889002e-02
    2.132766e+01    3.823714e+02    1.248445e-02    1.195904e+07    3.543533e-09    5.575835e-13    2.603102e-09    2.418034e-10   -9.500000e-01    1.052089e+00    3.786494e-02
    2.117129e+01    3.771211e+02    1.009454e-02    9.915598e+06    3.430325e-09    5.025380e-13    2.457759e-09    2.294410e-10   -9.400000e-01    1.052089e+00    3.700650e-02
    2.102441e+01    3.724146e+02    8.174555e-03    8.241707e+06    3.318875e-09    4.526676e-13    2.314270e-09    2.171511e-10   -9.300000e-01    1.052089e+00    3.629030e-02
    2.089055e+01    3.682708e+02    6.629060e-03    6.866711e+06    3.209765e-09    4.075591e-13    2.173355e-09    2.049969e-10   -9.200000e-01    1.052089e+00    3.569470e-02
    2.077155e+01    3.646795e+02    5.382570e-03    5.733530e+06    3.103535e-09    3.668189e-13    2.035686e-09    1.930389e-10   -9.100000e-01    1.052089e+00    3.520074e-02
    2.066811e+01    3.616113e+02    4.375323e-03    4.796357e+06    3.000678e-09    3.300734e-13    1.901878e-09    1.813334e-10   -9.000000e-01    1.052089e+00    3.479200e-02
    2.058009e+01    3.590263e+02    3.559970e-03    4.018572e+06    2.901629e-09    2.969704e-13    1.772472e-09    1.699322e-10   -8.900000e-01    1.052089e+00    3.445444e-02
    2.050684e+01    3.568792e+02    2.898894e-03    3.370904e+06    2.806757e-09    2.671792e-13    1.647934e-09    1.588811e-10   -8.800000e-01    1.052089e+00    3.417609e-02
    2.044751e+01    3.551260e+02    2.362142e-03    2.829952e+06    2.716361e-09    2.403914e-13    1.528644e-09    1.482195e-10   -8.700000e-01    1.052089e+00    3.394687e-02
    2.040117e+01    3.537249e+02    1.925789e-03    2.376932e+06    2.630675e-09    2.163209e-13    1.414900e-09    1.379801e-10   -8.600000e-01    1.052089e+00    3.375833e-02
    2.036698e+01    3.526400e+02    1.570674e-03    1.996716e+06    2.549861e-09    1.947033e-13    1.306914e-09    1.281888e-10   -8.500000e-01    1.052089e+00    3.360338e-02
    2.034425e+01    3.518414e+02    1.281406e-03    1.677050e+06    2.474018e-09    1.752957e-13    1.204818e-09    1.188644e-10   -8.400000e-01    1.052089e+00    3.347613e-02
    2.033255e+01    3.513060e+02    1.045591e-03    1.407951e+06    2.403182e-09    1.578760e-13    1.108668e-09    1.100195e-10   -8.300000e-01    1.052089e+00    3.337171e-02
    2.033170e+01    3.510181e+02    8.532275e-04    1.181239e+06    2.337335e-09    1.422419e-13    1.018452e-09    1.016604e-10   -8.200000e-01    1.052089e+00    3.328604e-02
    2.034184e+01    3.509699e+02    6.962215e-04    9.901643e+05    2.276410e-09    1.282099e-13    9.340975e-10    9.378795e-11   -8.100000e-01    1.052089e+00    3.321581e-02
    2.036346e+01    3.511611e+02    5.680170e-04    8.291277e+05    2.220300e-09    1.156140e-13    8.554780e-10    8.639790e-11   -8.000000e-01    1.052089e+00    3.315824e-02
    2.039742e+01    3.515997e+02    4.632919e-04    6.934555e+05    2.168860e-09    1.043045e-13    7.824255e-10    7.948180e-11   -7.900000e-01    1.052089e+00    3.311107e-02
    2.044495e+01    3.523015e+02    3.777215e-04    5.792268e+05    2.121922e-09    9.414670e-14    7.147360e-10    7.302770e-11   -7.800000e-01    1.052089e+00    3.307243e-02
    2.050777e+01    3.532917e+02    3.077867e-04    4.831398e+05    2.079293e-09    8.501990e-14    6.521785e-10    6.702050e-11   -7.700000e-01    1.052089e+00    3.304079e-02
    2.058802e+01    3.546042e+02    2.506215e-04    4.024014e+05    2.040767e-09    7.681580e-14    5.945035e-10    6.144285e-11   -7.600000e-01    1.052089e+00    3.301488e-02
    2.068839e+01    3.562839e+02    2.038898e-04    3.346441e+05    2.006130e-09    6.943745e-14    5.414470e-10    5.627580e-11   -7.500000e-01    1.052089e+00    3.299366e-02
    2.081205e+01    3.583843e+02    1.656866e-04    2.778566e+05    1.975158e-09    6.279825e-14    4.927386e-10    5.149895e-11   -7.400000e-01    1.052089e+00    3.297630e-02
    2.096275e+01    3.609711e+02    1.344575e-04    2.303280e+05    1.947631e-09    5.682085e-14    4.481056e-10    4.709125e-11   -7.300000e-01    1.052089e+00    3.296210e-02
    2.114472e+01    3.641203e+02    1.089337e-04    1.906034e+05    1.923329e-09    5.143605e-14    4.072771e-10    4.303134e-11   -7.200000e-01    1.052089e+00    3.295048e-02
