# sky130 nfet_01v8 gm/ID Processed Lookup Table
# Corner: ff
# Temperature: 75C
# W = 2.0 um
# L = 1.62 um (1620 nm)
# Columns: gm/id [1/V]  gm/gds [V/V]  id/W [A/m]  ft [Hz]  Cgg/W [F/m]  Cgd/W [F/m]  Cgs/W [F/m]  Vov [V]
#         gm/id          gm/gds            id/W              ft           Cgg/W           Cgd/W           Cgs/W             Vov
    2.357240e+01    1.432147e+02    1.511206e-06    1.583250e+03    3.580950e-09    1.613092e-13    4.010440e-10   -4.976432e-01
    2.357013e+01    1.432011e+02    1.700231e-06    1.779910e+03    3.583375e-09    1.668112e-13    4.169876e-10   -4.926432e-01
    2.356773e+01    1.431866e+02    1.912879e-06    2.000626e+03    3.586405e-09    1.725157e-13    4.335829e-10   -4.876432e-01
    2.356518e+01    1.431712e+02    2.152095e-06    2.248283e+03    3.590056e-09    1.784306e-13    4.508523e-10   -4.826432e-01
    2.356249e+01    1.431550e+02    2.421194e-06    2.526102e+03    3.594347e-09    1.845641e-13    4.688188e-10   -4.776432e-01
    2.355963e+01    1.431377e+02    2.723904e-06    2.837678e+03    3.599292e-09    1.909245e-13    4.875055e-10   -4.726432e-01
    2.355658e+01    1.431194e+02    3.064415e-06    3.187025e+03    3.604912e-09    1.975204e-13    5.069360e-10   -4.676432e-01
    2.355338e+01    1.431002e+02    3.447439e-06    3.578622e+03    3.611222e-09    2.043610e-13    5.271345e-10   -4.626432e-01
    2.354998e+01    1.430797e+02    3.878273e-06    4.017460e+03    3.618241e-09    2.114555e-13    5.481250e-10   -4.576432e-01
    2.354636e+01    1.430580e+02    4.362874e-06    4.509106e+03    3.625986e-09    2.188136e-13    5.699305e-10   -4.526432e-01
    2.354253e+01    1.430349e+02    4.907935e-06    5.059762e+03    3.634477e-09    2.264454e-13    5.925765e-10   -4.476432e-01
    2.353846e+01    1.430106e+02    5.520985e-06    5.676338e+03    3.643733e-09    2.343611e-13    6.160880e-10   -4.426432e-01
    2.353419e+01    1.429849e+02    6.210475e-06    6.366530e+03    3.653772e-09    2.425717e-13    6.404895e-10   -4.376432e-01
    2.352963e+01    1.429576e+02    6.985925e-06    7.138895e+03    3.664612e-09    2.510881e-13    6.658050e-10   -4.326432e-01
    2.352482e+01    1.429288e+02    7.858010e-06    8.002968e+03    3.676274e-09    2.599219e-13    6.920600e-10   -4.276432e-01
    2.351971e+01    1.428983e+02    8.838745e-06    8.969340e+03    3.688775e-09    2.690849e-13    7.192785e-10   -4.226432e-01
    2.351431e+01    1.428660e+02    9.941620e-06    1.004980e+04    3.702134e-09    2.785896e-13    7.474845e-10   -4.176432e-01
    2.350859e+01    1.428319e+02    1.118180e-05    1.125744e+04    3.716370e-09    2.884486e-13    7.767030e-10   -4.126432e-01
    2.350253e+01    1.427958e+02    1.257632e-05    1.260680e+04    3.731500e-09    2.986751e-13    8.069565e-10   -4.076432e-01
    2.349612e+01    1.427576e+02    1.414430e-05    1.411403e+04    3.747544e-09    3.092826e-13    8.382695e-10   -4.026432e-01
    2.348933e+01    1.427173e+02    1.590727e-05    1.579708e+04    3.764519e-09    3.202854e-13    8.706645e-10   -3.976432e-01
    2.348216e+01    1.426747e+02    1.788934e-05    1.767584e+04    3.782441e-09    3.316978e-13    9.041630e-10   -3.926432e-01
    2.347456e+01    1.426297e+02    2.011764e-05    1.977238e+04    3.801330e-09    3.435348e-13    9.387880e-10   -3.876432e-01
    2.346653e+01    1.425821e+02    2.262260e-05    2.211117e+04    3.821200e-09    3.558120e-13    9.745595e-10   -3.826432e-01
    2.345801e+01    1.425318e+02    2.543843e-05    2.471933e+04    3.842068e-09    3.685452e-13    1.011498e-09   -3.776432e-01
    2.344902e+01    1.424788e+02    2.860350e-05    2.762693e+04    3.863948e-09    3.817510e-13    1.049622e-09   -3.726432e-01
    2.343951e+01    1.424227e+02    3.216087e-05    3.086725e+04    3.886856e-09    3.954464e-13    1.088951e-09   -3.676432e-01
    2.342946e+01    1.423637e+02    3.615891e-05    3.447716e+04    3.910805e-09    4.096489e-13    1.129502e-09   -3.626432e-01
    2.341884e+01    1.423015e+02    4.065185e-05    3.849744e+04    3.935808e-09    4.243764e-13    1.171289e-09   -3.576432e-01
    2.340761e+01    1.422358e+02    4.570056e-05    4.297321e+04    3.961877e-09    4.396479e-13    1.214329e-09   -3.526432e-01
    2.339574e+01    1.421665e+02    5.137335e-05    4.795439e+04    3.989022e-09    4.554822e-13    1.258634e-09   -3.476432e-01
    2.338321e+01    1.420936e+02    5.774675e-05    5.349616e+04    4.017254e-09    4.718993e-13    1.304216e-09   -3.426432e-01
    2.336998e+01    1.420167e+02    6.490665e-05    5.965949e+04    4.046580e-09    4.889195e-13    1.351086e-09   -3.376432e-01
    2.335601e+01    1.419359e+02    7.294935e-05    6.651178e+04    4.077009e-09    5.065640e-13    1.399253e-09   -3.326432e-01
    2.334127e+01    1.418509e+02    8.198275e-05    7.412740e+04    4.108548e-09    5.248535e-13    1.448722e-09   -3.276432e-01
    2.332571e+01    1.417613e+02    9.212780e-05    8.258851e+04    4.141198e-09    5.438115e-13    1.499499e-09   -3.226432e-01
    2.330930e+01    1.416674e+02    1.035200e-04    9.198578e+04    4.174965e-09    5.634600e-13    1.551590e-09   -3.176432e-01
    2.329200e+01    1.415686e+02    1.163110e-04    1.024192e+05    4.209851e-09    5.838225e-13    1.604992e-09   -3.126432e-01
    2.327377e+01    1.414650e+02    1.306710e-04    1.139990e+05    4.245855e-09    6.049235e-13    1.659707e-09   -3.076432e-01
    2.325455e+01    1.413562e+02    1.467902e-04    1.268468e+05    4.282977e-09    6.267880e-13    1.715732e-09   -3.026432e-01
    2.323432e+01    1.412423e+02    1.648815e-04    1.410966e+05    4.321212e-09    6.494410e-13    1.773061e-09   -2.976432e-01
    2.321303e+01    1.411229e+02    1.851833e-04    1.568959e+05    4.360556e-09    6.729090e-13    1.831689e-09   -2.926432e-01
    2.319062e+01    1.409980e+02    2.079620e-04    1.744074e+05    4.401003e-09    6.972190e-13    1.891604e-09   -2.876432e-01
    2.316706e+01    1.408675e+02    2.335159e-04    1.938097e+05    4.442545e-09    7.223985e-13    1.952796e-09   -2.826432e-01
    2.314229e+01    1.407311e+02    2.621781e-04    2.152999e+05    4.485171e-09    7.484765e-13    2.015252e-09   -2.776432e-01
    2.311626e+01    1.405888e+02    2.943210e-04    2.390943e+05    4.528869e-09    7.754820e-13    2.078954e-09   -2.726432e-01
    2.308895e+01    1.404405e+02    3.303605e-04    2.654311e+05    4.573625e-09    8.034450e-13    2.143885e-09   -2.676432e-01
    2.306028e+01    1.402861e+02    3.707612e-04    2.945717e+05    4.619425e-09    8.323960e-13    2.210023e-09   -2.626432e-01
    2.303023e+01    1.401256e+02    4.160415e-04    3.268037e+05    4.666251e-09    8.623675e-13    2.277345e-09   -2.576432e-01
    2.299873e+01    1.399589e+02    4.667799e-04    3.624424e+05    4.714082e-09    8.933910e-13    2.345826e-09   -2.526432e-01
    2.296575e+01    1.397862e+02    5.236220e-04    4.018345e+05    4.762899e-09    9.255000e-13    2.415438e-09   -2.476432e-01
    2.293126e+01    1.396074e+02    5.872865e-04    4.453601e+05    4.812678e-09    9.587295e-13    2.486151e-09   -2.426432e-01
    2.289520e+01    1.394228e+02    6.585760e-04    4.934362e+05    4.863395e-09    9.931140e-13    2.557933e-09   -2.376432e-01
    2.285755e+01    1.392324e+02    7.383825e-04    5.465196e+05    4.915022e-09    1.028690e-12    2.630750e-09   -2.326432e-01
    2.281824e+01    1.390365e+02    8.277015e-04    6.051114e+05    4.967533e-09    1.065493e-12    2.704565e-09   -2.276432e-01
    2.277728e+01    1.388354e+02    9.276385e-04    6.697607e+05    5.020895e-09    1.103563e-12    2.779340e-09   -2.226432e-01
    2.273464e+01    1.386295e+02    1.039424e-03    7.410676e+05    5.075085e-09    1.142938e-12    2.855034e-09   -2.176432e-01
    2.269027e+01    1.384193e+02    1.164429e-03    8.196911e+05    5.130060e-09    1.183658e-12    2.931605e-09   -2.126432e-01
    2.264419e+01    1.382054e+02    1.304171e-03    9.063516e+05    5.185785e-09    1.225763e-12    3.009009e-09   -2.076432e-01
    2.259637e+01    1.379883e+02    1.460340e-03    1.001835e+06    5.242235e-09    1.269296e-12    3.087201e-09   -2.026432e-01
    2.254682e+01    1.377690e+02    1.634812e-03    1.107005e+06    5.299365e-09    1.314300e-12    3.166133e-09   -1.976432e-01
    2.249555e+01    1.375483e+02    1.829668e-03    1.222802e+06    5.357140e-09    1.360819e-12    3.245757e-09   -1.926432e-01
    2.244257e+01    1.373273e+02    2.047216e-03    1.350256e+06    5.415520e-09    1.408898e-12    3.326024e-09   -1.876432e-01
    2.238791e+01    1.371071e+02    2.290013e-03    1.490493e+06    5.474465e-09    1.458585e-12    3.406881e-09   -1.826432e-01
    2.233161e+01    1.368892e+02    2.560895e-03    1.644742e+06    5.533935e-09    1.509925e-12    3.488278e-09   -1.776432e-01
    2.227371e+01    1.366751e+02    2.863003e-03    1.814351e+06    5.593880e-09    1.562969e-12    3.570160e-09   -1.726432e-01
    2.221429e+01    1.364665e+02    3.199810e-03    2.000784e+06    5.654270e-09    1.617767e-12    3.652475e-09   -1.676432e-01
    2.215340e+01    1.362652e+02    3.575165e-03    2.205648e+06    5.715055e-09    1.674370e-12    3.735169e-09   -1.626432e-01
    2.209115e+01    1.360735e+02    3.993321e-03    2.430699e+06    5.776190e-09    1.732831e-12    3.818188e-09   -1.576432e-01
    2.202762e+01    1.358936e+02    4.458982e-03    2.677851e+06    5.837635e-09    1.793205e-12    3.901474e-09   -1.526432e-01
    2.196292e+01    1.357279e+02    4.977349e-03    2.949201e+06    5.899345e-09    1.855545e-12    3.984974e-09   -1.476432e-01
    2.189716e+01    1.355793e+02    5.554165e-03    3.247042e+06    5.961270e-09    1.919912e-12    4.068633e-09   -1.426432e-01
    2.183050e+01    1.354507e+02    6.195775e-03    3.573876e+06    6.023375e-09    1.986362e-12    4.152396e-09   -1.376432e-01
    2.176306e+01    1.353452e+02    6.909185e-03    3.932446e+06    6.085610e-09    2.054955e-12    4.236207e-09   -1.326432e-01
    2.169499e+01    1.352661e+02    7.702130e-03    4.325748e+06    6.147935e-09    2.125754e-12    4.320013e-09   -1.276432e-01
    2.162643e+01    1.352171e+02    8.583150e-03    4.757061e+06    6.210305e-09    2.198822e-12    4.403759e-09   -1.226432e-01
    2.155755e+01    1.352018e+02    9.561655e-03    5.229977e+06    6.272675e-09    2.274224e-12    4.487394e-09   -1.176432e-01
    2.148849e+01    1.352241e+02    1.064804e-02    5.748427e+06    6.335000e-09    2.352027e-12    4.570863e-09   -1.126432e-01
    2.141938e+01    1.352880e+02    1.185377e-02    6.316702e+06    6.397245e-09    2.432300e-12    4.654116e-09   -1.076432e-01
    2.135036e+01    1.353975e+02    1.319147e-02    6.939505e+06    6.459365e-09    2.515113e-12    4.737103e-09   -1.026432e-01
    2.128156e+01    1.355569e+02    1.467506e-02    7.621975e+06    6.521325e-09    2.600539e-12    4.819775e-09   -9.764320e-02
    2.121304e+01    1.357702e+02    1.631991e-02    8.369741e+06    6.583075e-09    2.688651e-12    4.902083e-09   -9.264320e-02
    2.114488e+01    1.360415e+02    1.814293e-02    9.188926e+06    6.644585e-09    2.779529e-12    4.983981e-09   -8.764320e-02
    2.107711e+01    1.363747e+02    2.016272e-02    1.008623e+07    6.705815e-09    2.873248e-12    5.065425e-09   -8.264320e-02
    2.100970e+01    1.367737e+02    2.239981e-02    1.106892e+07    6.766730e-09    2.969890e-12    5.146365e-09   -7.764320e-02
    2.094258e+01    1.372420e+02    2.487673e-02    1.214493e+07    6.827295e-09    3.069540e-12    5.226770e-09   -7.264320e-02
    2.087566e+01    1.377826e+02    2.761830e-02    1.332286e+07    6.887470e-09    3.172281e-12    5.306590e-09   -6.764320e-02
    2.080872e+01    1.383984e+02    3.065174e-02    1.461197e+07    6.947235e-09    3.278203e-12    5.385790e-09   -6.264320e-02
    2.074155e+01    1.390914e+02    3.400697e-02    1.602230e+07    7.006550e-09    3.387395e-12    5.464330e-09   -5.764320e-02
    2.067382e+01    1.398635e+02    3.771674e-02    1.756463e+07    7.065385e-09    3.499950e-12    5.542180e-09   -5.264320e-02
    2.060513e+01    1.407152e+02    4.181696e-02    1.925048e+07    7.123715e-09    3.615965e-12    5.619305e-09   -4.764320e-02
    2.053506e+01    1.416466e+02    4.634684e-02    2.109213e+07    7.181510e-09    3.735538e-12    5.695670e-09   -4.264320e-02
    2.046306e+01    1.426570e+02    5.134920e-02    2.310260e+07    7.238750e-09    3.858771e-12    5.771245e-09   -3.764320e-02
    2.038857e+01    1.437444e+02    5.687065e-02    2.529563e+07    7.295410e-09    3.985767e-12    5.846010e-09   -3.264320e-02
    2.031094e+01    1.449060e+02    6.296190e-02    2.768563e+07    7.351460e-09    4.116634e-12    5.919930e-09   -2.764320e-02
    2.022950e+01    1.461379e+02    6.967785e-02    3.028757e+07    7.406885e-09    4.251484e-12    5.992980e-09   -2.264320e-02
    2.014350e+01    1.474349e+02    7.707795e-02    3.311688e+07    7.461665e-09    4.390429e-12    6.065145e-09   -1.764320e-02
    2.005223e+01    1.487908e+02    8.522620e-02    3.618943e+07    7.515780e-09    4.533589e-12    6.136405e-09   -1.264320e-02
    1.995492e+01    1.501983e+02    9.419145e-02    3.952122e+07    7.569220e-09    4.681083e-12    6.206735e-09   -7.643200e-03
    1.985084e+01    1.516486e+02    1.040474e-01    4.312843e+07    7.621960e-09    4.833036e-12    6.276120e-09   -2.643200e-03
    1.973926e+01    1.531322e+02    1.148728e-01    4.702698e+07    7.673990e-09    4.989577e-12    6.344545e-09    2.356800e-03
    1.961953e+01    1.546384e+02    1.267512e-01    5.123247e+07    7.725300e-09    5.150840e-12    6.412000e-09    7.356800e-03
    1.949102e+01    1.561558e+02    1.397711e-01    5.575998e+07    7.775875e-09    5.316955e-12    6.478470e-09    1.235680e-02
    1.935317e+01    1.576717e+02    1.540258e-01    6.062364e+07    7.825710e-09    5.488070e-12    6.543945e-09    1.735680e-02
    1.920554e+01    1.591734e+02    1.696133e-01    6.583661e+07    7.874795e-09    5.664330e-12    6.608415e-09    2.235680e-02
    1.904777e+01    1.606471e+02    1.866358e-01    7.141063e+07    7.923120e-09    5.845880e-12    6.671875e-09    2.735680e-02
    1.887959e+01    1.620791e+02    2.051993e-01    7.735587e+07    7.970680e-09    6.032875e-12    6.734325e-09    3.235680e-02
    1.870088e+01    1.634554e+02    2.254137e-01    8.368058e+07    8.017475e-09    6.225480e-12    6.795750e-09    3.735680e-02
    1.851158e+01    1.647620e+02    2.473917e-01    9.039101e+07    8.063495e-09    6.423850e-12    6.856155e-09    4.235680e-02
    1.831179e+01    1.659853e+02    2.712485e-01    9.749108e+07    8.108740e-09    6.628165e-12    6.915540e-09    4.735680e-02
    1.810172e+01    1.671122e+02    2.971014e-01    1.049823e+08    8.153205e-09    6.838590e-12    6.973900e-09    5.235680e-02
    1.788165e+01    1.681299e+02    3.250685e-01    1.128634e+08    8.196895e-09    7.055315e-12    7.031240e-09    5.735680e-02
    1.765200e+01    1.690269e+02    3.552686e-01    1.211305e+08    8.239810e-09    7.278520e-12    7.087555e-09    6.235680e-02
    1.741328e+01    1.697925e+02    3.878198e-01    1.297771e+08    8.281950e-09    7.508400e-12    7.142860e-09    6.735680e-02
    1.716607e+01    1.704171e+02    4.228395e-01    1.387937e+08    8.323320e-09    7.745155e-12    7.197155e-09    7.235680e-02
    1.691100e+01    1.708923e+02    4.604427e-01    1.481683e+08    8.363915e-09    7.988985e-12    7.250440e-09    7.735680e-02
    1.664879e+01    1.712114e+02    5.007420e-01    1.578862e+08    8.403745e-09    8.240105e-12    7.302730e-09    8.235680e-02
    1.638022e+01    1.713688e+02    5.438460e-01    1.679301e+08    8.442815e-09    8.498735e-12    7.354025e-09    8.735680e-02
    1.610605e+01    1.713603e+02    5.898590e-01    1.782805e+08    8.481130e-09    8.765105e-12    7.404340e-09    9.235680e-02
    1.582710e+01    1.711836e+02    6.388810e-01    1.889159e+08    8.518695e-09    9.039440e-12    7.453675e-09    9.735680e-02
    1.554420e+01    1.708375e+02    6.910055e-01    1.998130e+08    8.555515e-09    9.321985e-12    7.502050e-09    1.023568e-01
    1.525814e+01    1.703224e+02    7.463205e-01    2.109469e+08    8.591600e-09    9.612995e-12    7.549470e-09    1.073568e-01
    1.496977e+01    1.696399e+02    8.049060e-01    2.222916e+08    8.626955e-09    9.912720e-12    7.595945e-09    1.123568e-01
    1.467986e+01    1.687933e+02    8.668365e-01    2.338199e+08    8.661595e-09    1.022144e-11    7.641490e-09    1.173568e-01
    1.438919e+01    1.677865e+02    9.321770e-01    2.455046e+08    8.695515e-09    1.053941e-11    7.686110e-09    1.223568e-01
    1.409847e+01    1.666248e+02    1.000987e+00    2.573174e+08    8.728740e-09    1.086693e-11    7.729825e-09    1.273568e-01
    1.380842e+01    1.653147e+02    1.073317e+00    2.692311e+08    8.761265e-09    1.120428e-11    7.772645e-09    1.323568e-01
    1.351969e+01    1.638629e+02    1.149208e+00    2.812179e+08    8.793110e-09    1.155179e-11    7.814580e-09    1.373568e-01
    1.323289e+01    1.622775e+02    1.228696e+00    2.932511e+08    8.824285e-09    1.190976e-11    7.855650e-09    1.423568e-01
    1.294858e+01    1.605667e+02    1.311808e+00    3.053051e+08    8.854790e-09    1.227852e-11    7.895865e-09    1.473568e-01
    1.266727e+01    1.587392e+02    1.398562e+00    3.173546e+08    8.884645e-09    1.265840e-11    7.935235e-09    1.523568e-01
    1.238945e+01    1.568041e+02    1.488970e+00    3.293763e+08    8.913860e-09    1.304975e-11    7.973780e-09    1.573568e-01
    1.211553e+01    1.547707e+02    1.583038e+00    3.413482e+08    8.942440e-09    1.345294e-11    8.011515e-09    1.623568e-01
    1.184588e+01    1.526483e+02    1.680762e+00    3.532496e+08    8.970405e-09    1.386834e-11    8.048445e-09    1.673568e-01
    1.158084e+01    1.504464e+02    1.782135e+00    3.650619e+08    8.997755e-09    1.429632e-11    8.084600e-09    1.723568e-01
    1.132068e+01    1.481740e+02    1.887142e+00    3.767678e+08    9.024510e-09    1.473731e-11    8.119980e-09    1.773568e-01
    1.106566e+01    1.458402e+02    1.995765e+00    3.883520e+08    9.050680e-09    1.519171e-11    8.154610e-09    1.823568e-01
    1.081596e+01    1.434539e+02    2.107978e+00    3.998008e+08    9.076275e-09    1.565996e-11    8.188495e-09    1.873568e-01
    1.057176e+01    1.410235e+02    2.223752e+00    4.111025e+08    9.101305e-09    1.614248e-11    8.221660e-09    1.923568e-01
    1.033318e+01    1.385570e+02    2.343056e+00    4.222470e+08    9.125785e-09    1.663975e-11    8.254110e-09    1.973568e-01
    1.010032e+01    1.360623e+02    2.465852e+00    4.332259e+08    9.149725e-09    1.715224e-11    8.285870e-09    2.023568e-01
    9.873251e+00    1.335465e+02    2.592102e+00    4.440323e+08    9.173135e-09    1.768043e-11    8.316945e-09    2.073568e-01
    9.652005e+00    1.310165e+02    2.721763e+00    4.546608e+08    9.196030e-09    1.822486e-11    8.347355e-09    2.123568e-01
    9.436600e+00    1.284786e+02    2.854791e+00    4.651079e+08    9.218415e-09    1.878604e-11    8.377110e-09    2.173568e-01
    9.227023e+00    1.259388e+02    2.991142e+00    4.753705e+08    9.240310e-09    1.936452e-11    8.406230e-09    2.223568e-01
    9.023248e+00    1.234024e+02    3.130769e+00    4.854476e+08    9.261720e-09    1.996087e-11    8.434725e-09    2.273568e-01
    8.825228e+00    1.208744e+02    3.273624e+00    4.953388e+08    9.282660e-09    2.057567e-11    8.462610e-09    2.323568e-01
    8.632901e+00    1.183594e+02    3.419658e+00    5.050451e+08    9.303135e-09    2.120955e-11    8.489900e-09    2.373568e-01
    8.446189e+00    1.158613e+02    3.568823e+00    5.145678e+08    9.323165e-09    2.186312e-11    8.516605e-09    2.423568e-01
    8.265006e+00    1.133839e+02    3.721071e+00    5.239095e+08    9.342755e-09    2.253705e-11    8.542745e-09    2.473568e-01
    8.089251e+00    1.109304e+02    3.876354e+00    5.330735e+08    9.361915e-09    2.323200e-11    8.568325e-09    2.523568e-01
    7.918817e+00    1.085037e+02    4.034623e+00    5.420633e+08    9.380660e-09    2.394868e-11    8.593365e-09    2.573568e-01
