# sky130 nfet_01v8 gm/ID Processed Lookup Table
# Corner: ff
# Temperature: 75C
# W = 2.0 um
# L = 4.86 um (4860 nm)
# Columns: gm/id [1/V]  gm/gds [V/V]  id/W [A/m]  ft [Hz]  Cgg/W [F/m]  Cgd/W [F/m]  Cgs/W [F/m]  Vov [V]
#         gm/id          gm/gds            id/W              ft           Cgg/W           Cgd/W           Cgs/W             Vov
    2.276389e+01    2.174683e+02    1.188589e-06    3.897407e+02    1.104899e-08    7.172685e-13    1.640588e-09   -4.670158e-01
    2.276055e+01    2.174369e+02    1.331862e-06    4.358506e+02    1.106941e-08    7.415580e-13    1.704395e-09   -4.620158e-01
    2.275703e+01    2.174037e+02    1.492380e-06    4.873117e+02    1.109195e-08    7.667295e-13    1.770586e-09   -4.570158e-01
    2.275330e+01    2.173686e+02    1.672213e-06    5.447295e+02    1.111668e-08    7.928150e-13    1.839231e-09   -4.520158e-01
    2.274936e+01    2.173316e+02    1.873680e-06    6.087767e+02    1.114363e-08    8.198485e-13    1.910394e-09   -4.470158e-01
    2.274519e+01    2.172925e+02    2.099378e-06    6.801992e+02    1.117286e-08    8.478650e-13    1.984144e-09   -4.420158e-01
    2.274079e+01    2.172512e+02    2.352212e-06    7.598245e+02    1.120441e-08    8.769010e-13    2.060546e-09   -4.370158e-01
    2.273613e+01    2.172075e+02    2.635435e-06    8.485692e+02    1.123833e-08    9.069940e-13    2.139668e-09   -4.320158e-01
    2.273120e+01    2.171614e+02    2.952690e-06    9.474498e+02    1.127468e-08    9.381830e-13    2.221577e-09   -4.270158e-01
    2.272600e+01    2.171127e+02    3.308053e-06    1.057592e+03    1.131351e-08    9.705075e-13    2.306337e-09   -4.220158e-01
    2.272050e+01    2.170614e+02    3.706085e-06    1.180243e+03    1.135486e-08    1.004009e-12    2.394013e-09   -4.170158e-01
    2.271469e+01    2.170072e+02    4.151893e-06    1.316783e+03    1.139880e-08    1.038732e-12    2.484668e-09   -4.120158e-01
    2.270856e+01    2.169501e+02    4.651188e-06    1.468739e+03    1.144535e-08    1.074719e-12    2.578366e-09   -4.070158e-01
    2.270208e+01    2.168899e+02    5.210360e-06    1.637801e+03    1.149456e-08    1.112016e-12    2.675165e-09   -4.020158e-01
    2.269523e+01    2.168263e+02    5.836565e-06    1.825837e+03    1.154650e-08    1.150671e-12    2.775127e-09   -3.970158e-01
    2.268801e+01    2.167594e+02    6.537800e-06    2.034913e+03    1.160119e-08    1.190732e-12    2.878306e-09   -3.920158e-01
    2.268037e+01    2.166889e+02    7.323015e-06    2.267311e+03    1.165868e-08    1.232250e-12    2.984760e-09   -3.870158e-01
    2.267231e+01    2.166146e+02    8.202215e-06    2.525551e+03    1.171901e-08    1.275278e-12    3.094538e-09   -3.820158e-01
    2.266383e+01    2.165364e+02    9.186585e-06    2.812420e+03    1.178222e-08    1.319867e-12    3.207694e-09   -3.770158e-01
    2.265486e+01    2.164540e+02    1.028865e-05    3.130988e+03    1.184837e-08    1.366075e-12    3.324274e-09   -3.720158e-01
    2.264540e+01    2.163673e+02    1.152239e-05    3.484652e+03    1.191745e-08    1.413959e-12    3.444321e-09   -3.670158e-01
    2.263542e+01    2.162761e+02    1.290345e-05    3.877147e+03    1.198953e-08    1.463576e-12    3.567876e-09   -3.620158e-01
    2.262489e+01    2.161801e+02    1.444930e-05    4.312605e+03    1.206462e-08    1.514988e-12    3.694978e-09   -3.570158e-01
    2.261380e+01    2.160793e+02    1.617946e-05    4.795571e+03    1.214276e-08    1.568259e-12    3.825659e-09   -3.520158e-01
    2.260211e+01    2.159733e+02    1.811577e-05    5.331061e+03    1.222396e-08    1.623451e-12    3.959950e-09   -3.470158e-01
    2.258978e+01    2.158621e+02    2.028259e-05    5.924595e+03    1.230827e-08    1.680633e-12    4.097876e-09   -3.420158e-01
    2.257680e+01    2.157452e+02    2.270714e-05    6.582258e+03    1.239567e-08    1.739871e-12    4.239458e-09   -3.370158e-01
    2.256314e+01    2.156227e+02    2.541983e-05    7.310749e+03    1.248620e-08    1.801239e-12    4.384713e-09   -3.320158e-01
    2.254873e+01    2.154941e+02    2.845459e-05    8.117435e+03    1.257986e-08    1.864807e-12    4.533651e-09   -3.270158e-01
    2.253358e+01    2.153594e+02    3.184931e-05    9.010427e+03    1.267667e-08    1.930652e-12    4.686281e-09   -3.220158e-01
    2.251764e+01    2.152183e+02    3.564625e-05    9.998644e+03    1.277662e-08    1.998849e-12    4.842603e-09   -3.170158e-01
    2.250088e+01    2.150708e+02    3.989260e-05    1.109190e+04    1.287971e-08    2.069480e-12    5.002615e-09   -3.120158e-01
    2.248325e+01    2.149163e+02    4.464094e-05    1.230097e+04    1.298594e-08    2.142625e-12    5.166305e-09   -3.070158e-01
    2.246473e+01    2.147551e+02    4.994996e-05    1.363770e+04    1.309530e-08    2.218370e-12    5.333660e-09   -3.020158e-01
    2.244528e+01    2.145866e+02    5.588505e-05    1.511511e+04    1.320777e-08    2.296801e-12    5.504655e-09   -2.970158e-01
    2.242484e+01    2.144108e+02    6.251915e-05    1.674749e+04    1.332334e-08    2.378006e-12    5.679270e-09   -2.920158e-01
    2.240339e+01    2.142277e+02    6.993345e-05    1.855051e+04    1.344198e-08    2.462078e-12    5.857470e-09   -2.870158e-01
    2.238091e+01    2.140371e+02    7.821840e-05    2.054139e+04    1.356367e-08    2.549111e-12    6.039215e-09   -2.820158e-01
    2.235732e+01    2.138389e+02    8.747485e-05    2.273901e+04    1.368837e-08    2.639203e-12    6.224460e-09   -2.770158e-01
    2.233263e+01    2.136330e+02    9.781485e-05    2.516408e+04    1.381604e-08    2.732453e-12    6.413155e-09   -2.720158e-01
    2.230676e+01    2.134195e+02    1.093633e-04    2.783930e+04    1.394665e-08    2.828965e-12    6.605240e-09   -2.670158e-01
    2.227969e+01    2.131983e+02    1.222591e-04    3.078953e+04    1.408015e-08    2.928844e-12    6.800660e-09   -2.620158e-01
    2.225139e+01    2.129696e+02    1.366565e-04    3.404203e+04    1.421647e-08    3.032198e-12    6.999335e-09   -2.570158e-01
    2.222181e+01    2.127335e+02    1.527273e-04    3.762663e+04    1.435558e-08    3.139141e-12    7.201200e-09   -2.520158e-01
    2.219092e+01    2.124902e+02    1.706622e-04    4.157599e+04    1.449741e-08    3.249786e-12    7.406170e-09   -2.470158e-01
    2.215871e+01    2.122399e+02    1.906732e-04    4.592584e+04    1.464188e-08    3.364252e-12    7.614160e-09   -2.420158e-01
    2.212512e+01    2.119831e+02    2.129955e-04    5.071533e+04    1.478894e-08    3.482661e-12    7.825075e-09   -2.370158e-01
    2.209016e+01    2.117202e+02    2.378903e-04    5.598718e+04    1.493851e-08    3.605137e-12    8.038815e-09   -2.320158e-01
    2.205377e+01    2.114518e+02    2.656475e-04    6.178817e+04    1.509050e-08    3.731809e-12    8.255285e-09   -2.270158e-01
    2.201596e+01    2.111783e+02    2.965883e-04    6.816934e+04    1.524483e-08    3.862811e-12    8.474370e-09   -2.220158e-01
    2.197669e+01    2.109008e+02    3.310692e-04    7.518660e+04    1.540142e-08    3.998277e-12    8.695955e-09   -2.170158e-01
    2.193598e+01    2.106202e+02    3.694848e-04    8.290089e+04    1.556018e-08    4.138347e-12    8.919930e-09   -2.120158e-01
    2.189382e+01    2.103376e+02    4.122726e-04    9.137889e+04    1.572100e-08    4.283165e-12    9.146165e-09   -2.070158e-01
    2.185020e+01    2.100542e+02    4.599167e-04    1.006932e+05    1.588380e-08    4.432879e-12    9.374540e-09   -2.020158e-01
    2.180515e+01    2.097715e+02    5.129530e-04    1.109233e+05    1.604847e-08    4.587640e-12    9.604925e-09   -1.970158e-01
    2.175867e+01    2.094913e+02    5.719745e-04    1.221559e+05    1.621491e-08    4.747606e-12    9.837180e-09   -1.920158e-01
    2.171082e+01    2.092152e+02    6.376365e-04    1.344856e+05    1.638301e-08    4.912937e-12    1.007118e-08   -1.870158e-01
    2.166159e+01    2.089455e+02    7.106645e-04    1.480156e+05    1.655266e-08    5.083795e-12    1.030677e-08   -1.820158e-01
    2.161106e+01    2.086847e+02    7.918585e-04    1.628584e+05    1.672375e-08    5.260360e-12    1.054381e-08   -1.770158e-01
    2.155930e+01    2.084350e+02    8.821030e-04    1.791372e+05    1.689617e-08    5.442795e-12    1.078217e-08   -1.720158e-01
    2.150633e+01    2.081998e+02    9.823755e-04    1.969863e+05    1.706979e-08    5.631285e-12    1.102168e-08   -1.670158e-01
    2.145227e+01    2.079821e+02    1.093753e-03    2.165520e+05    1.724451e-08    5.826015e-12    1.126222e-08   -1.620158e-01
    2.139720e+01    2.077853e+02    1.217426e-03    2.379944e+05    1.742019e-08    6.027175e-12    1.150363e-08   -1.570158e-01
    2.134121e+01    2.076135e+02    1.354708e-03    2.614883e+05    1.759675e-08    6.234965e-12    1.174575e-08   -1.520158e-01
    2.128441e+01    2.074709e+02    1.507044e-03    2.872246e+05    1.777403e-08    6.449580e-12    1.198845e-08   -1.470158e-01
    2.122693e+01    2.073619e+02    1.676031e-03    3.154119e+05    1.795194e-08    6.671235e-12    1.223156e-08   -1.420158e-01
    2.116890e+01    2.072915e+02    1.863429e-03    3.462782e+05    1.813035e-08    6.900135e-12    1.247495e-08   -1.370158e-01
    2.111045e+01    2.072649e+02    2.071177e-03    3.800730e+05    1.830914e-08    7.136505e-12    1.271845e-08   -1.320158e-01
    2.105173e+01    2.072877e+02    2.301411e-03    4.170689e+05    1.848819e-08    7.380570e-12    1.296193e-08   -1.270158e-01
    2.099287e+01    2.073658e+02    2.556487e-03    4.575645e+05    1.866738e-08    7.632565e-12    1.320525e-08   -1.220158e-01
    2.093404e+01    2.075055e+02    2.838998e-03    5.018862e+05    1.884660e-08    7.892725e-12    1.344824e-08   -1.170158e-01
    2.087537e+01    2.077133e+02    3.151803e-03    5.503917e+05    1.902573e-08    8.161305e-12    1.369078e-08   -1.120158e-01
    2.081700e+01    2.079961e+02    3.498049e-03    6.034724e+05    1.920467e-08    8.438550e-12    1.393273e-08   -1.070158e-01
    2.075907e+01    2.083610e+02    3.881204e-03    6.615565e+05    1.938330e-08    8.724735e-12    1.417394e-08   -1.020158e-01
    2.070169e+01    2.088151e+02    4.305086e-03    7.251128e+05    1.956150e-08    9.020115e-12    1.441427e-08   -9.701580e-02
    2.064494e+01    2.093658e+02    4.773899e-03    7.946536e+05    1.973918e-08    9.324980e-12    1.465362e-08   -9.201580e-02
    2.058891e+01    2.100206e+02    5.292270e-03    8.707395e+05    1.991623e-08    9.639615e-12    1.489184e-08   -8.701580e-02
    2.053360e+01    2.107871e+02    5.865300e-03    9.539829e+05    2.009255e-08    9.964310e-12    1.512881e-08   -8.201580e-02
    2.047905e+01    2.116723e+02    6.498590e-03    1.045051e+06    2.026803e-08    1.029938e-11    1.536441e-08   -7.701580e-02
    2.042520e+01    2.126837e+02    7.198305e-03    1.144671e+06    2.044259e-08    1.064512e-11    1.559853e-08   -7.201580e-02
    2.037197e+01    2.138279e+02    7.971225e-03    1.253635e+06    2.061613e-08    1.100188e-11    1.583105e-08   -6.701580e-02
    2.031919e+01    2.151115e+02    8.824800e-03    1.372799e+06    2.078856e-08    1.136997e-11    1.606188e-08   -6.201580e-02
    2.026667e+01    2.165403e+02    9.767205e-03    1.503092e+06    2.095980e-08    1.174975e-11    1.629089e-08   -5.701580e-02
    2.021414e+01    2.181197e+02    1.080742e-02    1.645518e+06    2.112976e-08    1.214157e-11    1.651801e-08   -5.201580e-02
    2.016126e+01    2.198541e+02    1.195526e-02    1.801153e+06    2.129837e-08    1.254580e-11    1.674312e-08   -4.701580e-02
    2.010766e+01    2.217470e+02    1.322150e-02    1.971153e+06    2.146554e-08    1.296282e-11    1.696616e-08   -4.201580e-02
    2.005285e+01    2.238010e+02    1.461789e-02    2.156749e+06    2.163122e-08    1.339301e-11    1.718703e-08   -3.701580e-02
    1.999632e+01    2.260174e+02    1.615726e-02    2.359252e+06    2.179534e-08    1.383678e-11    1.740564e-08   -3.201580e-02
    1.993749e+01    2.283961e+02    1.785360e-02    2.580045e+06    2.195782e-08    1.429455e-11    1.762195e-08   -2.701580e-02
    1.987573e+01    2.309357e+02    1.972210e-02    2.820580e+06    2.211861e-08    1.476675e-11    1.783587e-08   -2.201580e-02
    1.981037e+01    2.336331e+02    2.177923e-02    3.082376e+06    2.227766e-08    1.525381e-11    1.804733e-08   -1.701580e-02
    1.974070e+01    2.364837e+02    2.404282e-02    3.367004e+06    2.243491e-08    1.575620e-11    1.825628e-08   -1.201580e-02
    1.966599e+01    2.394811e+02    2.653210e-02    3.676084e+06    2.259031e-08    1.627440e-11    1.846267e-08   -7.015800e-03
    1.958554e+01    2.426174e+02    2.926776e-02    4.011270e+06    2.274382e-08    1.680889e-11    1.866643e-08   -2.015800e-03
    1.949860e+01    2.458822e+02    3.227199e-02    4.374225e+06    2.289540e-08    1.736017e-11    1.886755e-08    2.984200e-03
    1.940447e+01    2.492642e+02    3.556851e-02    4.766621e+06    2.304501e-08    1.792877e-11    1.906596e-08    7.984200e-03
    1.930251e+01    2.527499e+02    3.918254e-02    5.190112e+06    2.319262e-08    1.851523e-11    1.926164e-08    1.298420e-02
    1.919210e+01    2.563241e+02    4.314090e-02    5.646307e+06    2.333820e-08    1.912010e-11    1.945455e-08    1.798420e-02
    1.907268e+01    2.599700e+02    4.747187e-02    6.136748e+06    2.348172e-08    1.974396e-11    1.964467e-08    2.298420e-02
    1.894381e+01    2.636693e+02    5.220520e-02    6.662897e+06    2.362317e-08    2.038742e-11    1.983197e-08    2.798420e-02
    1.880508e+01    2.674027e+02    5.737215e-02    7.226102e+06    2.376252e-08    2.105108e-11    2.001644e-08    3.298420e-02
    1.865623e+01    2.711492e+02    6.300515e-02    7.827568e+06    2.389974e-08    2.173559e-11    2.019806e-08    3.798420e-02
    1.849707e+01    2.748874e+02    6.913795e-02    8.468341e+06    2.403484e-08    2.244158e-11    2.037682e-08    4.298420e-02
    1.832752e+01    2.785949e+02    7.580540e-02    9.149279e+06    2.416780e-08    2.316978e-11    2.055271e-08    4.798420e-02
    1.814759e+01    2.822487e+02    8.304330e-02    9.871025e+06    2.429862e-08    2.392085e-11    2.072573e-08    5.298420e-02
    1.795745e+01    2.858260e+02    9.088805e-02    1.063400e+07    2.442728e-08    2.469555e-11    2.089588e-08    5.798420e-02
    1.775730e+01    2.893034e+02    9.937690e-02    1.143837e+07    2.455378e-08    2.549464e-11    2.106316e-08    6.298420e-02
    1.754749e+01    2.926590e+02    1.085473e-01    1.228405e+07    2.467814e-08    2.631888e-11    2.122758e-08    6.798420e-02
    1.732842e+01    2.958698e+02    1.184368e-01    1.317067e+07    2.480034e-08    2.716908e-11    2.138914e-08    7.298420e-02
    1.710059e+01    2.989153e+02    1.290830e-01    1.409760e+07    2.492040e-08    2.804610e-11    2.154787e-08    7.798420e-02
    1.686457e+01    3.017748e+02    1.405230e-01    1.506392e+07    2.503832e-08    2.895079e-11    2.170377e-08    8.298420e-02
    1.662100e+01    3.044296e+02    1.527937e-01    1.606844e+07    2.515412e-08    2.988406e-11    2.185685e-08    8.798420e-02
    1.637054e+01    3.068626e+02    1.659307e-01    1.710970e+07    2.526780e-08    3.084685e-11    2.200714e-08    9.298420e-02
    1.611391e+01    3.090574e+02    1.799688e-01    1.818601e+07    2.537938e-08    3.184010e-11    2.215467e-08    9.798420e-02
    1.585185e+01    3.110007e+02    1.949416e-01    1.929541e+07    2.548887e-08    3.286483e-11    2.229944e-08    1.029842e-01
    1.558512e+01    3.126801e+02    2.108810e-01    2.043576e+07    2.559629e-08    3.392207e-11    2.244151e-08    1.079842e-01
    1.531448e+01    3.140859e+02    2.278175e-01    2.160470e+07    2.570166e-08    3.501289e-11    2.258086e-08    1.129842e-01
    1.504071e+01    3.152099e+02    2.457793e-01    2.279973e+07    2.580500e-08    3.613840e-11    2.271757e-08    1.179842e-01
    1.476455e+01    3.160463e+02    2.647929e-01    2.401821e+07    2.590633e-08    3.729977e-11    2.285163e-08    1.229842e-01
    1.448674e+01    3.165912e+02    2.848825e-01    2.525738e+07    2.600568e-08    3.849818e-11    2.298309e-08    1.279842e-01
    1.420801e+01    3.168428e+02    3.060700e-01    2.651445e+07    2.610305e-08    3.973487e-11    2.311198e-08    1.329842e-01
    1.392902e+01    3.168011e+02    3.283750e-01    2.778654e+07    2.619850e-08    4.101113e-11    2.323833e-08    1.379842e-01
    1.365045e+01    3.164680e+02    3.518147e-01    2.907080e+07    2.629202e-08    4.232830e-11    2.336217e-08    1.429842e-01
    1.337289e+01    3.158471e+02    3.764038e-01    3.036435e+07    2.638367e-08    4.368774e-11    2.348356e-08    1.479842e-01
    1.309693e+01    3.149439e+02    4.021544e-01    3.166445e+07    2.647346e-08    4.509091e-11    2.360251e-08    1.529842e-01
    1.282312e+01    3.137651e+02    4.290766e-01    3.296838e+07    2.656140e-08    4.653928e-11    2.371907e-08    1.579842e-01
    1.255192e+01    3.123182e+02    4.571775e-01    3.427344e+07    2.664756e-08    4.803439e-11    2.383328e-08    1.629842e-01
    1.228380e+01    3.106128e+02    4.864624e-01    3.557718e+07    2.673194e-08    4.957786e-11    2.394517e-08    1.679842e-01
    1.201916e+01    3.086593e+02    5.169340e-01    3.687726e+07    2.681458e-08    5.117135e-11    2.405479e-08    1.729842e-01
    1.175837e+01    3.064682e+02    5.485935e-01    3.817142e+07    2.689550e-08    5.281655e-11    2.416217e-08    1.779842e-01
    1.150174e+01    3.040513e+02    5.814390e-01    3.945758e+07    2.697474e-08    5.451525e-11    2.426734e-08    1.829842e-01
    1.124956e+01    3.014209e+02    6.154675e-01    4.073390e+07    2.705234e-08    5.626935e-11    2.437036e-08    1.879842e-01
    1.100208e+01    2.985898e+02    6.506745e-01    4.199869e+07    2.712832e-08    5.808080e-11    2.447127e-08    1.929842e-01
    1.075949e+01    2.955706e+02    6.870530e-01    4.325039e+07    2.720270e-08    5.995150e-11    2.457010e-08    1.979842e-01
    1.052198e+01    2.923766e+02    7.245950e-01    4.448768e+07    2.727553e-08    6.188360e-11    2.466689e-08    2.029842e-01
    1.028967e+01    2.890204e+02    7.632915e-01    4.570935e+07    2.734684e-08    6.387925e-11    2.476168e-08    2.079842e-01
    1.006269e+01    2.855149e+02    8.031315e-01    4.691442e+07    2.741665e-08    6.594070e-11    2.485451e-08    2.129842e-01
    9.841104e+00    2.818735e+02    8.441040e-01    4.810211e+07    2.748500e-08    6.807025e-11    2.494542e-08    2.179842e-01
    9.624965e+00    2.781078e+02    8.861965e-01    4.927168e+07    2.755193e-08    7.027035e-11    2.503446e-08    2.229842e-01
    9.414318e+00    2.742305e+02    9.293955e-01    5.042269e+07    2.761745e-08    7.254345e-11    2.512165e-08    2.279842e-01
    9.209161e+00    2.702533e+02    9.736880e-01    5.155476e+07    2.768161e-08    7.489225e-11    2.520704e-08    2.329842e-01
    9.009484e+00    2.661873e+02    1.019060e+00    5.266763e+07    2.774443e-08    7.731940e-11    2.529067e-08    2.379842e-01
    8.815264e+00    2.620436e+02    1.065495e+00    5.376122e+07    2.780595e-08    7.982770e-11    2.537256e-08    2.429842e-01
    8.626445e+00    2.578323e+02    1.112980e+00    5.483550e+07    2.786620e-08    8.242015e-11    2.545278e-08    2.479842e-01
    8.442976e+00    2.535634e+02    1.161501e+00    5.589062e+07    2.792520e-08    8.509970e-11    2.553133e-08    2.529842e-01
    8.264790e+00    2.492461e+02    1.211041e+00    5.692677e+07    2.798300e-08    8.786955e-11    2.560828e-08    2.579842e-01
    8.091795e+00    2.448890e+02    1.261586e+00    5.794417e+07    2.803962e-08    9.073300e-11    2.568365e-08    2.629842e-01
    7.923912e+00    2.405007e+02    1.313121e+00    5.894326e+07    2.809509e-08    9.369345e-11    2.575747e-08    2.679842e-01
    7.761032e+00    2.360884e+02    1.365632e+00    5.992438e+07    2.814943e-08    9.675450e-11    2.582979e-08    2.729842e-01
    7.603057e+00    2.316595e+02    1.419104e+00    6.088803e+07    2.820269e-08    9.991970e-11    2.590064e-08    2.779842e-01
    7.449875e+00    2.272206e+02    1.473522e+00    6.183469e+07    2.825489e-08    1.031931e-10    2.597004e-08    2.829842e-01
    7.301368e+00    2.227779e+02    1.528874e+00    6.276491e+07    2.830605e-08    1.065784e-10    2.603804e-08    2.879842e-01
