# sky130 nfet_01v8 gm/ID Processed Lookup Table
# Corner: ff
# Temperature: 75C
# W = 2.0 um
# L = 5.22 um (5220 nm)
# Columns: gm/id [1/V]  gm/gds [V/V]  id/W [A/m]  ft [Hz]  Cgg/W [F/m]  Cgd/W [F/m]  Cgs/W [F/m]  Vov [V]
#         gm/id          gm/gds            id/W              ft           Cgg/W           Cgd/W           Cgs/W             Vov
    2.282043e+01    2.277292e+02    1.104481e-06    3.380803e+02    1.186540e-08    7.683195e-13    1.763729e-09   -4.662107e-01
    2.281707e+01    2.276960e+02    1.237966e-06    3.781789e+02    1.188752e-08    7.943960e-13    1.832479e-09   -4.612107e-01
    2.281351e+01    2.276610e+02    1.387559e-06    4.229427e+02    1.191193e-08    8.214210e-13    1.903807e-09   -4.562107e-01
    2.280975e+01    2.276241e+02    1.555200e-06    4.729008e+02    1.193870e-08    8.494295e-13    1.977784e-09   -4.512107e-01
    2.280577e+01    2.275850e+02    1.743061e-06    5.286414e+02    1.196786e-08    8.784585e-13    2.054485e-09   -4.462107e-01
    2.280156e+01    2.275437e+02    1.953576e-06    5.908164e+02    1.199948e-08    9.085450e-13    2.133980e-09   -4.412107e-01
    2.279711e+01    2.275001e+02    2.189467e-06    6.601497e+02    1.203361e-08    9.397290e-13    2.216341e-09   -4.362107e-01
    2.279239e+01    2.274539e+02    2.453786e-06    7.374430e+02    1.207030e-08    9.720510e-13    2.301643e-09   -4.312107e-01
    2.278744e+01    2.274055e+02    2.749948e-06    8.235866e+02    1.210963e-08    1.005552e-12    2.389955e-09   -4.262107e-01
    2.278218e+01    2.273541e+02    3.081776e-06    9.195648e+02    1.215161e-08    1.040276e-12    2.481350e-09   -4.212107e-01
    2.277661e+01    2.272999e+02    3.453551e-06    1.026469e+03    1.219633e-08    1.076268e-12    2.575898e-09   -4.162107e-01
    2.277075e+01    2.272428e+02    3.870066e-06    1.145509e+03    1.224384e-08    1.113573e-12    2.673666e-09   -4.112107e-01
    2.276455e+01    2.271826e+02    4.336684e-06    1.278021e+03    1.229417e-08    1.152240e-12    2.774723e-09   -4.062107e-01
    2.275799e+01    2.271189e+02    4.859407e-06    1.425485e+03    1.234738e-08    1.192318e-12    2.879134e-09   -4.012107e-01
    2.275108e+01    2.270519e+02    5.444955e-06    1.589539e+03    1.240353e-08    1.233859e-12    2.986963e-09   -3.962107e-01
    2.274378e+01    2.269813e+02    6.100840e-06    1.771993e+03    1.246265e-08    1.276914e-12    3.098271e-09   -3.912107e-01
    2.273606e+01    2.269068e+02    6.835480e-06    1.974847e+03    1.252480e-08    1.321538e-12    3.213120e-09   -3.862107e-01
    2.272791e+01    2.268283e+02    7.658275e-06    2.200311e+03    1.259003e-08    1.367786e-12    3.331564e-09   -3.812107e-01
    2.271932e+01    2.267458e+02    8.579750e-06    2.450827e+03    1.265836e-08    1.415720e-12    3.453659e-09   -3.762107e-01
    2.271025e+01    2.266587e+02    9.611680e-06    2.729091e+03    1.272985e-08    1.465395e-12    3.579456e-09   -3.712107e-01
    2.270069e+01    2.265672e+02    1.076722e-05    3.038079e+03    1.280453e-08    1.516875e-12    3.709002e-09   -3.662107e-01
    2.269058e+01    2.264709e+02    1.206110e-05    3.381072e+03    1.288244e-08    1.570224e-12    3.842342e-09   -3.612107e-01
    2.267995e+01    2.263696e+02    1.350975e-05    3.761695e+03    1.296361e-08    1.625507e-12    3.979516e-09   -3.562107e-01
    2.266872e+01    2.262630e+02    1.513157e-05    4.183935e+03    1.304807e-08    1.682791e-12    4.120560e-09   -3.512107e-01
    2.265688e+01    2.261511e+02    1.694712e-05    4.652199e+03    1.313584e-08    1.742147e-12    4.265507e-09   -3.462107e-01
    2.264441e+01    2.260336e+02    1.897934e-05    5.171335e+03    1.322695e-08    1.803645e-12    4.414384e-09   -3.412107e-01
    2.263127e+01    2.259102e+02    2.125391e-05    5.746685e+03    1.332142e-08    1.867361e-12    4.567213e-09   -3.362107e-01
    2.261743e+01    2.257807e+02    2.379946e-05    6.384134e+03    1.341925e-08    1.933371e-12    4.724012e-09   -3.312107e-01
    2.260285e+01    2.256449e+02    2.664799e-05    7.090151e+03    1.352049e-08    2.001753e-12    4.884793e-09   -3.262107e-01
    2.258751e+01    2.255026e+02    2.983523e-05    7.871874e+03    1.362510e-08    2.072587e-12    5.049565e-09   -3.212107e-01
    2.257137e+01    2.253536e+02    3.340105e-05    8.737137e+03    1.373311e-08    2.145958e-12    5.218325e-09   -3.162107e-01
    2.255440e+01    2.251977e+02    3.738996e-05    9.694564e+03    1.384453e-08    2.221951e-12    5.391070e-09   -3.112107e-01
    2.253655e+01    2.250346e+02    4.185160e-05    1.075363e+04    1.395933e-08    2.300656e-12    5.567795e-09   -3.062107e-01
    2.251778e+01    2.248641e+02    4.684134e-05    1.192476e+04    1.407750e-08    2.382161e-12    5.748475e-09   -3.012107e-01
    2.249807e+01    2.246862e+02    5.242095e-05    1.321939e+04    1.419904e-08    2.466562e-12    5.933095e-09   -2.962107e-01
    2.247738e+01    2.245007e+02    5.865925e-05    1.465010e+04    1.432392e-08    2.553954e-12    6.121620e-09   -2.912107e-01
    2.245565e+01    2.243072e+02    6.563300e-05    1.623068e+04    1.445211e-08    2.644436e-12    6.314015e-09   -2.862107e-01
    2.243287e+01    2.241059e+02    7.342760e-05    1.797628e+04    1.458359e-08    2.738110e-12    6.510235e-09   -2.812107e-01
    2.240898e+01    2.238967e+02    8.213835e-05    1.990353e+04    1.471832e-08    2.835082e-12    6.710240e-09   -2.762107e-01
    2.238395e+01    2.236793e+02    9.187125e-05    2.203063e+04    1.485626e-08    2.935459e-12    6.913965e-09   -2.712107e-01
    2.235774e+01    2.234540e+02    1.027442e-04    2.437758e+04    1.499737e-08    3.039352e-12    7.121350e-09   -2.662107e-01
    2.233032e+01    2.232206e+02    1.148887e-04    2.696627e+04    1.514158e-08    3.146875e-12    7.332330e-09   -2.612107e-01
    2.230165e+01    2.229794e+02    1.284505e-04    2.982071e+04    1.528885e-08    3.258146e-12    7.546830e-09   -2.562107e-01
    2.227167e+01    2.227304e+02    1.435923e-04    3.296716e+04    1.543912e-08    3.373284e-12    7.764760e-09   -2.512107e-01
    2.224038e+01    2.224739e+02    1.604943e-04    3.643441e+04    1.559231e-08    3.492415e-12    7.986040e-09   -2.462107e-01
    2.220774e+01    2.222102e+02    1.793572e-04    4.025393e+04    1.574835e-08    3.615665e-12    8.210570e-09   -2.412107e-01
    2.217372e+01    2.219396e+02    2.004037e-04    4.446019e+04    1.590717e-08    3.743167e-12    8.438255e-09   -2.362107e-01
    2.213829e+01    2.216628e+02    2.238808e-04    4.909087e+04    1.606869e-08    3.875055e-12    8.668985e-09   -2.312107e-01
    2.210142e+01    2.213803e+02    2.500633e-04    5.418716e+04    1.623282e-08    4.011467e-12    8.902645e-09   -2.262107e-01
    2.206313e+01    2.210930e+02    2.792552e-04    5.979416e+04    1.639947e-08    4.152546e-12    9.139120e-09   -2.212107e-01
    2.202337e+01    2.208015e+02    3.117941e-04    6.596101e+04    1.656854e-08    4.298439e-12    9.378290e-09   -2.162107e-01
    2.198213e+01    2.205069e+02    3.480538e-04    7.274149e+04    1.673995e-08    4.449297e-12    9.620020e-09   -2.112107e-01
    2.193945e+01    2.202107e+02    3.884490e-04    8.019448e+04    1.691357e-08    4.605274e-12    9.864185e-09   -2.062107e-01
    2.189528e+01    2.199139e+02    4.334382e-04    8.838392e+04    1.708931e-08    4.766530e-12    1.011064e-08   -2.012107e-01
    2.184967e+01    2.196183e+02    4.835295e-04    9.737996e+04    1.726706e-08    4.933228e-12    1.035925e-08   -1.962107e-01
    2.180265e+01    2.193259e+02    5.392845e-04    1.072591e+05    1.744669e-08    5.105540e-12    1.060987e-08   -1.912107e-01
    2.175420e+01    2.190382e+02    6.013255e-04    1.181047e+05    1.762811e-08    5.283635e-12    1.086234e-08   -1.862107e-01
    2.170441e+01    2.187578e+02    6.703390e-04    1.300079e+05    1.781118e-08    5.467690e-12    1.111652e-08   -1.812107e-01
    2.165331e+01    2.184875e+02    7.470845e-04    1.430682e+05    1.799579e-08    5.657895e-12    1.137224e-08   -1.762107e-01
    2.160095e+01    2.182298e+02    8.324010e-04    1.573941e+05    1.818182e-08    5.854430e-12    1.162938e-08   -1.712107e-01
    2.154742e+01    2.179882e+02    9.272150e-04    1.731041e+05    1.836913e-08    6.057500e-12    1.188774e-08   -1.662107e-01
    2.149278e+01    2.177658e+02    1.032550e-03    1.903278e+05    1.855759e-08    6.267295e-12    1.214718e-08   -1.612107e-01
    2.143715e+01    2.175668e+02    1.149534e-03    2.092064e+05    1.874710e-08    6.484025e-12    1.240754e-08   -1.562107e-01
    2.138060e+01    2.173951e+02    1.279413e-03    2.298942e+05    1.893751e-08    6.707900e-12    1.266865e-08   -1.512107e-01
    2.132327e+01    2.172554e+02    1.423561e-03    2.525601e+05    1.912869e-08    6.939135e-12    1.293035e-08   -1.462107e-01
    2.126527e+01    2.171525e+02    1.583493e-03    2.773884e+05    1.932052e-08    7.177955e-12    1.319248e-08   -1.412107e-01
    2.120673e+01    2.170918e+02    1.760879e-03    3.045806e+05    1.951287e-08    7.424595e-12    1.345488e-08   -1.362107e-01
    2.114780e+01    2.170788e+02    1.957562e-03    3.343575e+05    1.970561e-08    7.679285e-12    1.371739e-08   -1.312107e-01
    2.108862e+01    2.171196e+02    2.175570e-03    3.669600e+05    1.989861e-08    7.942275e-12    1.397985e-08   -1.262107e-01
    2.102934e+01    2.172207e+02    2.417141e-03    4.026526e+05    2.009174e-08    8.213810e-12    1.424209e-08   -1.212107e-01
    2.097009e+01    2.173885e+02    2.684741e-03    4.417233e+05    2.028488e-08    8.494155e-12    1.450397e-08   -1.162107e-01
    2.091105e+01    2.176305e+02    2.981084e-03    4.844899e+05    2.047790e-08    8.783570e-12    1.476534e-08   -1.112107e-01
    2.085233e+01    2.179536e+02    3.309163e-03    5.312976e+05    2.067069e-08    9.082335e-12    1.502604e-08   -1.062107e-01
    2.079407e+01    2.183656e+02    3.672274e-03    5.825260e+05    2.086312e-08    9.390730e-12    1.528592e-08   -1.012107e-01
    2.073636e+01    2.188740e+02    4.074047e-03    6.385896e+05    2.105508e-08    9.709045e-12    1.554484e-08   -9.621070e-02
    2.067931e+01    2.194870e+02    4.518480e-03    6.999427e+05    2.124644e-08    1.003758e-11    1.580265e-08   -9.121070e-02
    2.062298e+01    2.202124e+02    5.009975e-03    7.670808e+05    2.143710e-08    1.037665e-11    1.605923e-08   -8.621070e-02
    2.056738e+01    2.210580e+02    5.553380e-03    8.405455e+05    2.162695e-08    1.072657e-11    1.631442e-08   -8.121070e-02
    2.051250e+01    2.220317e+02    6.154025e-03    9.209276e+05    2.181587e-08    1.108766e-11    1.656813e-08   -7.621070e-02
    2.045832e+01    2.231413e+02    6.817770e-03    1.008870e+06    2.200378e-08    1.146027e-11    1.682021e-08   -7.121070e-02
    2.040470e+01    2.243936e+02    7.551075e-03    1.105072e+06    2.219057e-08    1.184475e-11    1.707054e-08   -6.621070e-02
    2.035147e+01    2.257960e+02    8.361020e-03    1.210292e+06    2.237614e-08    1.224145e-11    1.731901e-08   -6.121070e-02
    2.029843e+01    2.273541e+02    9.255380e-03    1.325349e+06    2.256039e-08    1.265074e-11    1.756551e-08   -5.621070e-02
    2.024528e+01    2.290738e+02    1.024269e-02    1.451127e+06    2.274326e-08    1.307302e-11    1.780994e-08   -5.121070e-02
    2.019168e+01    2.309597e+02    1.133230e-02    1.588576e+06    2.292465e-08    1.350868e-11    1.805219e-08   -4.621070e-02
    2.013719e+01    2.330153e+02    1.253444e-02    1.738713e+06    2.310447e-08    1.395812e-11    1.829218e-08   -4.121070e-02
    2.008135e+01    2.352431e+02    1.386028e-02    1.902622e+06    2.328266e-08    1.442176e-11    1.852980e-08   -3.621070e-02
    2.002361e+01    2.376445e+02    1.532201e-02    2.081451e+06    2.345913e-08    1.490003e-11    1.876498e-08   -3.121070e-02
    1.996336e+01    2.402191e+02    1.693291e-02    2.276413e+06    2.363384e-08    1.539340e-11    1.899764e-08   -2.621070e-02
    1.989998e+01    2.429652e+02    1.870739e-02    2.488781e+06    2.380670e-08    1.590231e-11    1.922771e-08   -2.121070e-02
    1.983275e+01    2.458794e+02    2.066109e-02    2.719879e+06    2.397766e-08    1.642726e-11    1.945511e-08   -1.621070e-02
    1.976098e+01    2.489565e+02    2.281090e-02    2.971076e+06    2.414667e-08    1.696873e-11    1.967978e-08   -1.121070e-02
    1.968392e+01    2.521897e+02    2.517504e-02    3.243781e+06    2.431367e-08    1.752722e-11    1.990168e-08   -6.210700e-03
    1.960084e+01    2.555699e+02    2.777310e-02    3.539421e+06    2.447862e-08    1.810328e-11    2.012074e-08   -1.210700e-03
    1.951105e+01    2.590868e+02    3.062603e-02    3.859446e+06    2.464147e-08    1.869743e-11    2.033692e-08    3.789300e-03
    1.941381e+01    2.627273e+02    3.375625e-02    4.205283e+06    2.480219e-08    1.931026e-11    2.055017e-08    8.789300e-03
    1.930850e+01    2.664775e+02    3.718759e-02    4.578354e+06    2.496073e-08    1.994233e-11    2.076046e-08    1.378930e-02
    1.919451e+01    2.703208e+02    4.094527e-02    4.980028e+06    2.511708e-08    2.059425e-11    2.096776e-08    1.878930e-02
    1.907133e+01    2.742394e+02    4.505593e-02    5.411620e+06    2.527120e-08    2.126663e-11    2.117203e-08    2.378930e-02
    1.893850e+01    2.782140e+02    4.954758e-02    5.874358e+06    2.542306e-08    2.196013e-11    2.137325e-08    2.878930e-02
    1.879571e+01    2.822240e+02    5.444945e-02    6.369372e+06    2.557265e-08    2.267540e-11    2.157141e-08    3.378930e-02
    1.864264e+01    2.862472e+02    5.979210e-02    6.897651e+06    2.571995e-08    2.341314e-11    2.176649e-08    3.878930e-02
    1.847920e+01    2.902610e+02    6.560700e-02    7.460052e+06    2.586495e-08    2.417405e-11    2.195847e-08    4.378930e-02
    1.830532e+01    2.942416e+02    7.192675e-02    8.057253e+06    2.600764e-08    2.495886e-11    2.214736e-08    4.878930e-02
    1.812108e+01    2.981651e+02    7.878465e-02    8.689753e+06    2.614799e-08    2.576835e-11    2.233314e-08    5.378930e-02
    1.792663e+01    3.020074e+02    8.621480e-02    9.357839e+06    2.628604e-08    2.660329e-11    2.251582e-08    5.878930e-02
    1.772226e+01    3.057439e+02    9.425160e-02    1.006158e+07    2.642175e-08    2.746450e-11    2.269541e-08    6.378930e-02
    1.750830e+01    3.093514e+02    1.029299e-01    1.080084e+07    2.655513e-08    2.835283e-11    2.287192e-08    6.878930e-02
    1.728524e+01    3.128065e+02    1.122845e-01    1.157520e+07    2.668619e-08    2.926914e-11    2.304533e-08    7.378930e-02
    1.705358e+01    3.160873e+02    1.223501e-01    1.238406e+07    2.681494e-08    3.021433e-11    2.321568e-08    7.878930e-02
    1.681392e+01    3.191723e+02    1.331609e-01    1.322653e+07    2.694138e-08    3.118936e-11    2.338299e-08    8.378930e-02
    1.656691e+01    3.220420e+02    1.447507e-01    1.410152e+07    2.706553e-08    3.219518e-11    2.354727e-08    8.878930e-02
    1.631326e+01    3.246785e+02    1.571524e-01    1.500771e+07    2.718740e-08    3.323280e-11    2.370853e-08    9.378930e-02
    1.605368e+01    3.270651e+02    1.703979e-01    1.594354e+07    2.730700e-08    3.430325e-11    2.386681e-08    9.878930e-02
    1.578893e+01    3.291878e+02    1.845176e-01    1.690730e+07    2.742434e-08    3.540762e-11    2.402213e-08    1.037893e-01
    1.551979e+01    3.310337e+02    1.995407e-01    1.789707e+07    2.753947e-08    3.654702e-11    2.417452e-08    1.087893e-01
    1.524702e+01    3.325927e+02    2.154947e-01    1.891077e+07    2.765237e-08    3.772261e-11    2.432400e-08    1.137893e-01
    1.497139e+01    3.338563e+02    2.324054e-01    1.994622e+07    2.776310e-08    3.893558e-11    2.447062e-08    1.187893e-01
    1.469365e+01    3.348185e+02    2.502967e-01    2.100111e+07    2.787166e-08    4.018718e-11    2.461440e-08    1.237893e-01
    1.441455e+01    3.354753e+02    2.691901e-01    2.207305e+07    2.797807e-08    4.147869e-11    2.475537e-08    1.287893e-01
    1.413478e+01    3.358246e+02    2.891053e-01    2.315963e+07    2.808238e-08    4.281146e-11    2.489358e-08    1.337893e-01
    1.385503e+01    3.358666e+02    3.100599e-01    2.425836e+07    2.818460e-08    4.418686e-11    2.502906e-08    1.387893e-01
    1.357594e+01    3.356031e+02    3.320689e-01    2.536681e+07    2.828475e-08    4.560633e-11    2.516185e-08    1.437893e-01
    1.329811e+01    3.350378e+02    3.551453e-01    2.648253e+07    2.838289e-08    4.707136e-11    2.529199e-08    1.487893e-01
    1.302211e+01    3.341761e+02    3.792997e-01    2.760317e+07    2.847902e-08    4.858349e-11    2.541951e-08    1.537893e-01
    1.274845e+01    3.330247e+02    4.045405e-01    2.872638e+07    2.857318e-08    5.014430e-11    2.554446e-08    1.587893e-01
    1.247762e+01    3.315919e+02    4.308741e-01    2.984999e+07    2.866541e-08    5.175550e-11    2.566688e-08    1.637893e-01
    1.221006e+01    3.298871e+02    4.583045e-01    3.097188e+07    2.875574e-08    5.341880e-11    2.578681e-08    1.687893e-01
    1.194614e+01    3.279205e+02    4.868337e-01    3.209003e+07    2.884419e-08    5.513600e-11    2.590430e-08    1.737893e-01
    1.168623e+01    3.257034e+02    5.164620e-01    3.320264e+07    2.893080e-08    5.690890e-11    2.601939e-08    1.787893e-01
    1.143062e+01    3.232479e+02    5.471880e-01    3.430797e+07    2.901561e-08    5.873945e-11    2.613211e-08    1.837893e-01
    1.117960e+01    3.205660e+02    5.790075e-01    3.540444e+07    2.909864e-08    6.062970e-11    2.624252e-08    1.887893e-01
    1.093337e+01    3.176711e+02    6.119165e-01    3.649069e+07    2.917993e-08    6.258165e-11    2.635065e-08    1.937893e-01
    1.069213e+01    3.145759e+02    6.459085e-01    3.756543e+07    2.925952e-08    6.459755e-11    2.645656e-08    1.987893e-01
    1.045606e+01    3.112940e+02    6.809755e-01    3.862757e+07    2.933744e-08    6.667955e-11    2.656026e-08    2.037893e-01
    1.022528e+01    3.078388e+02    7.171085e-01    3.967621e+07    2.941373e-08    6.883000e-11    2.666184e-08    2.087893e-01
    9.999874e+00    3.042232e+02    7.542980e-01    4.071049e+07    2.948840e-08    7.105135e-11    2.676131e-08    2.137893e-01
    9.779908e+00    3.004601e+02    7.925335e-01    4.172975e+07    2.956152e-08    7.334605e-11    2.685871e-08    2.187893e-01
    9.565438e+00    2.965627e+02    8.318035e-01    4.273352e+07    2.963310e-08    7.571675e-11    2.695411e-08    2.237893e-01
    9.356492e+00    2.925434e+02    8.720950e-01    4.372140e+07    2.970318e-08    7.816610e-11    2.704752e-08    2.287893e-01
    9.153051e+00    2.884140e+02    9.133965e-01    4.469308e+07    2.977180e-08    8.069700e-11    2.713901e-08    2.337893e-01
    8.955105e+00    2.841862e+02    9.556945e-01    4.564843e+07    2.983899e-08    8.331230e-11    2.722859e-08    2.387893e-01
    8.762622e+00    2.798714e+02    9.989755e-01    4.658741e+07    2.990478e-08    8.601500e-11    2.731634e-08    2.437893e-01
    8.575539e+00    2.754799e+02    1.043227e+00    4.751000e+07    2.996920e-08    8.880835e-11    2.740228e-08    2.487893e-01
    8.393806e+00    2.710222e+02    1.088434e+00    4.841640e+07    3.003230e-08    9.169555e-11    2.748644e-08    2.537893e-01
    8.217336e+00    2.665077e+02    1.134583e+00    4.930673e+07    3.009410e-08    9.468005e-11    2.756887e-08    2.587893e-01
    8.046044e+00    2.619453e+02    1.181661e+00    5.018126e+07    3.015463e-08    9.776535e-11    2.764961e-08    2.637893e-01
    7.879841e+00    2.573440e+02    1.229656e+00    5.104037e+07    3.021393e-08    1.009551e-10    2.772870e-08    2.687893e-01
    7.718618e+00    2.527113e+02    1.278552e+00    5.188436e+07    3.027204e-08    1.042532e-10    2.780617e-08    2.737893e-01
    7.562276e+00    2.480550e+02    1.328337e+00    5.271368e+07    3.032897e-08    1.076636e-10    2.788207e-08    2.787893e-01
    7.410693e+00    2.433819e+02    1.379000e+00    5.352876e+07    3.038478e-08    1.111904e-10    2.795642e-08    2.837893e-01
    7.263750e+00    2.386985e+02    1.430527e+00    5.433002e+07    3.043948e-08    1.148378e-10    2.802927e-08    2.887893e-01
