# sky130 nfet_01v8 gm/ID Processed Lookup Table
# Corner: ff
# Temperature: 75C
# W = 2.0 um
# L = 3.78 um (3780 nm)
# Columns: gm/id [1/V]  gm/gds [V/V]  id/W [A/m]  ft [Hz]  Cgg/W [F/m]  Cgd/W [F/m]  Cgs/W [F/m]  Vov [V]
#         gm/id          gm/gds            id/W              ft           Cgg/W           Cgd/W           Cgs/W             Vov
    2.262615e+01    1.856220e+02    1.486069e-06    6.224847e+02    8.596880e-09    5.543520e-13    1.262991e-09   -4.703316e-01
    2.262295e+01    1.855962e+02    1.664054e-06    6.957100e+02    8.612090e-09    5.730065e-13    1.311801e-09   -4.653316e-01
    2.261957e+01    1.855688e+02    1.863327e-06    7.773855e+02    8.628930e-09    5.923335e-13    1.362426e-09   -4.603316e-01
    2.261600e+01    1.855399e+02    2.086425e-06    8.684643e+02    8.647425e-09    6.123575e-13    1.414916e-09   -4.553316e-01
    2.261223e+01    1.855095e+02    2.336193e-06    9.700012e+02    8.667625e-09    6.331050e-13    1.469323e-09   -4.503316e-01
    2.260823e+01    1.854772e+02    2.615811e-06    1.083167e+03    8.689555e-09    6.546020e-13    1.525698e-09   -4.453316e-01
    2.260400e+01    1.854431e+02    2.928835e-06    1.209259e+03    8.713265e-09    6.768765e-13    1.584089e-09   -4.403316e-01
    2.259955e+01    1.854072e+02    3.279247e-06    1.349717e+03    8.738790e-09    6.999565e-13    1.644550e-09   -4.353316e-01
    2.259483e+01    1.853693e+02    3.671499e-06    1.506133e+03    8.766160e-09    7.238720e-13    1.707131e-09   -4.303316e-01
    2.258986e+01    1.853293e+02    4.110570e-06    1.680269e+03    8.795425e-09    7.486525e-13    1.771881e-09   -4.253316e-01
    2.258460e+01    1.852870e+02    4.602033e-06    1.874078e+03    8.826620e-09    7.743300e-13    1.838850e-09   -4.203316e-01
    2.257905e+01    1.852426e+02    5.152115e-06    2.089722e+03    8.859775e-09    8.009375e-13    1.908087e-09   -4.153316e-01
    2.257318e+01    1.851955e+02    5.767785e-06    2.329590e+03    8.894930e-09    8.285075e-13    1.979638e-09   -4.103316e-01
    2.256699e+01    1.851461e+02    6.456830e-06    2.596321e+03    8.932125e-09    8.570755e-13    2.053550e-09   -4.053316e-01
    2.256045e+01    1.850939e+02    7.227965e-06    2.892839e+03    8.971390e-09    8.866775e-13    2.129869e-09   -4.003316e-01
    2.255355e+01    1.850388e+02    8.090920e-06    3.222369e+03    9.012760e-09    9.173495e-13    2.208638e-09   -3.953316e-01
    2.254627e+01    1.849809e+02    9.056585e-06    3.588475e+03    9.056270e-09    9.491305e-13    2.289900e-09   -3.903316e-01
    2.253858e+01    1.849198e+02    1.013712e-05    3.995094e+03    9.101950e-09    9.820600e-13    2.373695e-09   -3.853316e-01
    2.253047e+01    1.848555e+02    1.134614e-05    4.446572e+03    9.149830e-09    1.016178e-12    2.460063e-09   -3.803316e-01
    2.252191e+01    1.847878e+02    1.269881e-05    4.947701e+03    9.199940e-09    1.051527e-12    2.549040e-09   -3.753316e-01
    2.251289e+01    1.847166e+02    1.421213e-05    5.503768e+03    9.252310e-09    1.088150e-12    2.640659e-09   -3.703316e-01
    2.250337e+01    1.846417e+02    1.590505e-05    6.120610e+03    9.306960e-09    1.126092e-12    2.734954e-09   -3.653316e-01
    2.249333e+01    1.845629e+02    1.779876e-05    6.804650e+03    9.363920e-09    1.165400e-12    2.831954e-09   -3.603316e-01
    2.248275e+01    1.844800e+02    1.991691e-05    7.562978e+03    9.423205e-09    1.206119e-12    2.931685e-09   -3.553316e-01
    2.247161e+01    1.843930e+02    2.228592e-05    8.403397e+03    9.484840e-09    1.248299e-12    3.034172e-09   -3.503316e-01
    2.245986e+01    1.843015e+02    2.493529e-05    9.334501e+03    9.548835e-09    1.291992e-12    3.139434e-09   -3.453316e-01
    2.244749e+01    1.842055e+02    2.789793e-05    1.036575e+04    9.615215e-09    1.337248e-12    3.247489e-09   -3.403316e-01
    2.243446e+01    1.841048e+02    3.121060e-05    1.150757e+04    9.683985e-09    1.384121e-12    3.358351e-09   -3.353316e-01
    2.242074e+01    1.839990e+02    3.491428e-05    1.277141e+04    9.755160e-09    1.432667e-12    3.472030e-09   -3.303316e-01
    2.240630e+01    1.838882e+02    3.905472e-05    1.416988e+04    9.828740e-09    1.482941e-12    3.588534e-09   -3.253316e-01
    2.239112e+01    1.837722e+02    4.368294e-05    1.571684e+04    9.904730e-09    1.535004e-12    3.707864e-09   -3.203316e-01
    2.237515e+01    1.836508e+02    4.885584e-05    1.742752e+04    9.983135e-09    1.588914e-12    3.830020e-09   -3.153316e-01
    2.235836e+01    1.835237e+02    5.463680e-05    1.931866e+04    1.006395e-08    1.644734e-12    3.954996e-09   -3.103316e-01
    2.234071e+01    1.833907e+02    6.109660e-05    2.140865e+04    1.014717e-08    1.702528e-12    4.082783e-09   -3.053316e-01
    2.232218e+01    1.832519e+02    6.831390e-05    2.371768e+04    1.023278e-08    1.762361e-12    4.213367e-09   -3.003316e-01
    2.230271e+01    1.831070e+02    7.637660e-05    2.626792e+04    1.032078e-08    1.824301e-12    4.346729e-09   -2.953316e-01
    2.228229e+01    1.829559e+02    8.538235e-05    2.908370e+04    1.041114e-08    1.888417e-12    4.482846e-09   -2.903316e-01
    2.226087e+01    1.827985e+02    9.543995e-05    3.219171e+04    1.050385e-08    1.954781e-12    4.621692e-09   -2.853316e-01
    2.223840e+01    1.826347e+02    1.066707e-04    3.562119e+04    1.059889e-08    2.023466e-12    4.763234e-09   -2.803316e-01
    2.221486e+01    1.824644e+02    1.192092e-04    3.940425e+04    1.069622e-08    2.094549e-12    4.907437e-09   -2.753316e-01
    2.219021e+01    1.822876e+02    1.332055e-04    4.357605e+04    1.079582e-08    2.168107e-12    5.054260e-09   -2.703316e-01
    2.216440e+01    1.821042e+02    1.488263e-04    4.817513e+04    1.089765e-08    2.244219e-12    5.203655e-09   -2.653316e-01
    2.213741e+01    1.819143e+02    1.662570e-04    5.324367e+04    1.100168e-08    2.322969e-12    5.355570e-09   -2.603316e-01
    2.210921e+01    1.817180e+02    1.857036e-04    5.882785e+04    1.110787e-08    2.404441e-12    5.509955e-09   -2.553316e-01
    2.207974e+01    1.815154e+02    2.073949e-04    6.497825e+04    1.121616e-08    2.488722e-12    5.666750e-09   -2.503316e-01
    2.204898e+01    1.813065e+02    2.315851e-04    7.175017e+04    1.132652e-08    2.575902e-12    5.825890e-09   -2.453316e-01
    2.201693e+01    1.810918e+02    2.585561e-04    7.920421e+04    1.143888e-08    2.666072e-12    5.987305e-09   -2.403316e-01
    2.198352e+01    1.808715e+02    2.886210e-04    8.740638e+04    1.155320e-08    2.759328e-12    6.150925e-09   -2.353316e-01
    2.194874e+01    1.806459e+02    3.221269e-04    9.642900e+04    1.166942e-08    2.855766e-12    6.316670e-09   -2.303316e-01
    2.191259e+01    1.804155e+02    3.594587e-04    1.063512e+05    1.178747e-08    2.955486e-12    6.484465e-09   -2.253316e-01
    2.187502e+01    1.801809e+02    4.010431e-04    1.172592e+05    1.190729e-08    3.058593e-12    6.654225e-09   -2.203316e-01
    2.183604e+01    1.799428e+02    4.473526e-04    1.292473e+05    1.202881e-08    3.165190e-12    6.825860e-09   -2.153316e-01
    2.179564e+01    1.797020e+02    4.989106e-04    1.424184e+05    1.215196e-08    3.275387e-12    6.999280e-09   -2.103316e-01
    2.175380e+01    1.794592e+02    5.562965e-04    1.568849e+05    1.227667e-08    3.389297e-12    7.174390e-09   -2.053316e-01
    2.171055e+01    1.792158e+02    6.201510e-04    1.727692e+05    1.240287e-08    3.507033e-12    7.351095e-09   -2.003316e-01
    2.166590e+01    1.789727e+02    6.911830e-04    1.902054e+05    1.253046e-08    3.628714e-12    7.529290e-09   -1.953316e-01
    2.161986e+01    1.787315e+02    7.701765e-04    2.093393e+05    1.265939e-08    3.754462e-12    7.708875e-09   -1.903316e-01
    2.157248e+01    1.784938e+02    8.579970e-04    2.303301e+05    1.278955e-08    3.884401e-12    7.889745e-09   -1.853316e-01
    2.152376e+01    1.782610e+02    9.556025e-04    2.533517e+05    1.292087e-08    4.018661e-12    8.071795e-09   -1.803316e-01
    2.147378e+01    1.780355e+02    1.064049e-03    2.785935e+05    1.305326e-08    4.157373e-12    8.254910e-09   -1.753316e-01
    2.142259e+01    1.778192e+02    1.184502e-03    3.062623e+05    1.318665e-08    4.300673e-12    8.438985e-09   -1.703316e-01
    2.137024e+01    1.776146e+02    1.318250e-03    3.365838e+05    1.332092e-08    4.448702e-12    8.623905e-09   -1.653316e-01
    2.131683e+01    1.774244e+02    1.466712e-03    3.698040e+05    1.345600e-08    4.601604e-12    8.809560e-09   -1.603316e-01
    2.126244e+01    1.772515e+02    1.631454e-03    4.061919e+05    1.359180e-08    4.759526e-12    8.995835e-09   -1.553316e-01
    2.120717e+01    1.770991e+02    1.814202e-03    4.460406e+05    1.372822e-08    4.922621e-12    9.182615e-09   -1.503316e-01
    2.115113e+01    1.769706e+02    2.016861e-03    4.896704e+05    1.386518e-08    5.091045e-12    9.369790e-09   -1.453316e-01
    2.109444e+01    1.768698e+02    2.241525e-03    5.374316e+05    1.400259e-08    5.264965e-12    9.557245e-09   -1.403316e-01
    2.103722e+01    1.768007e+02    2.490505e-03    5.897062e+05    1.414035e-08    5.444535e-12    9.744860e-09   -1.353316e-01
    2.097963e+01    1.767677e+02    2.766348e-03    6.469133e+05    1.427837e-08    5.629940e-12    9.932535e-09   -1.303316e-01
    2.092178e+01    1.767752e+02    3.071855e-03    7.095084e+05    1.441657e-08    5.821345e-12    1.012015e-08   -1.253316e-01
    2.086382e+01    1.768282e+02    3.410113e-03    7.779919e+05    1.455485e-08    6.018940e-12    1.030759e-08   -1.203316e-01
    2.080591e+01    1.769317e+02    3.784522e-03    8.529113e+05    1.469313e-08    6.222905e-12    1.049475e-08   -1.153316e-01
    2.074818e+01    1.770911e+02    4.198826e-03    9.348642e+05    1.483131e-08    6.433430e-12    1.068153e-08   -1.103316e-01
    2.069078e+01    1.773119e+02    4.657143e-03    1.024506e+06    1.496931e-08    6.650725e-12    1.086781e-08   -1.053316e-01
    2.063381e+01    1.775999e+02    5.164010e-03    1.122552e+06    1.510707e-08    6.874985e-12    1.105350e-08   -1.003316e-01
    2.057741e+01    1.779610e+02    5.724420e-03    1.229788e+06    1.524447e-08    7.106420e-12    1.123849e-08   -9.533160e-02
    2.052168e+01    1.784012e+02    6.343865e-03    1.347069e+06    1.538144e-08    7.345250e-12    1.142268e-08   -9.033160e-02
    2.046664e+01    1.789264e+02    7.028400e-03    1.475332e+06    1.551791e-08    7.591695e-12    1.160599e-08   -8.533160e-02
    2.041237e+01    1.795425e+02    7.784670e-03    1.615600e+06    1.565381e-08    7.845985e-12    1.178830e-08   -8.033160e-02
    2.035886e+01    1.802555e+02    8.619990e-03    1.768987e+06    1.578904e-08    8.108360e-12    1.196955e-08   -7.533160e-02
    2.030607e+01    1.810709e+02    9.542410e-03    1.936708e+06    1.592355e-08    8.379065e-12    1.214962e-08   -7.033160e-02
    2.025390e+01    1.819943e+02    1.056077e-02    2.120083e+06    1.605726e-08    8.658350e-12    1.232846e-08   -6.533160e-02
    2.020223e+01    1.830307e+02    1.168476e-02    2.320544e+06    1.619010e-08    8.946475e-12    1.250596e-08   -6.033160e-02
    2.015085e+01    1.841846e+02    1.292507e-02    2.539641e+06    1.632202e-08    9.243705e-12    1.268206e-08   -5.533160e-02
    2.009950e+01    1.854600e+02    1.429335e-02    2.779046e+06    1.645295e-08    9.550320e-12    1.285668e-08   -5.033160e-02
    2.004786e+01    1.868602e+02    1.580242e-02    3.040558e+06    1.658282e-08    9.866605e-12    1.302976e-08   -4.533160e-02
    1.999555e+01    1.883878e+02    1.746627e-02    3.326107e+06    1.671159e-08    1.019285e-11    1.320122e-08   -4.033160e-02
    1.994213e+01    1.900443e+02    1.930023e-02    3.637750e+06    1.683919e-08    1.052938e-11    1.337100e-08   -3.533160e-02
    1.988708e+01    1.918302e+02    2.132095e-02    3.977673e+06    1.696558e-08    1.087648e-11    1.353905e-08   -3.033160e-02
    1.982984e+01    1.937451e+02    2.354666e-02    4.348187e+06    1.709072e-08    1.123448e-11    1.370531e-08   -2.533160e-02
    1.976978e+01    1.957869e+02    2.599708e-02    4.751721e+06    1.721454e-08    1.160373e-11    1.386972e-08   -2.033160e-02
    1.970628e+01    1.979529e+02    2.869365e-02    5.190818e+06    1.733703e-08    1.198456e-11    1.403224e-08   -1.533160e-02
    1.963862e+01    2.002384e+02    3.165955e-02    5.668109e+06    1.745813e-08    1.237733e-11    1.419283e-08   -1.033160e-02
    1.956611e+01    2.026374e+02    3.491980e-02    6.186309e+06    1.757781e-08    1.278240e-11    1.435144e-08   -5.331600e-03
    1.948801e+01    2.051426e+02    3.850129e-02    6.748188e+06    1.769602e-08    1.320017e-11    1.450804e-08   -3.316000e-04
    1.940361e+01    2.077447e+02    4.243288e-02    7.356544e+06    1.781276e-08    1.363102e-11    1.466260e-08    4.668400e-03
    1.931223e+01    2.104338e+02    4.674542e-02    8.014201e+06    1.792798e-08    1.407536e-11    1.481507e-08    9.668400e-03
    1.921322e+01    2.131977e+02    5.147175e-02    8.723933e+06    1.804167e-08    1.453361e-11    1.496545e-08    1.466840e-02
    1.910595e+01    2.160231e+02    5.664675e-02    9.488471e+06    1.815380e-08    1.500619e-11    1.511370e-08    1.966840e-02
    1.898988e+01    2.188958e+02    6.230725e-02    1.031043e+07    1.826435e-08    1.549356e-11    1.525980e-08    2.466840e-02
    1.886453e+01    2.217996e+02    6.849205e-02    1.119230e+07    1.837329e-08    1.599620e-11    1.540374e-08    2.966840e-02
    1.872951e+01    2.247177e+02    7.524180e-02    1.213638e+07    1.848062e-08    1.651456e-11    1.554551e-08    3.466840e-02
    1.858451e+01    2.276325e+02    8.259890e-02    1.314473e+07    1.858634e-08    1.704915e-11    1.568508e-08    3.966840e-02
    1.842933e+01    2.305251e+02    9.060735e-02    1.421917e+07    1.869042e-08    1.760048e-11    1.582247e-08    4.466840e-02
    1.826389e+01    2.333772e+02    9.931260e-02    1.536120e+07    1.879285e-08    1.816908e-11    1.595765e-08    4.966840e-02
    1.808817e+01    2.361689e+02    1.087614e-01    1.657197e+07    1.889364e-08    1.875550e-11    1.609063e-08    5.466840e-02
    1.790228e+01    2.388813e+02    1.190017e-01    1.785225e+07    1.899278e-08    1.936031e-11    1.622141e-08    5.966840e-02
    1.770642e+01    2.414945e+02    1.300818e-01    1.920239e+07    1.909027e-08    1.998409e-11    1.634999e-08    6.466840e-02
    1.750090e+01    2.439904e+02    1.420509e-01    2.062233e+07    1.918610e-08    2.062746e-11    1.647637e-08    6.966840e-02
    1.728609e+01    2.463503e+02    1.549584e-01    2.211152e+07    1.928028e-08    2.129104e-11    1.660057e-08    7.466840e-02
    1.706248e+01    2.485569e+02    1.688535e-01    2.366898e+07    1.937283e-08    2.197548e-11    1.672259e-08    7.966840e-02
    1.683060e+01    2.505939e+02    1.837852e-01    2.529323e+07    1.946373e-08    2.268147e-11    1.684244e-08    8.466840e-02
    1.659104e+01    2.524461e+02    1.998016e-01    2.698232e+07    1.955300e-08    2.340968e-11    1.696013e-08    8.966840e-02
    1.634446e+01    2.540997e+02    2.169499e-01    2.873389e+07    1.964065e-08    2.416086e-11    1.707568e-08    9.466840e-02
    1.609156e+01    2.555425e+02    2.352759e-01    3.054510e+07    1.972669e-08    2.493576e-11    1.718912e-08    9.966840e-02
    1.583304e+01    2.567639e+02    2.548239e-01    3.241273e+07    1.981112e-08    2.573514e-11    1.730045e-08    1.046684e-01
    1.556967e+01    2.577551e+02    2.756361e-01    3.433317e+07    1.989398e-08    2.655981e-11    1.740969e-08    1.096684e-01
    1.530218e+01    2.585089e+02    2.977525e-01    3.630251e+07    1.997525e-08    2.741062e-11    1.751686e-08    1.146684e-01
    1.503133e+01    2.590201e+02    3.212108e-01    3.831649e+07    2.005497e-08    2.828841e-11    1.762199e-08    1.196684e-01
    1.475787e+01    2.592852e+02    3.460459e-01    4.037065e+07    2.013315e-08    2.919408e-11    1.772510e-08    1.246684e-01
    1.448253e+01    2.593027e+02    3.722900e-01    4.246038e+07    2.020980e-08    3.012858e-11    1.782621e-08    1.296684e-01
    1.420603e+01    2.590726e+02    3.999721e-01    4.458087e+07    2.028495e-08    3.109285e-11    1.792536e-08    1.346684e-01
    1.392903e+01    2.585964e+02    4.291183e-01    4.672720e+07    2.035861e-08    3.208789e-11    1.802255e-08    1.396684e-01
    1.365221e+01    2.578778e+02    4.597512e-01    4.889455e+07    2.043081e-08    3.311474e-11    1.811783e-08    1.446684e-01
    1.337618e+01    2.569212e+02    4.918904e-01    5.107800e+07    2.050155e-08    3.417447e-11    1.821122e-08    1.496684e-01
    1.310152e+01    2.557327e+02    5.255520e-01    5.327270e+07    2.057088e-08    3.526819e-11    1.830274e-08    1.546684e-01
    1.282878e+01    2.543201e+02    5.607495e-01    5.547407e+07    2.063879e-08    3.639707e-11    1.839243e-08    1.596684e-01
    1.255844e+01    2.526910e+02    5.974920e-01    5.767746e+07    2.070532e-08    3.756229e-11    1.848031e-08    1.646684e-01
    1.229098e+01    2.508551e+02    6.357870e-01    5.987857e+07    2.077049e-08    3.876510e-11    1.856641e-08    1.696684e-01
    1.202682e+01    2.488226e+02    6.756375e-01    6.207334e+07    2.083433e-08    4.000677e-11    1.865078e-08    1.746684e-01
    1.176631e+01    2.466036e+02    7.170445e-01    6.425779e+07    2.089685e-08    4.128868e-11    1.873342e-08    1.796684e-01
    1.150982e+01    2.442098e+02    7.600060e-01    6.642844e+07    2.095808e-08    4.261218e-11    1.881437e-08    1.846684e-01
    1.125760e+01    2.416523e+02    8.045180e-01    6.858191e+07    2.101805e-08    4.397872e-11    1.889367e-08    1.896684e-01
    1.100994e+01    2.389429e+02    8.505730e-01    7.071523e+07    2.107676e-08    4.538981e-11    1.897135e-08    1.946684e-01
    1.076706e+01    2.360935e+02    8.981620e-01    7.282571e+07    2.113426e-08    4.684698e-11    1.904743e-08    1.996684e-01
    1.052911e+01    2.331159e+02    9.472745e-01    7.491093e+07    2.119056e-08    4.835186e-11    1.912194e-08    2.046684e-01
    1.029627e+01    2.300216e+02    9.978970e-01    7.696884e+07    2.124569e-08    4.990611e-11    1.919492e-08    2.096684e-01
    1.006866e+01    2.268223e+02    1.050015e+00    7.899767e+07    2.129968e-08    5.151150e-11    1.926639e-08    2.146684e-01
    9.846355e+00    2.235293e+02    1.103614e+00    8.099592e+07    2.135255e-08    5.316975e-11    1.933639e-08    2.196684e-01
    9.629430e+00    2.201534e+02    1.158676e+00    8.296242e+07    2.140431e-08    5.488285e-11    1.940495e-08    2.246684e-01
    9.417926e+00    2.167049e+02    1.215182e+00    8.489618e+07    2.145500e-08    5.665265e-11    1.947209e-08    2.296684e-01
    9.211858e+00    2.131945e+02    1.273114e+00    8.679659e+07    2.150463e-08    5.848125e-11    1.953785e-08    2.346684e-01
    9.011226e+00    2.096313e+02    1.332453e+00    8.866313e+07    2.155324e-08    6.037070e-11    1.960225e-08    2.396684e-01
    8.816005e+00    2.060246e+02    1.393177e+00    9.049562e+07    2.160085e-08    6.232320e-11    1.966532e-08    2.446684e-01
    8.626161e+00    2.023831e+02    1.455269e+00    9.229398e+07    2.164749e-08    6.434100e-11    1.972710e-08    2.496684e-01
    8.441645e+00    1.987150e+02    1.518705e+00    9.405842e+07    2.169316e-08    6.642650e-11    1.978760e-08    2.546684e-01
    8.262393e+00    1.950277e+02    1.583465e+00    9.578927e+07    2.173790e-08    6.858210e-11    1.984687e-08    2.596684e-01
    8.088325e+00    1.913282e+02    1.649530e+00    9.748691e+07    2.178174e-08    7.081035e-11    1.990492e-08    2.646684e-01
    7.919359e+00    1.876234e+02    1.716878e+00    9.915201e+07    2.182469e-08    7.311390e-11    1.996178e-08    2.696684e-01
    7.755399e+00    1.839190e+02    1.785489e+00    1.007852e+08    2.186678e-08    7.549555e-11    2.001748e-08    2.746684e-01
    7.596347e+00    1.802206e+02    1.855343e+00    1.023872e+08    2.190803e-08    7.795805e-11    2.007205e-08    2.796684e-01
    7.442093e+00    1.765334e+02    1.926421e+00    1.039591e+08    2.194846e-08    8.050450e-11    2.012551e-08    2.846684e-01
