# sky130 nfet_01v8 gm/ID Processed Lookup Table
# Corner: ff
# Temperature: 75C
# W = 2.0 um
# L = 2.52 um (2520 nm)
# Columns: gm/id [1/V]  gm/gds [V/V]  id/W [A/m]  ft [Hz]  Cgg/W [F/m]  Cgd/W [F/m]  Cgs/W [F/m]  Vov [V]
#         gm/id          gm/gds            id/W              ft           Cgg/W           Cgd/W           Cgs/W             Vov
    2.297254e+01    1.559611e+02    1.616697e-06    1.032734e+03    5.723605e-09    3.220916e-13    7.861640e-10   -4.776702e-01
    2.296974e+01    1.559423e+02    1.813469e-06    1.156554e+03    5.732185e-09    3.329902e-13    8.167145e-10   -4.726702e-01
    2.296677e+01    1.559223e+02    2.034159e-06    1.294960e+03    5.741810e-09    3.442839e-13    8.484305e-10   -4.676702e-01
    2.296364e+01    1.559013e+02    2.281673e-06    1.449627e+03    5.752515e-09    3.559872e-13    8.813470e-10   -4.626702e-01
    2.296031e+01    1.558790e+02    2.559262e-06    1.622426e+03    5.764315e-09    3.681154e-13    9.154985e-10   -4.576702e-01
    2.295679e+01    1.558554e+02    2.870573e-06    1.815429e+03    5.777245e-09    3.806843e-13    9.509200e-10   -4.526702e-01
    2.295308e+01    1.558306e+02    3.219695e-06    2.030943e+03    5.791325e-09    3.937102e-13    9.876475e-10   -4.476702e-01
    2.294914e+01    1.558042e+02    3.611207e-06    2.271526e+03    5.806590e-09    4.072101e-13    1.025717e-09   -4.426702e-01
    2.294498e+01    1.557763e+02    4.050246e-06    2.540024e+03    5.823060e-09    4.212012e-13    1.065164e-09   -4.376702e-01
    2.294058e+01    1.557470e+02    4.542564e-06    2.839591e+03    5.840765e-09    4.357018e-13    1.106023e-09   -4.326702e-01
    2.293593e+01    1.557160e+02    5.094610e-06    3.173731e+03    5.859725e-09    4.507304e-13    1.148330e-09   -4.276702e-01
    2.293101e+01    1.556832e+02    5.713605e-06    3.546318e+03    5.879980e-09    4.663064e-13    1.192120e-09   -4.226702e-01
    2.292581e+01    1.556485e+02    6.407650e-06    3.961666e+03    5.901545e-09    4.824497e-13    1.237427e-09   -4.176702e-01
    2.292030e+01    1.556119e+02    7.185810e-06    4.424539e+03    5.924450e-09    4.991810e-13    1.284284e-09   -4.126702e-01
    2.291449e+01    1.555733e+02    8.058240e-06    4.940228e+03    5.948720e-09    5.165215e-13    1.332726e-09   -4.076702e-01
    2.290834e+01    1.555326e+02    9.036325e-06    5.514585e+03    5.974380e-09    5.344930e-13    1.382785e-09   -4.026702e-01
    2.290185e+01    1.554896e+02    1.013281e-05    6.154090e+03    6.001455e-09    5.531190e-13    1.434493e-09   -3.976702e-01
    2.289500e+01    1.554442e+02    1.136195e-05    6.865909e+03    6.029975e-09    5.724220e-13    1.487881e-09   -3.926702e-01
    2.288774e+01    1.553964e+02    1.273976e-05    7.657995e+03    6.059950e-09    5.924265e-13    1.542978e-09   -3.876702e-01
    2.288009e+01    1.553459e+02    1.428410e-05    8.539108e+03    6.091415e-09    6.131575e-13    1.599814e-09   -3.826702e-01
    2.287200e+01    1.552927e+02    1.601503e-05    9.518959e+03    6.124385e-09    6.346410e-13    1.658414e-09   -3.776702e-01
    2.286346e+01    1.552366e+02    1.795496e-05    1.060827e+04    6.158885e-09    6.569030e-13    1.718807e-09   -3.726702e-01
    2.285444e+01    1.551776e+02    2.012900e-05    1.181888e+04    6.194930e-09    6.799715e-13    1.781015e-09   -3.676702e-01
    2.284494e+01    1.551154e+02    2.256522e-05    1.316390e+04    6.232540e-09    7.038740e-13    1.845060e-09   -3.626702e-01
    2.283488e+01    1.550499e+02    2.529507e-05    1.465776e+04    6.271730e-09    7.286405e-13    1.910966e-09   -3.576702e-01
    2.282428e+01    1.549809e+02    2.835371e-05    1.631640e+04    6.312520e-09    7.543005e-13    1.978750e-09   -3.526702e-01
    2.281311e+01    1.549084e+02    3.178045e-05    1.815744e+04    6.354920e-09    7.808850e-13    2.048429e-09   -3.476702e-01
    2.280132e+01    1.548321e+02    3.561930e-05    2.020027e+04    6.398945e-09    8.084255e-13    2.120018e-09   -3.426702e-01
    2.278888e+01    1.547518e+02    3.991944e-05    2.246631e+04    6.444600e-09    8.369550e-13    2.193528e-09   -3.376702e-01
    2.277578e+01    1.546676e+02    4.473586e-05    2.497913e+04    6.491900e-09    8.665070e-13    2.268971e-09   -3.326702e-01
    2.276197e+01    1.545791e+02    5.013000e-05    2.776473e+04    6.540850e-09    8.971165e-13    2.346355e-09   -3.276702e-01
    2.274742e+01    1.544862e+02    5.617060e-05    3.085176e+04    6.591455e-09    9.288195e-13    2.425682e-09   -3.226702e-01
    2.273209e+01    1.543888e+02    6.293440e-05    3.427178e+04    6.643715e-09    9.616520e-13    2.506955e-09   -3.176702e-01
    2.271595e+01    1.542866e+02    7.050710e-05    3.805948e+04    6.697630e-09    9.956525e-13    2.590175e-09   -3.126702e-01
    2.269898e+01    1.541797e+02    7.898445e-05    4.225306e+04    6.753205e-09    1.030860e-12    2.675336e-09   -3.076702e-01
    2.268111e+01    1.540676e+02    8.847340e-05    4.689458e+04    6.810430e-09    1.067313e-12    2.762434e-09   -3.026702e-01
    2.266234e+01    1.539504e+02    9.909320e-05    5.203025e+04    6.869305e-09    1.105055e-12    2.851456e-09   -2.976702e-01
    2.264260e+01    1.538279e+02    1.109771e-04    5.771095e+04    6.929810e-09    1.144126e-12    2.942392e-09   -2.926702e-01
    2.262185e+01    1.536999e+02    1.242735e-04    6.399249e+04    6.991945e-09    1.184570e-12    3.035225e-09   -2.876702e-01
    2.260007e+01    1.535664e+02    1.391483e-04    7.093628e+04    7.055690e-09    1.226434e-12    3.129936e-09   -2.826702e-01
    2.257721e+01    1.534272e+02    1.557861e-04    7.860974e+04    7.121030e-09    1.269761e-12    3.226502e-09   -2.776702e-01
    2.255323e+01    1.532824e+02    1.743929e-04    8.708691e+04    7.187945e-09    1.314599e-12    3.324897e-09   -2.726702e-01
    2.252808e+01    1.531316e+02    1.951980e-04    9.644898e+04    7.256415e-09    1.360997e-12    3.425093e-09   -2.676702e-01
    2.250174e+01    1.529751e+02    2.184571e-04    1.067851e+05    7.326415e-09    1.409004e-12    3.527057e-09   -2.626702e-01
    2.247415e+01    1.528126e+02    2.444546e-04    1.181930e+05    7.397925e-09    1.458672e-12    3.630753e-09   -2.576702e-01
    2.244529e+01    1.526444e+02    2.735074e-04    1.307800e+05    7.470905e-09    1.510053e-12    3.736143e-09   -2.526702e-01
    2.241511e+01    1.524704e+02    3.059680e-04    1.446634e+05    7.545330e-09    1.563201e-12    3.843186e-09   -2.476702e-01
    2.238357e+01    1.522908e+02    3.422282e-04    1.599721e+05    7.621160e-09    1.618172e-12    3.951834e-09   -2.426702e-01
    2.235066e+01    1.521056e+02    3.827239e-04    1.768469e+05    7.698365e-09    1.675021e-12    4.062041e-09   -2.376702e-01
    2.231631e+01    1.519151e+02    4.279395e-04    1.954421e+05    7.776905e-09    1.733808e-12    4.173756e-09   -2.326702e-01
    2.228052e+01    1.517198e+02    4.784131e-04    2.159268e+05    7.856735e-09    1.794593e-12    4.286924e-09   -2.276702e-01
    2.224327e+01    1.515197e+02    5.347420e-04    2.384857e+05    7.937810e-09    1.857437e-12    4.401488e-09   -2.226702e-01
    2.220451e+01    1.513154e+02    5.975900e-04    2.633210e+05    8.020090e-09    1.922403e-12    4.517390e-09   -2.176702e-01
    2.216426e+01    1.511075e+02    6.676920e-04    2.906537e+05    8.103520e-09    1.989556e-12    4.634566e-09   -2.126702e-01
    2.212248e+01    1.508965e+02    7.458650e-04    3.207255e+05    8.188055e-09    2.058964e-12    4.752953e-09   -2.076702e-01
    2.207918e+01    1.506830e+02    8.330130e-04    3.538001e+05    8.273645e-09    2.130694e-12    4.872483e-09   -2.026702e-01
    2.203435e+01    1.504682e+02    9.301390e-04    3.901665e+05    8.360230e-09    2.204815e-12    4.993089e-09   -1.976702e-01
    2.198801e+01    1.502529e+02    1.038353e-03    4.301394e+05    8.447760e-09    2.281402e-12    5.114700e-09   -1.926702e-01
    2.194018e+01    1.500382e+02    1.158883e-03    4.740633e+05    8.536175e-09    2.360527e-12    5.237240e-09   -1.876702e-01
    2.189087e+01    1.498253e+02    1.293090e-03    5.223138e+05    8.625420e-09    2.442266e-12    5.360640e-09   -1.826702e-01
    2.184013e+01    1.496159e+02    1.442478e-03    5.753018e+05    8.715430e-09    2.526699e-12    5.484820e-09   -1.776702e-01
    2.178799e+01    1.494113e+02    1.608712e-03    6.334750e+05    8.806150e-09    2.613903e-12    5.609705e-09   -1.726702e-01
    2.173453e+01    1.492136e+02    1.793628e-03    6.973229e+05    8.897515e-09    2.703963e-12    5.735220e-09   -1.676702e-01
    2.167979e+01    1.490245e+02    1.999259e-03    7.673801e+05    8.989465e-09    2.796962e-12    5.861285e-09   -1.626702e-01
    2.162387e+01    1.488465e+02    2.227848e-03    8.442300e+05    9.081935e-09    2.892988e-12    5.987820e-09   -1.576702e-01
    2.156684e+01    1.486818e+02    2.481873e-03    9.285097e+05    9.174865e-09    2.992129e-12    6.114745e-09   -1.526702e-01
    2.150882e+01    1.485332e+02    2.764067e-03    1.020916e+06    9.268190e-09    3.094478e-12    6.241980e-09   -1.476702e-01
    2.144991e+01    1.484036e+02    3.077447e-03    1.122211e+06    9.361845e-09    3.200127e-12    6.369445e-09   -1.426702e-01
    2.139023e+01    1.482961e+02    3.425340e-03    1.233225e+06    9.455770e-09    3.309174e-12    6.497065e-09   -1.376702e-01
    2.132990e+01    1.482139e+02    3.811418e-03    1.354868e+06    9.549895e-09    3.421719e-12    6.624755e-09   -1.326702e-01
    2.126908e+01    1.481609e+02    4.239728e-03    1.488135e+06    9.644160e-09    3.537863e-12    6.752440e-09   -1.276702e-01
    2.120791e+01    1.481408e+02    4.714730e-03    1.634114e+06    9.738505e-09    3.657711e-12    6.880040e-09   -1.226702e-01
    2.114652e+01    1.481576e+02    5.241345e-03    1.793997e+06    9.832865e-09    3.781371e-12    7.007480e-09   -1.176702e-01
    2.108510e+01    1.482158e+02    5.824985e-03    1.969086e+06    9.927180e-09    3.908954e-12    7.134680e-09   -1.126702e-01
    2.102375e+01    1.483196e+02    6.471635e-03    2.160809e+06    1.002139e-08    4.040573e-12    7.261570e-09   -1.076702e-01
    2.096264e+01    1.484738e+02    7.187870e-03    2.370729e+06    1.011543e-08    4.176347e-12    7.388075e-09   -1.026702e-01
    2.090190e+01    1.486832e+02    7.980935e-03    2.600555e+06    1.020925e-08    4.316396e-12    7.514125e-09   -9.767020e-02
    2.084164e+01    1.489527e+02    8.858825e-03    2.852158e+06    1.030278e-08    4.460843e-12    7.639650e-09   -9.267020e-02
    2.078194e+01    1.492872e+02    9.830335e-03    3.127585e+06    1.039598e-08    4.609817e-12    7.764580e-09   -8.767020e-02
    2.072290e+01    1.496918e+02    1.090515e-02    3.429072e+06    1.048879e-08    4.763448e-12    7.888850e-09   -8.267020e-02
    2.066452e+01    1.501712e+02    1.209393e-02    3.759065e+06    1.058115e-08    4.921871e-12    8.012395e-09   -7.767020e-02
    2.060683e+01    1.507303e+02    1.340840e-02    4.120228e+06    1.067302e-08    5.085225e-12    8.135155e-09   -7.267020e-02
    2.054977e+01    1.513737e+02    1.486148e-02    4.515458e+06    1.076434e-08    5.253655e-12    8.257070e-09   -6.767020e-02
    2.049325e+01    1.521058e+02    1.646735e-02    4.947916e+06    1.085507e-08    5.427305e-12    8.378085e-09   -6.267020e-02
    2.043711e+01    1.529305e+02    1.824162e-02    5.421019e+06    1.094516e-08    5.606330e-12    8.498145e-09   -5.767020e-02
    2.038114e+01    1.538514e+02    2.020139e-02    5.938469e+06    1.103457e-08    5.790880e-12    8.617190e-09   -5.267020e-02
    2.032507e+01    1.548715e+02    2.236544e-02    6.504256e+06    1.112325e-08    5.981125e-12    8.735180e-09   -4.767020e-02
    2.026854e+01    1.559930e+02    2.475435e-02    7.122669e+06    1.121118e-08    6.177220e-12    8.852065e-09   -4.267020e-02
    2.021116e+01    1.572177e+02    2.739063e-02    7.798308e+06    1.129830e-08    6.379345e-12    8.967800e-09   -3.767020e-02
    2.015245e+01    1.585462e+02    3.029888e-02    8.536056e+06    1.138459e-08    6.587670e-12    9.082340e-09   -3.267020e-02
    2.009186e+01    1.599785e+02    3.350593e-02    9.341116e+06    1.147000e-08    6.802380e-12    9.195655e-09   -2.767020e-02
    2.002881e+01    1.615132e+02    3.704099e-02    1.021896e+07    1.155451e-08    7.023655e-12    9.307700e-09   -2.267020e-02
    1.996267e+01    1.631483e+02    4.093581e-02    1.117534e+07    1.163808e-08    7.251695e-12    9.418440e-09   -1.767020e-02
    1.989272e+01    1.648800e+02    4.522480e-02    1.221623e+07    1.172070e-08    7.486695e-12    9.527850e-09   -1.267020e-02
    1.981826e+01    1.667041e+02    4.994512e-02    1.334784e+07    1.180233e-08    7.728860e-12    9.635900e-09   -7.670200e-03
    1.973855e+01    1.686140e+02    5.513690e-02    1.457650e+07    1.188296e-08    7.978395e-12    9.742565e-09   -2.670200e-03
    1.965285e+01    1.706031e+02    6.084325e-02    1.590870e+07    1.196254e-08    8.235530e-12    9.847815e-09    2.329800e-03
    1.956045e+01    1.726625e+02    6.711025e-02    1.735091e+07    1.204109e-08    8.500475e-12    9.951635e-09    7.329800e-03
    1.946062e+01    1.747827e+02    7.398725e-02    1.890962e+07    1.211856e-08    8.773470e-12    1.005400e-08    1.232980e-02
    1.935273e+01    1.769525e+02    8.152660e-02    2.059119e+07    1.219496e-08    9.054755e-12    1.015491e-08    1.732980e-02
    1.923614e+01    1.791599e+02    8.978385e-02    2.240180e+07    1.227025e-08    9.344570e-12    1.025432e-08    2.232980e-02
    1.911032e+01    1.813917e+02    9.881760e-02    2.434732e+07    1.234444e-08    9.643175e-12    1.035225e-08    2.732980e-02
    1.897484e+01    1.836338e+02    1.086892e-01    2.643325e+07    1.241750e-08    9.950825e-12    1.044868e-08    3.232980e-02
    1.882932e+01    1.858713e+02    1.194631e-01    2.866457e+07    1.248944e-08    1.026780e-11    1.054359e-08    3.732980e-02
    1.867350e+01    1.880889e+02    1.312060e-01    3.104570e+07    1.256025e-08    1.059437e-11    1.063698e-08    4.232980e-02
    1.850721e+01    1.902704e+02    1.439873e-01    3.358033e+07    1.262991e-08    1.093084e-11    1.072886e-08    4.732980e-02
    1.833042e+01    1.923998e+02    1.578781e-01    3.627140e+07    1.269843e-08    1.127750e-11    1.081923e-08    5.232980e-02
    1.814316e+01    1.944607e+02    1.729516e-01    3.912094e+07    1.276581e-08    1.163464e-11    1.090807e-08    5.732980e-02
    1.794563e+01    1.964371e+02    1.892820e-01    4.213007e+07    1.283204e-08    1.200261e-11    1.099539e-08    6.232980e-02
    1.773806e+01    1.983133e+02    2.069446e-01    4.529889e+07    1.289713e-08    1.238171e-11    1.108119e-08    6.732980e-02
    1.752084e+01    2.000739e+02    2.260152e-01    4.862639e+07    1.296107e-08    1.277230e-11    1.116549e-08    7.232980e-02
    1.729441e+01    2.017046e+02    2.465696e-01    5.211054e+07    1.302386e-08    1.317473e-11    1.124828e-08    7.732980e-02
    1.705931e+01    2.031919e+02    2.686829e-01    5.574813e+07    1.308553e-08    1.358934e-11    1.132957e-08    8.232980e-02
    1.681613e+01    2.045233e+02    2.924295e-01    5.953490e+07    1.314606e-08    1.401654e-11    1.140939e-08    8.732980e-02
    1.656552e+01    2.056876e+02    3.178822e-01    6.346547e+07    1.320548e-08    1.445669e-11    1.148772e-08    9.232980e-02
    1.630822e+01    2.066752e+02    3.451116e-01    6.753352e+07    1.326377e-08    1.491021e-11    1.156459e-08    9.732980e-02
    1.604495e+01    2.074775e+02    3.741861e-01    7.173164e+07    1.332095e-08    1.537751e-11    1.164002e-08    1.023298e-01
    1.577647e+01    2.080878e+02    4.051708e-01    7.605158e+07    1.337704e-08    1.585901e-11    1.171400e-08    1.073298e-01
    1.550357e+01    2.085008e+02    4.381277e-01    8.048424e+07    1.343204e-08    1.635516e-11    1.178656e-08    1.123298e-01
    1.522705e+01    2.087129e+02    4.731150e-01    8.501999e+07    1.348595e-08    1.686642e-11    1.185772e-08    1.173298e-01
    1.494766e+01    2.087218e+02    5.101865e-01    8.964829e+07    1.353881e-08    1.739326e-11    1.192748e-08    1.223298e-01
    1.466620e+01    2.085271e+02    5.493915e-01    9.435850e+07    1.359060e-08    1.793618e-11    1.199587e-08    1.273298e-01
    1.438340e+01    2.081299e+02    5.907755e-01    9.913944e+07    1.364136e-08    1.849568e-11    1.206291e-08    1.323298e-01
    1.409999e+01    2.075323e+02    6.343775e-01    1.039798e+08    1.369109e-08    1.907230e-11    1.212861e-08    1.373298e-01
    1.381665e+01    2.067382e+02    6.802335e-01    1.088680e+08    1.373980e-08    1.966656e-11    1.219299e-08    1.423298e-01
    1.353404e+01    2.057524e+02    7.283725e-01    1.137929e+08    1.378752e-08    2.027905e-11    1.225606e-08    1.473298e-01
    1.325280e+01    2.045810e+02    7.788190e-01    1.187432e+08    1.383424e-08    2.091033e-11    1.231786e-08    1.523298e-01
    1.297347e+01    2.032311e+02    8.315930e-01    1.237079e+08    1.388000e-08    2.156103e-11    1.237841e-08    1.573298e-01
    1.269658e+01    2.017102e+02    8.867095e-01    1.286765e+08    1.392481e-08    2.223176e-11    1.243771e-08    1.623298e-01
    1.242264e+01    2.000271e+02    9.441775e-01    1.336388e+08    1.396867e-08    2.292317e-11    1.249580e-08    1.673298e-01
    1.215208e+01    1.981908e+02    1.004002e+00    1.385854e+08    1.401161e-08    2.363593e-11    1.255269e-08    1.723298e-01
    1.188530e+01    1.962112e+02    1.066184e+00    1.435071e+08    1.405365e-08    2.437074e-11    1.260839e-08    1.773298e-01
    1.162264e+01    1.940979e+02    1.130720e+00    1.483957e+08    1.409479e-08    2.512832e-11    1.266295e-08    1.823298e-01
    1.136443e+01    1.918612e+02    1.197601e+00    1.532435e+08    1.413506e-08    2.590941e-11    1.271637e-08    1.873298e-01
    1.111093e+01    1.895112e+02    1.266816e+00    1.580437e+08    1.417447e-08    2.671479e-11    1.276869e-08    1.923298e-01
    1.086238e+01    1.870583e+02    1.338350e+00    1.627900e+08    1.421304e-08    2.754525e-11    1.281991e-08    1.973298e-01
    1.061895e+01    1.845125e+02    1.412186e+00    1.674768e+08    1.425079e-08    2.840164e-11    1.287005e-08    2.023298e-01
    1.038082e+01    1.818839e+02    1.488302e+00    1.720996e+08    1.428773e-08    2.928479e-11    1.291916e-08    2.073298e-01
    1.014812e+01    1.791820e+02    1.566676e+00    1.766543e+08    1.432387e-08    3.019563e-11    1.296723e-08    2.123298e-01
    9.920924e+00    1.764166e+02    1.647281e+00    1.811374e+08    1.435925e-08    3.113506e-11    1.301429e-08    2.173298e-01
    9.699311e+00    1.735964e+02    1.730092e+00    1.855465e+08    1.439387e-08    3.210404e-11    1.306038e-08    2.223298e-01
    9.483322e+00    1.707303e+02    1.815078e+00    1.898793e+08    1.442774e-08    3.310356e-11    1.310549e-08    2.273298e-01
    9.272972e+00    1.678265e+02    1.902211e+00    1.941345e+08    1.446089e-08    3.413466e-11    1.314966e-08    2.323298e-01
    9.068256e+00    1.648927e+02    1.991459e+00    1.983111e+08    1.449334e-08    3.519841e-11    1.319291e-08    2.373298e-01
    8.869157e+00    1.619364e+02    2.082791e+00    2.024088e+08    1.452509e-08    3.629590e-11    1.323526e-08    2.423298e-01
    8.675628e+00    1.589645e+02    2.176175e+00    2.064276e+08    1.455616e-08    3.742830e-11    1.327672e-08    2.473298e-01
    8.487612e+00    1.559831e+02    2.271577e+00    2.103680e+08    1.458658e-08    3.859678e-11    1.331732e-08    2.523298e-01
    8.305046e+00    1.529984e+02    2.368967e+00    2.142308e+08    1.461635e-08    3.980260e-11    1.335706e-08    2.573298e-01
    8.127843e+00    1.500157e+02    2.468310e+00    2.180172e+08    1.464551e-08    4.104702e-11    1.339600e-08    2.623298e-01
    7.955916e+00    1.470400e+02    2.569576e+00    2.217287e+08    1.467405e-08    4.233138e-11    1.343411e-08    2.673298e-01
    7.789160e+00    1.440759e+02    2.672733e+00    2.253670e+08    1.470199e-08    4.365706e-11    1.347145e-08    2.723298e-01
    7.627471e+00    1.411274e+02    2.777750e+00    2.289340e+08    1.472934e-08    4.502548e-11    1.350802e-08    2.773298e-01
