# sky130 nfet_01v8 gm/ID Processed Lookup Table
# Corner: ff
# Temperature: 75C
# W = 2.0 um
# L = 4.68 um (4680 nm)
# Columns: gm/id [1/V]  gm/gds [V/V]  id/W [A/m]  ft [Hz]  Cgg/W [F/m]  Cgd/W [F/m]  Cgs/W [F/m]  Vov [V]
#         gm/id          gm/gds            id/W              ft           Cgg/W           Cgd/W           Cgs/W             Vov
    2.273244e+01    2.120530e+02    1.235677e-06    4.201445e+02    1.064075e-08    6.917765e-13    1.578975e-09   -4.674655e-01
    2.272912e+01    2.120225e+02    1.384408e-06    4.697820e+02    1.066033e-08    7.151745e-13    1.640308e-09   -4.624655e-01
    2.272561e+01    2.119902e+02    1.551015e-06    5.251720e+02    1.068194e-08    7.394200e-13    1.703931e-09   -4.574655e-01
    2.272190e+01    2.119561e+02    1.737641e-06    5.869651e+02    1.070564e-08    7.645455e-13    1.769907e-09   -4.524655e-01
    2.271798e+01    2.119202e+02    1.946685e-06    6.558823e+02    1.073148e-08    7.905825e-13    1.838302e-09   -4.474655e-01
    2.271384e+01    2.118822e+02    2.180835e-06    7.327250e+02    1.075951e-08    8.175655e-13    1.909178e-09   -4.424655e-01
    2.270946e+01    2.118420e+02    2.443096e-06    8.183810e+02    1.078977e-08    8.455285e-13    1.982599e-09   -4.374655e-01
    2.270483e+01    2.117996e+02    2.736834e-06    9.138335e+02    1.082231e-08    8.745090e-13    2.058631e-09   -4.324655e-01
    2.269992e+01    2.117548e+02    3.065817e-06    1.020173e+03    1.085718e-08    9.045425e-13    2.137336e-09   -4.274655e-01
    2.269475e+01    2.117075e+02    3.434258e-06    1.138607e+03    1.089442e-08    9.356690e-13    2.218777e-09   -4.224655e-01
    2.268928e+01    2.116577e+02    3.846874e-06    1.270475e+03    1.093410e-08    9.679280e-13    2.303016e-09   -4.174655e-01
    2.268350e+01    2.116051e+02    4.308944e-06    1.417254e+03    1.097624e-08    1.001360e-12    2.390115e-09   -4.124655e-01
    2.267741e+01    2.115496e+02    4.826374e-06    1.580584e+03    1.102089e-08    1.036009e-12    2.480131e-09   -4.074655e-01
    2.267095e+01    2.114912e+02    5.405770e-06    1.762275e+03    1.106812e-08    1.071918e-12    2.573124e-09   -4.024655e-01
    2.266417e+01    2.114296e+02    6.054515e-06    1.964332e+03    1.111794e-08    1.109131e-12    2.669150e-09   -3.974655e-01
    2.265698e+01    2.113646e+02    6.780885e-06    2.188968e+03    1.117041e-08    1.147698e-12    2.768264e-09   -3.924655e-01
    2.264940e+01    2.112962e+02    7.594115e-06    2.438627e+03    1.122558e-08    1.187665e-12    2.870519e-09   -3.874655e-01
    2.264140e+01    2.112240e+02    8.504545e-06    2.716014e+03    1.128347e-08    1.229084e-12    2.975965e-09   -3.824655e-01
    2.263295e+01    2.111480e+02    9.523730e-06    3.024110e+03    1.134412e-08    1.272005e-12    3.084650e-09   -3.774655e-01
    2.262404e+01    2.110681e+02    1.066460e-05    3.366211e+03    1.140758e-08    1.316481e-12    3.196619e-09   -3.724655e-01
    2.261464e+01    2.109839e+02    1.194158e-05    3.745948e+03    1.147387e-08    1.362568e-12    3.311916e-09   -3.674655e-01
    2.260472e+01    2.108954e+02    1.337083e-05    4.167328e+03    1.154303e-08    1.410323e-12    3.430578e-09   -3.624655e-01
    2.259427e+01    2.108023e+02    1.497037e-05    4.634774e+03    1.161509e-08    1.459803e-12    3.552643e-09   -3.574655e-01
    2.258325e+01    2.107045e+02    1.676037e-05    5.153156e+03    1.169006e-08    1.511069e-12    3.678141e-09   -3.524655e-01
    2.257164e+01    2.106016e+02    1.876332e-05    5.727840e+03    1.176799e-08    1.564183e-12    3.807104e-09   -3.474655e-01
    2.255939e+01    2.104937e+02    2.100440e-05    6.364742e+03    1.184888e-08    1.619209e-12    3.939553e-09   -3.424655e-01
    2.254650e+01    2.103803e+02    2.351167e-05    7.070373e+03    1.193275e-08    1.676212e-12    4.075510e-09   -3.374655e-01
    2.253292e+01    2.102614e+02    2.631650e-05    7.851903e+03    1.201962e-08    1.735261e-12    4.214992e-09   -3.324655e-01
    2.251862e+01    2.101366e+02    2.945387e-05    8.717221e+03    1.210950e-08    1.796427e-12    4.358009e-09   -3.274655e-01
    2.250358e+01    2.100060e+02    3.296285e-05    9.675008e+03    1.220240e-08    1.859780e-12    4.504567e-09   -3.224655e-01
    2.248775e+01    2.098691e+02    3.688702e-05    1.073481e+04    1.229831e-08    1.925395e-12    4.654669e-09   -3.174655e-01
    2.247109e+01    2.097257e+02    4.127501e-05    1.190711e+04    1.239725e-08    1.993348e-12    4.808310e-09   -3.124655e-01
    2.245360e+01    2.095760e+02    4.618103e-05    1.320347e+04    1.249919e-08    2.063718e-12    4.965483e-09   -3.074655e-01
    2.243521e+01    2.094193e+02    5.166555e-05    1.463654e+04    1.260413e-08    2.136586e-12    5.126170e-09   -3.024655e-01
    2.241589e+01    2.092559e+02    5.779600e-05    1.622024e+04    1.271208e-08    2.212037e-12    5.290360e-09   -2.974655e-01
    2.239560e+01    2.090855e+02    6.464745e-05    1.796987e+04    1.282299e-08    2.290153e-12    5.458020e-09   -2.924655e-01
    2.237431e+01    2.089076e+02    7.230360e-05    1.990219e+04    1.293686e-08    2.371024e-12    5.629115e-09   -2.874655e-01
    2.235198e+01    2.087227e+02    8.085765e-05    2.203563e+04    1.305365e-08    2.454743e-12    5.803620e-09   -2.824655e-01
    2.232857e+01    2.085302e+02    9.041335e-05    2.439035e+04    1.317333e-08    2.541400e-12    5.981485e-09   -2.774655e-01
    2.230404e+01    2.083304e+02    1.010863e-04    2.698852e+04    1.329587e-08    2.631093e-12    6.162665e-09   -2.724655e-01
    2.227837e+01    2.081230e+02    1.130048e-04    2.985438e+04    1.342123e-08    2.723919e-12    6.347100e-09   -2.674655e-01
    2.225149e+01    2.079084e+02    1.263121e-04    3.301453e+04    1.354937e-08    2.819982e-12    6.534735e-09   -2.624655e-01
    2.222339e+01    2.076862e+02    1.411669e-04    3.649810e+04    1.368023e-08    2.919385e-12    6.725505e-09   -2.574655e-01
    2.219403e+01    2.074569e+02    1.577462e-04    4.033699e+04    1.381376e-08    3.022236e-12    6.919335e-09   -2.524655e-01
    2.216337e+01    2.072205e+02    1.762462e-04    4.456610e+04    1.394990e-08    3.128645e-12    7.116150e-09   -2.474655e-01
    2.213138e+01    2.069773e+02    1.968848e-04    4.922363e+04    1.408859e-08    3.238726e-12    7.315865e-09   -2.424655e-01
    2.209804e+01    2.067277e+02    2.199045e-04    5.435138e+04    1.422976e-08    3.352595e-12    7.518390e-09   -2.374655e-01
    2.206332e+01    2.064720e+02    2.455737e-04    5.999500e+04    1.437334e-08    3.470374e-12    7.723640e-09   -2.324655e-01
    2.202720e+01    2.062109e+02    2.741907e-04    6.620454e+04    1.451926e-08    3.592185e-12    7.931505e-09   -2.274655e-01
    2.198966e+01    2.059450e+02    3.060862e-04    7.303451e+04    1.466744e-08    3.718156e-12    8.141895e-09   -2.224655e-01
    2.195067e+01    2.056748e+02    3.416266e-04    8.054457e+04    1.481778e-08    3.848417e-12    8.354690e-09   -2.174655e-01
    2.191024e+01    2.054016e+02    3.812179e-04    8.879993e+04    1.497021e-08    3.983102e-12    8.569780e-09   -2.124655e-01
    2.186837e+01    2.051262e+02    4.253100e-04    9.787168e+04    1.512464e-08    4.122350e-12    8.787055e-09   -2.074655e-01
    2.182505e+01    2.048499e+02    4.744007e-04    1.078375e+05    1.528096e-08    4.266302e-12    9.006385e-09   -2.024655e-01
    2.178032e+01    2.045742e+02    5.290410e-04    1.187823e+05    1.543910e-08    4.415106e-12    9.227655e-09   -1.974655e-01
    2.173415e+01    2.043003e+02    5.898410e-04    1.307985e+05    1.559894e-08    4.568910e-12    9.450725e-09   -1.924655e-01
    2.168660e+01    2.040303e+02    6.574740e-04    1.439871e+05    1.576038e-08    4.727870e-12    9.675475e-09   -1.874655e-01
    2.163770e+01    2.037664e+02    7.326855e-04    1.584585e+05    1.592331e-08    4.892143e-12    9.901770e-09   -1.824655e-01
    2.158750e+01    2.035105e+02    8.162985e-04    1.743328e+05    1.608764e-08    5.061895e-12    1.012947e-08   -1.774655e-01
    2.153603e+01    2.032653e+02    9.092225e-04    1.917414e+05    1.625324e-08    5.237290e-12    1.035844e-08   -1.724655e-01
    2.148339e+01    2.030334e+02    1.012461e-03    2.108276e+05    1.642002e-08    5.418510e-12    1.058853e-08   -1.674655e-01
    2.142965e+01    2.028183e+02    1.127121e-03    2.317476e+05    1.658786e-08    5.605720e-12    1.081961e-08   -1.624655e-01
    2.137489e+01    2.026230e+02    1.254426e-03    2.546724e+05    1.675665e-08    5.799110e-12    1.105154e-08   -1.574655e-01
    2.131920e+01    2.024513e+02    1.395725e-03    2.797884e+05    1.692626e-08    5.998870e-12    1.128416e-08   -1.524655e-01
    2.126270e+01    2.023074e+02    1.552504e-03    3.072992e+05    1.709660e-08    6.205195e-12    1.151735e-08   -1.474655e-01
    2.120552e+01    2.021953e+02    1.726402e-03    3.374275e+05    1.726754e-08    6.418275e-12    1.175096e-08   -1.424655e-01
    2.114776e+01    2.021201e+02    1.919228e-03    3.704164e+05    1.743897e-08    6.638325e-12    1.198483e-08   -1.374655e-01
    2.108957e+01    2.020866e+02    2.132973e-03    4.065319e+05    1.761078e-08    6.865550e-12    1.221883e-08   -1.324655e-01
    2.103110e+01    2.021001e+02    2.369830e-03    4.460649e+05    1.778285e-08    7.100175e-12    1.245282e-08   -1.274655e-01
    2.097250e+01    2.021666e+02    2.632219e-03    4.893337e+05    1.795507e-08    7.342415e-12    1.268666e-08   -1.224655e-01
    2.091388e+01    2.022918e+02    2.922803e-03    5.366864e+05    1.812733e-08    7.592505e-12    1.292021e-08   -1.174655e-01
    2.085542e+01    2.024821e+02    3.244516e-03    5.885040e+05    1.829952e-08    7.850685e-12    1.315333e-08   -1.124655e-01
    2.079726e+01    2.027442e+02    3.600591e-03    6.452043e+05    1.847152e-08    8.117200e-12    1.338589e-08   -1.074655e-01
    2.073950e+01    2.030847e+02    3.994585e-03    7.072431e+05    1.864324e-08    8.392295e-12    1.361776e-08   -1.024655e-01
    2.068229e+01    2.035108e+02    4.430417e-03    7.751205e+05    1.881457e-08    8.676235e-12    1.384881e-08   -9.746550e-02
    2.062571e+01    2.040294e+02    4.912405e-03    8.493829e+05    1.898540e-08    8.969285e-12    1.407892e-08   -9.246550e-02
    2.056983e+01    2.046477e+02    5.445295e-03    9.306269e+05    1.915564e-08    9.271725e-12    1.430795e-08   -8.746550e-02
    2.051470e+01    2.053730e+02    6.034320e-03    1.019506e+06    1.932519e-08    9.583840e-12    1.453580e-08   -8.246550e-02
    2.046031e+01    2.062124e+02    6.685230e-03    1.116732e+06    1.949395e-08    9.905915e-12    1.476234e-08   -7.746550e-02
    2.040665e+01    2.071726e+02    7.404350e-03    1.223080e+06    1.966183e-08    1.023826e-11    1.498748e-08   -7.246550e-02
    2.035362e+01    2.082607e+02    8.198635e-03    1.339394e+06    1.982873e-08    1.058118e-11    1.521109e-08   -6.746550e-02
    2.030107e+01    2.094825e+02    9.075735e-03    1.466589e+06    1.999460e-08    1.093500e-11    1.543308e-08   -6.246550e-02
    2.024883e+01    2.108440e+02    1.004403e-02    1.605656e+06    2.015931e-08    1.130006e-11    1.565335e-08   -5.746550e-02
    2.019662e+01    2.123504e+02    1.111275e-02    1.757665e+06    2.032282e-08    1.167668e-11    1.587180e-08   -5.246550e-02
    2.014413e+01    2.140059e+02    1.229196e-02    1.923769e+06    2.048504e-08    1.206523e-11    1.608834e-08   -4.746550e-02
    2.009099e+01    2.158141e+02    1.359271e-02    2.105202e+06    2.064589e-08    1.246607e-11    1.630290e-08   -4.246550e-02
    2.003673e+01    2.177775e+02    1.502707e-02    2.303282e+06    2.080531e-08    1.287958e-11    1.651538e-08   -3.746550e-02
    1.998085e+01    2.198974e+02    1.660822e-02    2.519410e+06    2.096324e-08    1.330614e-11    1.672572e-08   -3.246550e-02
    1.992278e+01    2.221739e+02    1.835052e-02    2.755070e+06    2.111960e-08    1.374615e-11    1.693384e-08   -2.746550e-02
    1.986189e+01    2.246057e+02    2.026957e-02    3.011820e+06    2.127435e-08    1.420002e-11    1.713967e-08   -2.246550e-02
    1.979753e+01    2.271899e+02    2.238231e-02    3.291289e+06    2.142744e-08    1.466820e-11    1.734316e-08   -1.746550e-02
    1.972900e+01    2.299222e+02    2.470707e-02    3.595168e+06    2.157880e-08    1.515110e-11    1.754424e-08   -1.246550e-02
    1.965558e+01    2.327965e+02    2.726361e-02    3.925200e+06    2.172839e-08    1.564919e-11    1.774287e-08   -7.465500e-03
    1.957653e+01    2.358049e+02    3.007324e-02    4.283161e+06    2.187618e-08    1.616294e-11    1.793899e-08   -2.465500e-03
    1.949114e+01    2.389381e+02    3.315878e-02    4.670860e+06    2.202212e-08    1.669284e-11    1.813257e-08    2.534500e-03
    1.939872e+01    2.421850e+02    3.654467e-02    5.090103e+06    2.216618e-08    1.723939e-11    1.832355e-08    7.534500e-03
    1.929858e+01    2.455322e+02    4.025692e-02    5.542674e+06    2.230832e-08    1.780309e-11    1.851192e-08    1.253450e-02
    1.919013e+01    2.489656e+02    4.432316e-02    6.030331e+06    2.244851e-08    1.838450e-11    1.869764e-08    1.753450e-02
    1.907278e+01    2.524688e+02    4.877259e-02    6.554758e+06    2.258673e-08    1.898417e-11    1.888067e-08    2.253450e-02
    1.894608e+01    2.560241e+02    5.363595e-02    7.117551e+06    2.272296e-08    1.960267e-11    1.906100e-08    2.753450e-02
    1.880960e+01    2.596127e+02    5.894550e-02    7.720188e+06    2.285718e-08    2.024058e-11    1.923863e-08    3.253450e-02
    1.866308e+01    2.632145e+02    6.473480e-02    8.364007e+06    2.298936e-08    2.089854e-11    1.941351e-08    3.753450e-02
    1.850629e+01    2.668085e+02    7.103885e-02    9.050171e+06    2.311951e-08    2.157716e-11    1.958565e-08    4.253450e-02
    1.833915e+01    2.703731e+02    7.789365e-02    9.779645e+06    2.324761e-08    2.227710e-11    1.975504e-08    4.753450e-02
    1.816163e+01    2.738860e+02    8.533640e-02    1.055317e+07    2.337364e-08    2.299906e-11    1.992167e-08    5.253450e-02
    1.797390e+01    2.773249e+02    9.340490e-02    1.137126e+07    2.349760e-08    2.374372e-11    2.008555e-08    5.753450e-02
    1.777612e+01    2.806673e+02    1.021378e-01    1.223412e+07    2.361951e-08    2.451182e-11    2.024667e-08    6.253450e-02
    1.756862e+01    2.838911e+02    1.115741e-01    1.314173e+07    2.373934e-08    2.530410e-11    2.040505e-08    6.753450e-02
    1.735180e+01    2.869750e+02    1.217529e-01    1.409374e+07    2.385712e-08    2.612135e-11    2.056068e-08    7.253450e-02
    1.712614e+01    2.898979e+02    1.327135e-01    1.508952e+07    2.397283e-08    2.696437e-11    2.071358e-08    7.753450e-02
    1.689219e+01    2.926404e+02    1.444945e-01    1.612813e+07    2.408649e-08    2.783400e-11    2.086377e-08    8.253450e-02
    1.665057e+01    2.951838e+02    1.571344e-01    1.720834e+07    2.419810e-08    2.873110e-11    2.101126e-08    8.753450e-02
    1.640192e+01    2.975110e+02    1.706706e-01    1.832863e+07    2.430769e-08    2.965656e-11    2.115607e-08    9.253450e-02
    1.614698e+01    2.996070e+02    1.851396e-01    1.948720e+07    2.441525e-08    3.061133e-11    2.129821e-08    9.753450e-02
    1.588645e+01    3.014579e+02    2.005765e-01    2.068199e+07    2.452081e-08    3.159635e-11    2.143772e-08    1.025345e-01
    1.562111e+01    3.030521e+02    2.170150e-01    2.191072e+07    2.462438e-08    3.261263e-11    2.157461e-08    1.075345e-01
    1.535171e+01    3.043794e+02    2.344870e-01    2.317086e+07    2.472598e-08    3.366119e-11    2.170890e-08    1.125345e-01
    1.507902e+01    3.054325e+02    2.530225e-01    2.445975e+07    2.482562e-08    3.474311e-11    2.184064e-08    1.175345e-01
    1.480379e+01    3.062053e+02    2.726492e-01    2.577454e+07    2.492334e-08    3.585949e-11    2.196984e-08    1.225345e-01
    1.452675e+01    3.066940e+02    2.933930e-01    2.711227e+07    2.501915e-08    3.701150e-11    2.209653e-08    1.275345e-01
    1.424863e+01    3.068971e+02    3.152771e-01    2.846991e+07    2.511306e-08    3.820030e-11    2.222075e-08    1.325345e-01
    1.397013e+01    3.068144e+02    3.383222e-01    2.984436e+07    2.520511e-08    3.942716e-11    2.234254e-08    1.375345e-01
    1.369188e+01    3.064479e+02    3.625468e-01    3.123252e+07    2.529532e-08    4.069333e-11    2.246191e-08    1.425345e-01
    1.341452e+01    3.058012e+02    3.879665e-01    3.263130e+07    2.538372e-08    4.200015e-11    2.257892e-08    1.475345e-01
    1.313863e+01    3.048795e+02    4.145946e-01    3.403763e+07    2.547033e-08    4.334901e-11    2.269359e-08    1.525345e-01
    1.286476e+01    3.036895e+02    4.424417e-01    3.544859e+07    2.555517e-08    4.474133e-11    2.280595e-08    1.575345e-01
    1.259339e+01    3.022389e+02    4.715160e-01    3.686127e+07    2.563829e-08    4.617859e-11    2.291605e-08    1.625345e-01
    1.232499e+01    3.005369e+02    5.018230e-01    3.827292e+07    2.571969e-08    4.766234e-11    2.302391e-08    1.675345e-01
    1.205998e+01    2.985937e+02    5.333665e-01    3.968100e+07    2.579942e-08    4.919417e-11    2.312959e-08    1.725345e-01
    1.179873e+01    2.964201e+02    5.661470e-01    4.108301e+07    2.587750e-08    5.077575e-11    2.323311e-08    1.775345e-01
    1.154155e+01    2.940274e+02    6.001640e-01    4.247669e+07    2.595396e-08    5.240880e-11    2.333452e-08    1.825345e-01
    1.128876e+01    2.914278e+02    6.354140e-01    4.385997e+07    2.602884e-08    5.409505e-11    2.343385e-08    1.875345e-01
    1.104060e+01    2.886339e+02    6.718920e-01    4.523098e+07    2.610215e-08    5.583645e-11    2.353114e-08    1.925345e-01
    1.079728e+01    2.856583e+02    7.095920e-01    4.658800e+07    2.617393e-08    5.763485e-11    2.362642e-08    1.975345e-01
    1.055897e+01    2.825138e+02    7.485060e-01    4.792954e+07    2.624421e-08    5.949230e-11    2.371975e-08    2.025345e-01
    1.032583e+01    2.792134e+02    7.886235e-01    4.925429e+07    2.631303e-08    6.141080e-11    2.381115e-08    2.075345e-01
    1.009798e+01    2.757695e+02    8.299340e-01    5.056111e+07    2.638041e-08    6.339260e-11    2.390066e-08    2.125345e-01
    9.875497e+00    2.721951e+02    8.724260e-01    5.184914e+07    2.644638e-08    6.543985e-11    2.398833e-08    2.175345e-01
    9.658444e+00    2.685021e+02    9.160860e-01    5.311753e+07    2.651097e-08    6.755495e-11    2.407418e-08    2.225345e-01
    9.446852e+00    2.647025e+02    9.609005e-01    5.436573e+07    2.657421e-08    6.974030e-11    2.415826e-08    2.275345e-01
    9.240740e+00    2.608083e+02    1.006856e+00    5.559336e+07    2.663615e-08    7.199840e-11    2.424060e-08    2.325345e-01
    9.040103e+00    2.568302e+02    1.053937e+00    5.680009e+07    2.669679e-08    7.433180e-11    2.432124e-08    2.375345e-01
    8.844907e+00    2.527789e+02    1.102128e+00    5.798578e+07    2.675617e-08    7.674330e-11    2.440022e-08    2.425345e-01
    8.655127e+00    2.486648e+02    1.151414e+00    5.915043e+07    2.681433e-08    7.923565e-11    2.447756e-08    2.475345e-01
    8.470692e+00    2.444974e+02    1.201779e+00    6.029414e+07    2.687129e-08    8.181180e-11    2.455333e-08    2.525345e-01
    8.291544e+00    2.402858e+02    1.253208e+00    6.141708e+07    2.692709e-08    8.447480e-11    2.462753e-08    2.575345e-01
    8.117596e+00    2.360384e+02    1.305684e+00    6.251953e+07    2.698174e-08    8.722775e-11    2.470021e-08    2.625345e-01
    7.948771e+00    2.317635e+02    1.359193e+00    6.360190e+07    2.703529e-08    9.007405e-11    2.477140e-08    2.675345e-01
    7.784965e+00    2.274685e+02    1.413718e+00    6.466458e+07    2.708776e-08    9.301700e-11    2.484114e-08    2.725345e-01
    7.626077e+00    2.231603e+02    1.469245e+00    6.570810e+07    2.713917e-08    9.606020e-11    2.490946e-08    2.775345e-01
    7.471998e+00    2.188454e+02    1.525759e+00    6.673296e+07    2.718957e-08    9.920730e-11    2.497638e-08    2.825345e-01
    7.322612e+00    2.145295e+02    1.583245e+00    6.773974e+07    2.723897e-08    1.024622e-10    2.504196e-08    2.875345e-01
