# sky130 nfet_01v8 gm/ID Processed Lookup Table
# Corner: fs
# Temperature: 0C
# W = 2.0 um
# L = 1.08 um (1080 nm)
# Columns: gm/id [1/V]  gm/gds [V/V]  id/W [A/m]  ft [Hz]  Cgg/W [F/m]  Cgd/W [F/m]  Cgs/W [F/m]  Vov [V]
#         gm/id          gm/gds            id/W              ft           Cgg/W           Cgd/W           Cgs/W             Vov
    3.024166e+01    1.594038e+02    2.950481e-09    6.349124e+00    2.236685e-09    1.363395e-14    4.064986e-11   -6.472684e-01
    3.024147e+01    1.594027e+02    3.432113e-09    7.408942e+00    2.229608e-09    1.416734e-14    4.197350e-11   -6.422684e-01
    3.024125e+01    1.594015e+02    3.992361e-09    8.645225e+00    2.222662e-09    1.472163e-14    4.335344e-11   -6.372684e-01
    3.024102e+01    1.594003e+02    4.644058e-09    1.008728e+01    2.215850e-09    1.529773e-14    4.479289e-11   -6.322684e-01
    3.024077e+01    1.593990e+02    5.402130e-09    1.176924e+01    2.209172e-09    1.589656e-14    4.629528e-11   -6.272684e-01
    3.024050e+01    1.593976e+02    6.283935e-09    1.373091e+01    2.202630e-09    1.651910e-14    4.786427e-11   -6.222684e-01
    3.024021e+01    1.593960e+02    7.309670e-09    1.601865e+01    2.196225e-09    1.716637e-14    4.950374e-11   -6.172684e-01
    3.023990e+01    1.593944e+02    8.502825e-09    1.868648e+01    2.189960e-09    1.783947e-14    5.121780e-11   -6.122684e-01
    3.023957e+01    1.593927e+02    9.890720e-09    2.179734e+01    2.183836e-09    1.853951e-14    5.301090e-11   -6.072684e-01
    3.023920e+01    1.593907e+02    1.150514e-08    2.542453e+01    2.177857e-09    1.926769e-14    5.488765e-11   -6.022684e-01
    3.023881e+01    1.593887e+02    1.338305e-08    2.965345e+01    2.172025e-09    2.002526e-14    5.685300e-11   -5.972684e-01
    3.023839e+01    1.593864e+02    1.556744e-08    3.458352e+01    2.166342e-09    2.081353e-14    5.891230e-11   -5.922684e-01
    3.023794e+01    1.593841e+02    1.810834e-08    4.033056e+01    2.160811e-09    2.163388e-14    6.107105e-11   -5.872684e-01
    3.023743e+01    1.593814e+02    2.106391e-08    4.702933e+01    2.155437e-09    2.248776e-14    6.333520e-11   -5.822684e-01
    3.023690e+01    1.593787e+02    2.450182e-08    5.483684e+01    2.150222e-09    2.337670e-14    6.571110e-11   -5.772684e-01
    3.023633e+01    1.593756e+02    2.850074e-08    6.393569e+01    2.145172e-09    2.430228e-14    6.820535e-11   -5.722684e-01
    3.023572e+01    1.593724e+02    3.315225e-08    7.453850e+01    2.140291e-09    2.526620e-14    7.082510e-11   -5.672684e-01
    3.023506e+01    1.593689e+02    3.856277e-08    8.689262e+01    2.135582e-09    2.627022e-14    7.357775e-11   -5.622684e-01
    3.023433e+01    1.593651e+02    4.485616e-08    1.012858e+02    2.131052e-09    2.731619e-14    7.647130e-11   -5.572684e-01
    3.023357e+01    1.593610e+02    5.217640e-08    1.180528e+02    2.126706e-09    2.840608e-14    7.951410e-11   -5.522684e-01
    3.023274e+01    1.593567e+02    6.069105e-08    1.375829e+02    2.122550e-09    2.954193e-14    8.271505e-11   -5.472684e-01
    3.023183e+01    1.593519e+02    7.059490e-08    1.603286e+02    2.118590e-09    3.072591e-14    8.608350e-11   -5.422684e-01
    3.023085e+01    1.593468e+02    8.211450e-08    1.868160e+02    2.114834e-09    3.196029e-14    8.962905e-11   -5.372684e-01
    3.022981e+01    1.593413e+02    9.551335e-08    2.176568e+02    2.111288e-09    3.324745e-14    9.336250e-11   -5.322684e-01
    3.022867e+01    1.593353e+02    1.110980e-07    2.535614e+02    2.107959e-09    3.458990e-14    9.729485e-11   -5.272684e-01
    3.022745e+01    1.593289e+02    1.292247e-07    2.953552e+02    2.104857e-09    3.599028e-14    1.014379e-10   -5.222684e-01
    3.022613e+01    1.593219e+02    1.503081e-07    3.439967e+02    2.101990e-09    3.745136e-14    1.058036e-10   -5.172684e-01
    3.022470e+01    1.593144e+02    1.748300e-07    4.005988e+02    2.099367e-09    3.897606e-14    1.104052e-10   -5.122684e-01
    3.022318e+01    1.593064e+02    2.033511e-07    4.664535e+02    2.096999e-09    4.056744e-14    1.152562e-10   -5.072684e-01
    3.022154e+01    1.592977e+02    2.365231e-07    5.430600e+02    2.094896e-09    4.222873e-14    1.203706e-10   -5.022684e-01
    3.021976e+01    1.592885e+02    2.751040e-07    6.321568e+02    2.093067e-09    4.396331e-14    1.257637e-10   -4.972684e-01
    3.021784e+01    1.592783e+02    3.199750e-07    7.357606e+02    2.091525e-09    4.577475e-14    1.314510e-10   -4.922684e-01
    3.021578e+01    1.592674e+02    3.721612e-07    8.562092e+02    2.090283e-09    4.766677e-14    1.374491e-10   -4.872684e-01
    3.021356e+01    1.592558e+02    4.328540e-07    9.962117e+02    2.089353e-09    4.964331e-14    1.437750e-10   -4.822684e-01
    3.021115e+01    1.592431e+02    5.034390e-07    1.158906e+03    2.088748e-09    5.170850e-14    1.504470e-10   -4.772684e-01
    3.020858e+01    1.592295e+02    5.855265e-07    1.347926e+03    2.088483e-09    5.386670e-14    1.574838e-10   -4.722684e-01
    3.020578e+01    1.592149e+02    6.809900e-07    1.567479e+03    2.088571e-09    5.612240e-14    1.649050e-10   -4.672684e-01
    3.020278e+01    1.591991e+02    7.920060e-07    1.822431e+03    2.089029e-09    5.848040e-14    1.727311e-10   -4.622684e-01
    3.019954e+01    1.591820e+02    9.211060e-07    2.118411e+03    2.089873e-09    6.094575e-14    1.809832e-10   -4.572684e-01
    3.019605e+01    1.591637e+02    1.071231e-06    2.461925e+03    2.091119e-09    6.352370e-14    1.896834e-10   -4.522684e-01
    3.019229e+01    1.591440e+02    1.245803e-06    2.860492e+03    2.092785e-09    6.621975e-14    1.988549e-10   -4.472684e-01
    3.018823e+01    1.591227e+02    1.448794e-06    3.322793e+03    2.094890e-09    6.903970e-14    2.085211e-10   -4.422684e-01
    3.018388e+01    1.590998e+02    1.684825e-06    3.858853e+03    2.097451e-09    7.198965e-14    2.187066e-10   -4.372684e-01
    3.017917e+01    1.590751e+02    1.959265e-06    4.480233e+03    2.100488e-09    7.507595e-14    2.294368e-10   -4.322684e-01
    3.017410e+01    1.590485e+02    2.278353e-06    5.200265e+03    2.104021e-09    7.830525e-14    2.407377e-10   -4.272684e-01
    3.016863e+01    1.590199e+02    2.649338e-06    6.034315e+03    2.108070e-09    8.168455e-14    2.526361e-10   -4.222684e-01
    3.016276e+01    1.589891e+02    3.080644e-06    7.000083e+03    2.112659e-09    8.522115e-14    2.651594e-10   -4.172684e-01
    3.015642e+01    1.589559e+02    3.582055e-06    8.117939e+03    2.117807e-09    8.892275e-14    2.783359e-10   -4.122684e-01
    3.014959e+01    1.589201e+02    4.164940e-06    9.411319e+03    2.123537e-09    9.279730e-14    2.921942e-10   -4.072684e-01
    3.014225e+01    1.588816e+02    4.842502e-06    1.090717e+04    2.129873e-09    9.685320e-14    3.067636e-10   -4.022684e-01
    3.013431e+01    1.588402e+02    5.630080e-06    1.263644e+04    2.136836e-09    1.010992e-13    3.220739e-10   -3.972684e-01
    3.012580e+01    1.587956e+02    6.545475e-06    1.463470e+04    2.144452e-09    1.055445e-13    3.381552e-10   -3.922684e-01
    3.011663e+01    1.587477e+02    7.609370e-06    1.694272e+04    2.152742e-09    1.101985e-13    3.550379e-10   -3.872684e-01
    3.010676e+01    1.586961e+02    8.845765e-06    1.960729e+04    2.161733e-09    1.150714e-13    3.727527e-10   -3.822684e-01
    3.009612e+01    1.586406e+02    1.028253e-05    2.268201e+04    2.171447e-09    1.201733e-13    3.913303e-10   -3.772684e-01
    3.008467e+01    1.585809e+02    1.195201e-05    2.622826e+04    2.181910e-09    1.255153e-13    4.108014e-10   -3.722684e-01
    3.007236e+01    1.585168e+02    1.389171e-05    3.031629e+04    2.193144e-09    1.311086e-13    4.311967e-10   -3.672684e-01
    3.005912e+01    1.584478e+02    1.614517e-05    3.502642e+04    2.205176e-09    1.369649e-13    4.525465e-10   -3.622684e-01
    3.004488e+01    1.583738e+02    1.876290e-05    4.045047e+04    2.218028e-09    1.430966e-13    4.748807e-10   -3.572684e-01
    3.002957e+01    1.582942e+02    2.180345e-05    4.669325e+04    2.231722e-09    1.495163e-13    4.982287e-10   -3.522684e-01
    3.001308e+01    1.582087e+02    2.533470e-05    5.387433e+04    2.246284e-09    1.562374e-13    5.226190e-10   -3.472684e-01
    2.999538e+01    1.581169e+02    2.943536e-05    6.213015e+04    2.261734e-09    1.632735e-13    5.480800e-10   -3.422684e-01
    2.997637e+01    1.580185e+02    3.419661e-05    7.161607e+04    2.278095e-09    1.706389e-13    5.746375e-10   -3.372684e-01
    2.995593e+01    1.579129e+02    3.972410e-05    8.250898e+04    2.295386e-09    1.783487e-13    6.023175e-10   -3.322684e-01
    2.993399e+01    1.577998e+02    4.614016e-05    9.501019e+04    2.313628e-09    1.864180e-13    6.311440e-10   -3.272684e-01
    2.991043e+01    1.576783e+02    5.358640e-05    1.093484e+05    2.332840e-09    1.948628e-13    6.611395e-10   -3.222684e-01
    2.988515e+01    1.575484e+02    6.222675e-05    1.257836e+05    2.353036e-09    2.036997e-13    6.923245e-10   -3.172684e-01
    2.985803e+01    1.574093e+02    7.225085e-05    1.446108e+05    2.374234e-09    2.129458e-13    7.247180e-10   -3.122684e-01
    2.982895e+01    1.572604e+02    8.387790e-05    1.661643e+05    2.396448e-09    2.226188e-13    7.583365e-10   -3.072684e-01
    2.979778e+01    1.571012e+02    9.736140e-05    1.908234e+05    2.419688e-09    2.327370e-13    7.931940e-10   -3.022684e-01
    2.976439e+01    1.569310e+02    1.129941e-04    2.190171e+05    2.443966e-09    2.433192e-13    8.293020e-10   -2.972684e-01
    2.972863e+01    1.567493e+02    1.311144e-04    2.512311e+05    2.469289e-09    2.543852e-13    8.666695e-10   -2.922684e-01
    2.969036e+01    1.565555e+02    1.521122e-04    2.880140e+05    2.495664e-09    2.659548e-13    9.053030e-10   -2.872684e-01
    2.964944e+01    1.563489e+02    1.764379e-04    3.299859e+05    2.523093e-09    2.780491e-13    9.452055e-10   -2.822684e-01
    2.960570e+01    1.561289e+02    2.046104e-04    3.778458e+05    2.551577e-09    2.906893e-13    9.863760e-10   -2.772684e-01
    2.955895e+01    1.558946e+02    2.372278e-04    4.323818e+05    2.581115e-09    3.038976e-13    1.028812e-09   -2.722684e-01
    2.950909e+01    1.556458e+02    2.749784e-04    4.944821e+05    2.611703e-09    3.176967e-13    1.072506e-09   -2.672684e-01
    2.945589e+01    1.553815e+02    3.186541e-04    5.651449e+05    2.643334e-09    3.321101e-13    1.117449e-09   -2.622684e-01
    2.939921e+01    1.551015e+02    3.691657e-04    6.454930e+05    2.675997e-09    3.471617e-13    1.163624e-09   -2.572684e-01
    2.933887e+01    1.548048e+02    4.275590e-04    7.367865e+05    2.709680e-09    3.628763e-13    1.211017e-09   -2.522684e-01
    2.927470e+01    1.544913e+02    4.950347e-04    8.404386e+05    2.744367e-09    3.792794e-13    1.259605e-09   -2.472684e-01
    2.920652e+01    1.541603e+02    5.729695e-04    9.580330e+05    2.780040e-09    3.963970e-13    1.309361e-09   -2.422684e-01
    2.913416e+01    1.538117e+02    6.629410e-04    1.091342e+06    2.816676e-09    4.142560e-13    1.360260e-09   -2.372684e-01
    2.905747e+01    1.534449e+02    7.667545e-04    1.242345e+06    2.854251e-09    4.328839e-13    1.412268e-09   -2.322684e-01
    2.897627e+01    1.530600e+02    8.864750e-04    1.413253e+06    2.892739e-09    4.523088e-13    1.465348e-09   -2.272684e-01
    2.889043e+01    1.526569e+02    1.024461e-03    1.606533e+06    2.932107e-09    4.725597e-13    1.519460e-09   -2.222684e-01
    2.879982e+01    1.522359e+02    1.183403e-03    1.824931e+06    2.972324e-09    4.936663e-13    1.574564e-09   -2.172684e-01
    2.870433e+01    1.517972e+02    1.366369e-03    2.071502e+06    3.013354e-09    5.156590e-13    1.630610e-09   -2.122684e-01
    2.860385e+01    1.513415e+02    1.576850e-03    2.349640e+06    3.055158e-09    5.385685e-13    1.687552e-09   -2.072684e-01
    2.849830e+01    1.508695e+02    1.818818e-03    2.663112e+06    3.097695e-09    5.624275e-13    1.745336e-09   -2.022684e-01
    2.838767e+01    1.503826e+02    2.096782e-03    3.016101e+06    3.140923e-09    5.872680e-13    1.803907e-09   -1.972684e-01
    2.827190e+01    1.498819e+02    2.415859e-03    3.413225e+06    3.184796e-09    6.131240e-13    1.863206e-09   -1.922684e-01
    2.815103e+01    1.493693e+02    2.781845e-03    3.859608e+06    3.229268e-09    6.400290e-13    1.923175e-09   -1.872684e-01
    2.802511e+01    1.488469e+02    3.201299e-03    4.360905e+06    3.274290e-09    6.680180e-13    1.983751e-09   -1.822684e-01
    2.789425e+01    1.483174e+02    3.681636e-03    4.923368e+06    3.319810e-09    6.971275e-13    2.044872e-09   -1.772684e-01
    2.775855e+01    1.477835e+02    4.231223e-03    5.553889e+06    3.365779e-09    7.273940e-13    2.106470e-09   -1.722684e-01
    2.761822e+01    1.472486e+02    4.859497e-03    6.260081e+06    3.412143e-09    7.588545e-13    2.168479e-09   -1.672684e-01
    2.747347e+01    1.467167e+02    5.577085e-03    7.050332e+06    3.458847e-09    7.915475e-13    2.230832e-09   -1.622684e-01
    2.732460e+01    1.461919e+02    6.395935e-03    7.933884e+06    3.505840e-09    8.255125e-13    2.293462e-09   -1.572684e-01
    2.717187e+01    1.456791e+02    7.329485e-03    8.920927e+06    3.553066e-09    8.607895e-13    2.356299e-09   -1.522684e-01
    2.701567e+01    1.451833e+02    8.392810e-03    1.002269e+07    3.600469e-09    8.974195e-13    2.419275e-09   -1.472684e-01
    2.685633e+01    1.447100e+02    9.602820e-03    1.125152e+07    3.647996e-09    9.354450e-13    2.482321e-09   -1.422684e-01
    2.669429e+01    1.442651e+02    1.097845e-02    1.262105e+07    3.695593e-09    9.749085e-13    2.545371e-09   -1.372684e-01
    2.652994e+01    1.438547e+02    1.254091e-02    1.414627e+07    3.743204e-09    1.015855e-12    2.608357e-09   -1.322684e-01
    2.636371e+01    1.434850e+02    1.431390e-02    1.584368e+07    3.790779e-09    1.058328e-12    2.671213e-09   -1.272684e-01
    2.619598e+01    1.431624e+02    1.632390e-02    1.773145e+07    3.838263e-09    1.102375e-12    2.733876e-09   -1.222684e-01
    2.602713e+01    1.428931e+02    1.860050e-02    1.982952e+07    3.885608e-09    1.148043e-12    2.796281e-09   -1.172684e-01
    2.585745e+01    1.426831e+02    2.117668e-02    2.215982e+07    3.932761e-09    1.195381e-12    2.858368e-09   -1.122684e-01
    2.568723e+01    1.425383e+02    2.408917e-02    2.474636e+07    3.979677e-09    1.244437e-12    2.920078e-09   -1.072684e-01
    2.551660e+01    1.424636e+02    2.737889e-02    2.761542e+07    4.026308e-09    1.295264e-12    2.981355e-09   -1.022684e-01
    2.534562e+01    1.424634e+02    3.109130e-02    3.079562e+07    4.072610e-09    1.347913e-12    3.042143e-09   -9.726840e-02
    2.517421e+01    1.425411e+02    3.527687e-02    3.431807e+07    4.118539e-09    1.402438e-12    3.102390e-09   -9.226840e-02
    2.500221e+01    1.426992e+02    3.999158e-02    3.821647e+07    4.164056e-09    1.458893e-12    3.162047e-09   -8.726840e-02
    2.482928e+01    1.429386e+02    4.529734e-02    4.252705e+07    4.209123e-09    1.517335e-12    3.221068e-09   -8.226840e-02
    2.465491e+01    1.432588e+02    5.126250e-02    4.728860e+07    4.253701e-09    1.577823e-12    3.279409e-09   -7.726840e-02
    2.447855e+01    1.436579e+02    5.796235e-02    5.254240e+07    4.297756e-09    1.640414e-12    3.337028e-09   -7.226840e-02
    2.429939e+01    1.441322e+02    6.547970e-02    5.833194e+07    4.341259e-09    1.705172e-12    3.393888e-09   -6.726840e-02
    2.411661e+01    1.446761e+02    7.390510e-02    6.470273e+07    4.384178e-09    1.772157e-12    3.449954e-09   -6.226840e-02
    2.392927e+01    1.452823e+02    8.333750e-02    7.170192e+07    4.426488e-09    1.841434e-12    3.505193e-09   -5.726840e-02
    2.373636e+01    1.459419e+02    9.388450e-02    7.937786e+07    4.468161e-09    1.913070e-12    3.559578e-09   -5.226840e-02
    2.353686e+01    1.466441e+02    1.056626e-01    8.777944e+07    4.509178e-09    1.987134e-12    3.613081e-09   -4.726840e-02
    2.332975e+01    1.473767e+02    1.187976e-01    9.695555e+07    4.549516e-09    2.063694e-12    3.665679e-09   -4.226840e-02
    2.311405e+01    1.481261e+02    1.334243e-01    1.069542e+08    4.589158e-09    2.142823e-12    3.717353e-09   -3.726840e-02
    2.288885e+01    1.488776e+02    1.496869e-01    1.178220e+08    4.628089e-09    2.224596e-12    3.768083e-09   -3.226840e-02
    2.265339e+01    1.496156e+02    1.677385e-01    1.296026e+08    4.666295e-09    2.309089e-12    3.817856e-09   -2.726840e-02
    2.240704e+01    1.503241e+02    1.877407e-01    1.423369e+08    4.703764e-09    2.396380e-12    3.866659e-09   -2.226840e-02
    2.214930e+01    1.509868e+02    2.098635e-01    1.560609e+08    4.740488e-09    2.486551e-12    3.914483e-09   -1.726840e-02
    2.187992e+01    1.515876e+02    2.342842e-01    1.708059e+08    4.776458e-09    2.579685e-12    3.961321e-09   -1.226840e-02
    2.159876e+01    1.521107e+02    2.611870e-01    1.865970e+08    4.811670e-09    2.675868e-12    4.007167e-09   -7.268400e-03
    2.130594e+01    1.525413e+02    2.907615e-01    2.034527e+08    4.846119e-09    2.775190e-12    4.052018e-09   -2.268400e-03
    2.100174e+01    1.528656e+02    3.232019e-01    2.213844e+08    4.879802e-09    2.877741e-12    4.095874e-09    2.731600e-03
    2.068665e+01    1.530713e+02    3.587058e-01    2.403956e+08    4.912722e-09    2.983617e-12    4.138736e-09    7.731600e-03
    2.036129e+01    1.531474e+02    3.974728e-01    2.604818e+08    4.944877e-09    3.092916e-12    4.180608e-09    1.273160e-02
    2.002647e+01    1.530851e+02    4.397031e-01    2.816307e+08    4.976271e-09    3.205738e-12    4.221494e-09    1.773160e-02
    1.968306e+01    1.528770e+02    4.855959e-01    3.038212e+08    5.006910e-09    3.322186e-12    4.261401e-09    2.273160e-02
    1.933209e+01    1.525180e+02    5.353485e-01    3.270255e+08    5.036790e-09    3.442368e-12    4.300338e-09    2.773160e-02
    1.897465e+01    1.520047e+02    5.891535e-01    3.512070e+08    5.065930e-09    3.566395e-12    4.338313e-09    3.273160e-02
    1.861185e+01    1.513361e+02    6.472000e-01    3.763233e+08    5.094330e-09    3.694381e-12    4.375336e-09    3.773160e-02
    1.824488e+01    1.505127e+02    7.096690e-01    4.023253e+08    5.122000e-09    3.826446e-12    4.411421e-09    4.273160e-02
    1.787489e+01    1.495368e+02    7.767350e-01    4.291588e+08    5.148945e-09    3.962711e-12    4.446579e-09    4.773160e-02
    1.750304e+01    1.484125e+02    8.485630e-01    4.567645e+08    5.175180e-09    4.103302e-12    4.480825e-09    5.273160e-02
    1.713046e+01    1.471452e+02    9.253095e-01    4.850797e+08    5.200715e-09    4.248350e-12    4.514173e-09    5.773160e-02
    1.675822e+01    1.457416e+02    1.007120e+00    5.140386e+08    5.225565e-09    4.397991e-12    4.546640e-09    6.273160e-02
    1.638736e+01    1.442095e+02    1.094128e+00    5.435757e+08    5.249730e-09    4.552363e-12    4.578239e-09    6.773160e-02
    1.601881e+01    1.425575e+02    1.186457e+00    5.736215e+08    5.273235e-09    4.711612e-12    4.608989e-09    7.273160e-02
    1.565349e+01    1.407947e+02    1.284219e+00    6.041091e+08    5.296085e-09    4.875886e-12    4.638907e-09    7.773160e-02
    1.529218e+01    1.389311e+02    1.387514e+00    6.349709e+08    5.318300e-09    5.045340e-12    4.668009e-09    8.273160e-02
    1.493562e+01    1.369767e+02    1.496428e+00    6.661425e+08    5.339885e-09    5.220135e-12    4.696314e-09    8.773160e-02
    1.458446e+01    1.349415e+02    1.611038e+00    6.975601e+08    5.360860e-09    5.400435e-12    4.723839e-09    9.273160e-02
    1.423926e+01    1.328357e+02    1.731409e+00    7.291632e+08    5.381240e-09    5.586415e-12    4.750603e-09    9.773160e-02
    1.390052e+01    1.306693e+02    1.857594e+00    7.608959e+08    5.401030e-09    5.778250e-12    4.776624e-09    1.027316e-01
    1.356865e+01    1.284519e+02    1.989636e+00    7.927035e+08    5.420255e-09    5.976120e-12    4.801921e-09    1.077316e-01
