# sky130 nfet_01v8 gm/ID Processed Lookup Table
# Corner: fs
# Temperature: 0C
# W = 2.0 um
# L = 2.7 um (2700 nm)
# Columns: gm/id [1/V]  gm/gds [V/V]  id/W [A/m]  ft [Hz]  Cgg/W [F/m]  Cgd/W [F/m]  Cgs/W [F/m]  Vov [V]
#         gm/id          gm/gds            id/W              ft           Cgg/W           Cgd/W           Cgs/W             Vov
    2.995725e+01    1.720406e+02    2.078632e-09    1.747270e+00    5.672045e-09    4.832541e-14    1.471484e-10   -6.055839e-01
    2.995701e+01    1.720392e+02    2.414508e-09    2.034503e+00    5.658340e-09    5.023515e-14    1.525204e-10   -6.005839e-01
    2.995678e+01    1.720379e+02    2.804654e-09    2.368812e+00    5.645000e-09    5.222260e-14    1.581459e-10   -5.955839e-01
    2.995652e+01    1.720363e+02    3.257837e-09    2.757878e+00    5.632040e-09    5.429130e-14    1.640392e-10   -5.905839e-01
    2.995624e+01    1.720347e+02    3.784240e-09    3.210639e+00    5.619460e-09    5.644490e-14    1.702154e-10   -5.855839e-01
    2.995594e+01    1.720330e+02    4.395695e-09    3.737478e+00    5.607275e-09    5.868715e-14    1.766906e-10   -5.805839e-01
    2.995560e+01    1.720311e+02    5.105940e-09    4.350466e+00    5.595490e-09    6.102205e-14    1.834807e-10   -5.755839e-01
    2.995523e+01    1.720290e+02    5.930935e-09    5.063617e+00    5.584125e-09    6.345385e-14    1.906043e-10   -5.705839e-01
    2.995485e+01    1.720268e+02    6.889215e-09    5.893232e+00    5.573185e-09    6.598695e-14    1.980804e-10   -5.655839e-01
    2.995444e+01    1.720245e+02    8.002310e-09    6.858228e+00    5.562690e-09    6.862600e-14    2.059287e-10   -5.605839e-01
    2.995400e+01    1.720219e+02    9.295230e-09    7.980586e+00    5.552650e-09    7.137580e-14    2.141701e-10   -5.555839e-01
    2.995352e+01    1.720192e+02    1.079702e-08    9.285830e+00    5.543080e-09    7.424150e-14    2.228268e-10   -5.505839e-01
    2.995301e+01    1.720162e+02    1.254142e-08    1.080360e+01    5.533995e-09    7.722840e-14    2.319218e-10   -5.455839e-01
    2.995244e+01    1.720130e+02    1.456761e-08    1.256827e+01    5.525415e-09    8.034215e-14    2.414796e-10   -5.405839e-01
    2.995185e+01    1.720096e+02    1.692109e-08    1.461981e+01    5.517350e-09    8.358865e-14    2.515259e-10   -5.355839e-01
    2.995120e+01    1.720058e+02    1.965474e-08    1.700448e+01    5.509830e-09    8.697405e-14    2.620875e-10   -5.305839e-01
    2.995052e+01    1.720019e+02    2.282994e-08    1.977607e+01    5.502870e-09    9.050490e-14    2.731930e-10   -5.255839e-01
    2.994976e+01    1.719976e+02    2.651800e-08    2.299687e+01    5.496490e-09    9.418790e-14    2.848718e-10   -5.205839e-01
    2.994895e+01    1.719929e+02    3.080171e-08    2.673918e+01    5.490710e-09    9.803030e-14    2.971556e-10   -5.155839e-01
    2.994809e+01    1.719880e+02    3.577728e-08    3.108676e+01    5.485560e-09    1.020396e-13    3.100767e-10   -5.105839e-01
    2.994716e+01    1.719826e+02    4.155638e-08    3.613670e+01    5.481065e-09    1.062236e-13    3.236696e-10   -5.055839e-01
    2.994615e+01    1.719769e+02    4.826875e-08    4.200155e+01    5.477240e-09    1.105904e-13    3.379700e-10   -5.005839e-01
    2.994505e+01    1.719706e+02    5.606505e-08    4.881157e+01    5.474125e-09    1.151490e-13    3.530156e-10   -4.955839e-01
    2.994390e+01    1.719639e+02    6.512020e-08    5.671771e+01    5.471740e-09    1.199083e-13    3.688455e-10   -4.905839e-01
    2.994263e+01    1.719567e+02    7.563745e-08    6.589458e+01    5.470125e-09    1.248777e-13    3.855007e-10   -4.855839e-01
    2.994129e+01    1.719490e+02    8.785265e-08    7.654445e+01    5.469300e-09    1.300673e-13    4.030239e-10   -4.805839e-01
    2.993982e+01    1.719406e+02    1.020399e-07    8.890112e+01    5.469305e-09    1.354876e-13    4.214594e-10   -4.755839e-01
    2.993825e+01    1.719316e+02    1.185174e-07    1.032351e+02    5.470170e-09    1.411494e-13    4.408537e-10   -4.705839e-01
    2.993656e+01    1.719219e+02    1.376544e-07    1.198590e+02    5.471940e-09    1.470642e-13    4.612547e-10   -4.655839e-01
    2.993474e+01    1.719115e+02    1.598802e-07    1.391344e+02    5.474640e-09    1.532441e-13    4.827126e-10   -4.605839e-01
    2.993278e+01    1.719003e+02    1.856928e-07    1.614785e+02    5.478320e-09    1.597017e-13    5.052790e-10   -4.555839e-01
    2.993065e+01    1.718881e+02    2.156706e-07    1.873735e+02    5.483010e-09    1.664502e-13    5.290075e-10   -4.505839e-01
    2.992838e+01    1.718751e+02    2.504851e-07    2.173758e+02    5.488760e-09    1.735033e-13    5.539535e-10   -4.455839e-01
    2.992592e+01    1.718610e+02    2.909163e-07    2.521269e+02    5.495615e-09    1.808755e-13    5.801745e-10   -4.405839e-01
    2.992328e+01    1.718459e+02    3.378691e-07    2.923682e+02    5.503610e-09    1.885820e-13    6.077295e-10   -4.355839e-01
    2.992043e+01    1.718297e+02    3.923946e-07    3.389524e+02    5.512800e-09    1.966385e-13    6.366785e-10   -4.305839e-01
    2.991737e+01    1.718122e+02    4.557127e-07    3.928637e+02    5.523225e-09    2.050616e-13    6.670850e-10   -4.255839e-01
    2.991407e+01    1.717933e+02    5.292395e-07    4.552344e+02    5.534940e-09    2.138685e-13    6.990125e-10   -4.205839e-01
    2.991052e+01    1.717731e+02    6.146190e-07    5.273683e+02    5.547995e-09    2.230773e-13    7.325260e-10   -4.155839e-01
    2.990668e+01    1.717512e+02    7.137595e-07    6.107660e+02    5.562440e-09    2.327070e-13    7.676930e-10   -4.105839e-01
    2.990256e+01    1.717278e+02    8.288750e-07    7.071536e+02    5.578325e-09    2.427771e-13    8.045810e-10   -4.055839e-01
    2.989813e+01    1.717025e+02    9.625355e-07    8.185139e+02    5.595705e-09    2.533082e-13    8.432595e-10   -4.005839e-01
    2.989335e+01    1.716753e+02    1.117724e-06    9.471262e+02    5.614635e-09    2.643218e-13    8.837985e-10   -3.955839e-01
    2.988821e+01    1.716460e+02    1.297902e-06    1.095607e+03    5.635170e-09    2.758403e-13    9.262690e-10   -3.905839e-01
    2.988268e+01    1.716145e+02    1.507083e-06    1.266959e+03    5.657365e-09    2.878870e-13    9.707420e-10   -3.855839e-01
    2.987671e+01    1.715807e+02    1.749928e-06    1.464628e+03    5.681275e-09    3.004861e-13    1.017289e-09   -3.805839e-01
    2.987032e+01    1.715443e+02    2.031841e-06    1.692565e+03    5.706955e-09    3.136630e-13    1.065983e-09   -3.755839e-01
    2.986341e+01    1.715052e+02    2.359093e-06    1.955292e+03    5.734465e-09    3.274441e-13    1.116895e-09   -3.705839e-01
    2.985600e+01    1.714632e+02    2.738954e-06    2.257997e+03    5.763855e-09    3.418568e-13    1.170095e-09   -3.655839e-01
    2.984801e+01    1.714179e+02    3.179857e-06    2.606608e+03    5.795185e-09    3.569295e-13    1.225654e-09   -3.605839e-01
    2.983943e+01    1.713694e+02    3.691582e-06    3.007918e+03    5.828505e-09    3.726918e-13    1.283641e-09   -3.555839e-01
    2.983019e+01    1.713173e+02    4.285466e-06    3.469682e+03    5.863875e-09    3.891746e-13    1.344125e-09   -3.505839e-01
    2.982027e+01    1.712613e+02    4.974654e-06    4.000774e+03    5.901340e-09    4.064098e-13    1.407170e-09   -3.455839e-01
    2.980960e+01    1.712012e+02    5.774380e-06    4.611325e+03    5.940950e-09    4.244307e-13    1.472839e-09   -3.405839e-01
    2.979811e+01    1.711367e+02    6.702300e-06    5.312895e+03    5.982760e-09    4.432715e-13    1.541194e-09   -3.355839e-01
    2.978580e+01    1.710675e+02    7.778865e-06    6.118680e+03    6.026815e-09    4.629679e-13    1.612293e-09   -3.305839e-01
    2.977254e+01    1.709933e+02    9.027785e-06    7.043732e+03    6.073155e-09    4.835569e-13    1.686189e-09   -3.255839e-01
    2.975830e+01    1.709137e+02    1.047650e-05    8.105197e+03    6.121825e-09    5.050765e-13    1.762934e-09   -3.205839e-01
    2.974302e+01    1.708284e+02    1.215679e-05    9.322619e+03    6.172860e-09    5.275665e-13    1.842572e-09   -3.155839e-01
    2.972662e+01    1.707371e+02    1.410547e-05    1.071825e+04    6.226290e-09    5.510680e-13    1.925146e-09   -3.105839e-01
    2.970900e+01    1.706393e+02    1.636512e-05    1.231739e+04    6.282155e-09    5.756230e-13    2.010690e-09   -3.055839e-01
    2.969010e+01    1.705347e+02    1.898503e-05    1.414887e+04    6.340470e-09    6.012750e-13    2.099235e-09   -3.005839e-01
    2.966983e+01    1.704227e+02    2.202220e-05    1.624540e+04    6.401260e-09    6.280690e-13    2.190805e-09   -2.955839e-01
    2.964809e+01    1.703031e+02    2.554257e-05    1.864419e+04    6.464545e-09    6.560525e-13    2.285417e-09   -2.905839e-01
    2.962479e+01    1.701754e+02    2.962235e-05    2.138749e+04    6.530330e-09    6.852720e-13    2.383082e-09   -2.855839e-01
    2.959983e+01    1.700389e+02    3.434964e-05    2.452325e+04    6.598625e-09    7.157780e-13    2.483804e-09   -2.805839e-01
    2.957310e+01    1.698936e+02    3.982619e-05    2.810589e+04    6.669425e-09    7.476205e-13    2.587579e-09   -2.755839e-01
    2.954450e+01    1.697387e+02    4.616950e-05    3.219709e+04    6.742725e-09    7.808530e-13    2.694393e-09   -2.705839e-01
    2.951389e+01    1.695737e+02    5.351525e-05    3.686673e+04    6.818510e-09    8.155280e-13    2.804227e-09   -2.655839e-01
    2.948116e+01    1.693982e+02    6.201990e-05    4.219396e+04    6.896765e-09    8.517020e-13    2.917052e-09   -2.605839e-01
    2.944622e+01    1.692119e+02    7.186390e-05    4.826840e+04    6.977465e-09    8.894315e-13    3.032831e-09   -2.555839e-01
    2.940889e+01    1.690142e+02    8.325540e-05    5.519143e+04    7.060565e-09    9.287750e-13    3.151519e-09   -2.505839e-01
    2.936906e+01    1.688047e+02    9.643400e-05    6.307757e+04    7.146040e-09    9.697920e-13    3.273060e-09   -2.455839e-01
    2.932659e+01    1.685830e+02    1.116757e-04    7.205627e+04    7.233835e-09    1.012545e-12    3.397392e-09   -2.405839e-01
    2.928135e+01    1.683488e+02    1.292981e-04    8.227366e+04    7.323900e-09    1.057097e-12    3.524441e-09   -2.355839e-01
    2.923320e+01    1.681018e+02    1.496663e-04    9.389462e+04    7.416170e-09    1.103511e-12    3.654128e-09   -2.305839e-01
    2.918201e+01    1.678419e+02    1.732000e-04    1.071050e+05    7.510580e-09    1.151856e-12    3.786363e-09   -2.255839e-01
    2.912763e+01    1.675687e+02    2.003814e-04    1.221141e+05    7.607060e-09    1.202199e-12    3.921049e-09   -2.205839e-01
    2.906990e+01    1.672822e+02    2.317636e-04    1.391575e+05    7.705525e-09    1.254608e-12    4.058079e-09   -2.155839e-01
    2.900876e+01    1.669829e+02    2.679810e-04    1.585006e+05    7.805890e-09    1.309157e-12    4.197342e-09   -2.105839e-01
    2.894404e+01    1.666708e+02    3.097605e-04    1.804411e+05    7.908060e-09    1.365917e-12    4.338714e-09   -2.055839e-01
    2.887561e+01    1.663461e+02    3.579345e-04    2.053133e+05    8.011945e-09    1.424963e-12    4.482071e-09   -2.005839e-01
    2.880341e+01    1.660098e+02    4.134553e-04    2.334929e+05    8.117435e-09    1.486372e-12    4.627277e-09   -1.955839e-01
    2.872732e+01    1.656628e+02    4.774110e-04    2.654009e+05    8.224420e-09    1.550221e-12    4.774192e-09   -1.905839e-01
    2.864728e+01    1.653059e+02    5.510445e-04    3.015084e+05    8.332795e-09    1.616590e-12    4.922671e-09   -1.855839e-01
    2.856320e+01    1.649409e+02    6.357745e-04    3.423433e+05    8.442445e-09    1.685562e-12    5.072565e-09   -1.805839e-01
    2.847511e+01    1.645695e+02    7.332165e-04    3.884965e+05    8.553240e-09    1.757219e-12    5.223720e-09   -1.755839e-01
    2.838295e+01    1.641940e+02    8.452125e-04    4.406276e+05    8.665065e-09    1.831647e-12    5.375975e-09   -1.705839e-01
    2.828675e+01    1.638170e+02    9.738565e-04    4.994742e+05    8.777790e-09    1.908932e-12    5.529170e-09   -1.655839e-01
    2.818659e+01    1.634415e+02    1.121530e-03    5.658597e+05    8.891290e-09    1.989164e-12    5.683150e-09   -1.605839e-01
    2.808254e+01    1.630712e+02    1.290937e-03    6.407027e+05    9.005440e-09    2.072434e-12    5.837745e-09   -1.555839e-01
    2.797473e+01    1.627104e+02    1.485146e-03    7.250282e+05    9.120110e-09    2.158835e-12    5.992790e-09   -1.505839e-01
    2.786331e+01    1.623638e+02    1.707635e-03    8.199801e+05    9.235165e-09    2.248462e-12    6.148120e-09   -1.455839e-01
    2.774851e+01    1.620368e+02    1.962345e-03    9.268330e+05    9.350475e-09    2.341412e-12    6.303575e-09   -1.405839e-01
    2.763053e+01    1.617354e+02    2.253735e-03    1.047007e+06    9.465920e-09    2.437785e-12    6.458990e-09   -1.355839e-01
    2.750967e+01    1.614664e+02    2.586850e-03    1.182086e+06    9.581370e-09    2.537682e-12    6.614210e-09   -1.305839e-01
    2.738625e+01    1.612371e+02    2.967387e-03    1.333838e+06    9.696695e-09    2.641207e-12    6.769070e-09   -1.255839e-01
    2.726059e+01    1.610556e+02    3.401783e-03    1.504230e+06    9.811775e-09    2.748466e-12    6.923415e-09   -1.205839e-01
    2.713300e+01    1.609301e+02    3.897302e-03    1.695455e+06    9.926490e-09    2.859569e-12    7.077105e-09   -1.155839e-01
    2.700390e+01    1.608703e+02    4.462134e-03    1.909959e+06    1.004073e-08    2.974626e-12    7.229980e-09   -1.105839e-01
    2.687359e+01    1.608855e+02    5.105515e-03    2.150467e+06    1.015436e-08    3.093751e-12    7.381910e-09   -1.055839e-01
    2.674239e+01    1.609858e+02    5.837845e-03    2.420008e+06    1.026729e-08    3.217062e-12    7.532755e-09   -1.005839e-01
    2.661058e+01    1.611813e+02    6.670830e-03    2.721958e+06    1.037942e-08    3.344677e-12    7.682385e-09   -9.558390e-02
    2.647838e+01    1.614822e+02    7.617640e-03    3.060065e+06    1.049063e-08    3.476719e-12    7.830670e-09   -9.058390e-02
    2.634591e+01    1.618988e+02    8.693080e-03    3.438485e+06    1.060083e-08    3.613312e-12    7.977500e-09   -8.558390e-02
    2.621316e+01    1.624408e+02    9.913775e-03    3.861820e+06    1.070993e-08    3.754586e-12    8.122765e-09   -8.058390e-02
    2.608002e+01    1.631174e+02    1.129837e-02    4.335137e+06    1.081785e-08    3.900673e-12    8.266350e-09   -7.558390e-02
    2.594621e+01    1.639369e+02    1.286775e-02    4.864017e+06    1.092451e-08    4.051707e-12    8.408165e-09   -7.058390e-02
    2.581129e+01    1.649062e+02    1.464529e-02    5.454555e+06    1.102982e-08    4.207827e-12    8.548115e-09   -6.558390e-02
    2.567462e+01    1.660312e+02    1.665706e-02    6.113390e+06    1.113373e-08    4.369174e-12    8.686120e-09   -6.058390e-02
    2.553540e+01    1.673157e+02    1.893214e-02    6.847699e+06    1.123616e-08    4.535896e-12    8.822100e-09   -5.558390e-02
    2.539262e+01    1.687614e+02    2.150278e-02    7.665175e+06    1.133706e-08    4.708142e-12    8.955990e-09   -5.058390e-02
    2.524515e+01    1.703682e+02    2.440479e-02    8.574032e+06    1.143636e-08    4.886065e-12    9.087725e-09   -4.558390e-02
    2.509165e+01    1.721327e+02    2.767762e-02    9.582887e+06    1.153405e-08    5.069825e-12    9.217245e-09   -4.058390e-02
    2.493074e+01    1.740495e+02    3.136471e-02    1.070077e+07    1.163005e-08    5.259585e-12    9.344510e-09   -3.558390e-02
    2.476091e+01    1.761100e+02    3.551363e-02    1.193695e+07    1.172434e-08    5.455505e-12    9.469470e-09   -3.058390e-02
    2.458065e+01    1.783028e+02    4.017621e-02    1.330086e+07    1.181688e-08    5.657770e-12    9.592095e-09   -2.558390e-02
    2.438850e+01    1.806138e+02    4.540868e-02    1.480191e+07    1.190765e-08    5.866545e-12    9.712350e-09   -2.058390e-02
    2.418305e+01    1.830257e+02    5.127165e-02    1.644937e+07    1.199663e-08    6.082020e-12    9.830220e-09   -1.558390e-02
    2.396308e+01    1.855196e+02    5.783010e-02    1.825212e+07    1.208380e-08    6.304380e-12    9.945680e-09   -1.058390e-02
    2.372750e+01    1.880734e+02    6.515330e-02    2.021850e+07    1.216913e-08    6.533815e-12    1.005872e-08   -5.583900e-03
    2.347550e+01    1.906637e+02    7.331440e-02    2.235601e+07    1.225264e-08    6.770525e-12    1.016934e-08   -5.839000e-04
    2.320649e+01    1.932655e+02    8.239045e-02    2.467128e+07    1.233431e-08    7.014715e-12    1.027752e-08    4.416100e-03
    2.292022e+01    1.958525e+02    9.246160e-02    2.716964e+07    1.241413e-08    7.266600e-12    1.038328e-08    9.416100e-03
    2.261670e+01    1.983983e+02    1.036110e-01    2.985511e+07    1.249213e-08    7.526390e-12    1.048663e-08    1.441610e-02
    2.229626e+01    2.008764e+02    1.159237e-01    3.273019e+07    1.256828e-08    7.794315e-12    1.058757e-08    1.941610e-02
    2.195950e+01    2.032608e+02    1.294867e-01    3.579570e+07    1.264262e-08    8.070605e-12    1.068612e-08    2.441610e-02
    2.160729e+01    2.055265e+02    1.443876e-01    3.905075e+07    1.271514e-08    8.355495e-12    1.078229e-08    2.941610e-02
    2.124074e+01    2.076501e+02    1.607142e-01    4.249267e+07    1.278586e-08    8.649230e-12    1.087613e-08    3.441610e-02
    2.086118e+01    2.096101e+02    1.785533e-01    4.611701e+07    1.285481e-08    8.952070e-12    1.096764e-08    3.941610e-02
    2.047005e+01    2.113871e+02    1.979906e-01    4.991766e+07    1.292200e-08    9.264275e-12    1.105686e-08    4.441610e-02
    2.006897e+01    2.129647e+02    2.191094e-01    5.388683e+07    1.298745e-08    9.586110e-12    1.114381e-08    4.941610e-02
    1.965961e+01    2.143287e+02    2.419898e-01    5.801527e+07    1.305118e-08    9.917860e-12    1.122853e-08    5.441610e-02
    1.924367e+01    2.154681e+02    2.667085e-01    6.229244e+07    1.311323e-08    1.025981e-11    1.131106e-08    5.941610e-02
    1.882290e+01    2.163750e+02    2.933377e-01    6.670676e+07    1.317361e-08    1.061226e-11    1.139144e-08    6.441610e-02
    1.839896e+01    2.170438e+02    3.219448e-01    7.124555e+07    1.323235e-08    1.097551e-11    1.146969e-08    6.941610e-02
    1.797352e+01    2.174721e+02    3.525919e-01    7.589569e+07    1.328950e-08    1.134988e-11    1.154586e-08    7.441610e-02
    1.754813e+01    2.176603e+02    3.853359e-01    8.064355e+07    1.334507e-08    1.173571e-11    1.162000e-08    7.941610e-02
    1.712426e+01    2.176108e+02    4.202271e-01    8.547530e+07    1.339910e-08    1.213332e-11    1.169214e-08    8.441610e-02
    1.670329e+01    2.173286e+02    4.573106e-01    9.037720e+07    1.345161e-08    1.254306e-11    1.176233e-08    8.941610e-02
    1.628642e+01    2.168204e+02    4.966250e-01    9.533567e+07    1.350265e-08    1.296532e-11    1.183061e-08    9.441610e-02
    1.587482e+01    2.160949e+02    5.382030e-01    1.003376e+08    1.355224e-08    1.340044e-11    1.189702e-08    9.941610e-02
    1.546945e+01    2.151618e+02    5.820715e-01    1.053704e+08    1.360042e-08    1.384883e-11    1.196161e-08    1.044161e-01
    1.507117e+01    2.140323e+02    6.282525e-01    1.104223e+08    1.364723e-08    1.431088e-11    1.202443e-08    1.094161e-01
    1.468076e+01    2.127183e+02    6.767610e-01    1.154823e+08    1.369269e-08    1.478700e-11    1.208551e-08    1.144161e-01
    1.429881e+01    2.112322e+02    7.276090e-01    1.205401e+08    1.373684e-08    1.527762e-11    1.214491e-08    1.194161e-01
    1.392586e+01    2.095870e+02    7.808020e-01    1.255866e+08    1.377971e-08    1.578319e-11    1.220266e-08    1.244161e-01
    1.356232e+01    2.077959e+02    8.363425e-01    1.306136e+08    1.382134e-08    1.630415e-11    1.225882e-08    1.294161e-01
    1.320850e+01    2.058719e+02    8.942280e-01    1.356137e+08    1.386176e-08    1.684100e-11    1.231342e-08    1.344161e-01
    1.286464e+01    2.038278e+02    9.544545e-01    1.405810e+08    1.390100e-08    1.739421e-11    1.236650e-08    1.394161e-01
    1.253087e+01    2.016762e+02    1.017012e+00    1.455099e+08    1.393911e-08    1.796429e-11    1.241811e-08    1.444161e-01
    1.220728e+01    1.994293e+02    1.081891e+00    1.503960e+08    1.397611e-08    1.855177e-11    1.246831e-08    1.494161e-01
