# sky130 nfet_01v8 gm/ID Processed Lookup Table
# Corner: fs
# Temperature: 0C
# W = 2.0 um
# L = 2.52 um (2520 nm)
# Columns: gm/id [1/V]  gm/gds [V/V]  id/W [A/m]  ft [Hz]  Cgg/W [F/m]  Cgd/W [F/m]  Cgs/W [F/m]  Vov [V]
#         gm/id          gm/gds            id/W              ft           Cgg/W           Cgd/W           Cgs/W             Vov
    2.978115e+01    1.653752e+02    2.350056e-09    2.098896e+00    5.306995e-09    4.574530e-14    1.398371e-10   -6.062198e-01
    2.978092e+01    1.653740e+02    2.727388e-09    2.441740e+00    5.294265e-09    4.754410e-14    1.449436e-10   -6.012198e-01
    2.978067e+01    1.653726e+02    3.165301e-09    2.840408e+00    5.281885e-09    4.941588e-14    1.502907e-10   -5.962198e-01
    2.978041e+01    1.653712e+02    3.673522e-09    3.303963e+00    5.269850e-09    5.136385e-14    1.558919e-10   -5.912198e-01
    2.978013e+01    1.653696e+02    4.263337e-09    3.842913e+00    5.258185e-09    5.339150e-14    1.617616e-10   -5.862198e-01
    2.977983e+01    1.653680e+02    4.947845e-09    4.469479e+00    5.246885e-09    5.550225e-14    1.679146e-10   -5.812198e-01
    2.977950e+01    1.653660e+02    5.742245e-09    5.197836e+00    5.235965e-09    5.769995e-14    1.743662e-10   -5.762198e-01
    2.977914e+01    1.653640e+02    6.664180e-09    6.044441e+00    5.225440e-09    5.998850e-14    1.811340e-10   -5.712198e-01
    2.977875e+01    1.653619e+02    7.734120e-09    7.028409e+00    5.215315e-09    6.237205e-14    1.882355e-10   -5.662198e-01
    2.977834e+01    1.653596e+02    8.975820e-09    8.171910e+00    5.205605e-09    6.485485e-14    1.956895e-10   -5.612198e-01
    2.977789e+01    1.653571e+02    1.041686e-08    9.500673e+00    5.196325e-09    6.744145e-14    2.035155e-10   -5.562198e-01
    2.977741e+01    1.653545e+02    1.208921e-08    1.104454e+01    5.187490e-09    7.013665e-14    2.117343e-10   -5.512198e-01
    2.977689e+01    1.653516e+02    1.403002e-08    1.283815e+01    5.179110e-09    7.294540e-14    2.203676e-10   -5.462198e-01
    2.977634e+01    1.653485e+02    1.628236e-08    1.492167e+01    5.171200e-09    7.587295e-14    2.294381e-10   -5.412198e-01
    2.977573e+01    1.653451e+02    1.889623e-08    1.734161e+01    5.163785e-09    7.892480e-14    2.389701e-10   -5.362198e-01
    2.977510e+01    1.653417e+02    2.192965e-08    2.015201e+01    5.156875e-09    8.210670e-14    2.489886e-10   -5.312198e-01
    2.977439e+01    1.653378e+02    2.544994e-08    2.341538e+01    5.150490e-09    8.542470e-14    2.595202e-10   -5.262198e-01
    2.977366e+01    1.653336e+02    2.953522e-08    2.720422e+01    5.144655e-09    8.888515e-14    2.705929e-10   -5.212198e-01
    2.977284e+01    1.653292e+02    3.427615e-08    3.160249e+01    5.139385e-09    9.249465e-14    2.822355e-10   -5.162198e-01
    2.977199e+01    1.653244e+02    3.977792e-08    3.670751e+01    5.134700e-09    9.626025e-14    2.944789e-10   -5.112198e-01
    2.977105e+01    1.653192e+02    4.616258e-08    4.263180e+01    5.130630e-09    1.001892e-13    3.073549e-10   -5.062198e-01
    2.977006e+01    1.653137e+02    5.357175e-08    4.950572e+01    5.127200e-09    1.042892e-13    3.208970e-10   -5.012198e-01
    2.976896e+01    1.653076e+02    6.216985e-08    5.748016e+01    5.124430e-09    1.085682e-13    3.351401e-10   -4.962198e-01
    2.976779e+01    1.653012e+02    7.214745e-08    6.672967e+01    5.122345e-09    1.130349e-13    3.501207e-10   -4.912198e-01
    2.976654e+01    1.652942e+02    8.372585e-08    7.745599e+01    5.120980e-09    1.176978e-13    3.658770e-10   -4.862198e-01
    2.976520e+01    1.652868e+02    9.716175e-08    8.989255e+01    5.120360e-09    1.225663e-13    3.824488e-10   -4.812198e-01
    2.976374e+01    1.652788e+02    1.127530e-07    1.043091e+02    5.120515e-09    1.276502e-13    3.998771e-10   -4.762198e-01
    2.976219e+01    1.652701e+02    1.308451e-07    1.210172e+02    5.121480e-09    1.329595e-13    4.182052e-10   -4.712198e-01
    2.976050e+01    1.652608e+02    1.518391e-07    1.403768e+02    5.123285e-09    1.385049e-13    4.374776e-10   -4.662198e-01
    2.975870e+01    1.652508e+02    1.761999e-07    1.628035e+02    5.125970e-09    1.442976e-13    4.577407e-10   -4.612198e-01
    2.975675e+01    1.652400e+02    2.044673e-07    1.887769e+02    5.129565e-09    1.503492e-13    4.790426e-10   -4.562198e-01
    2.975464e+01    1.652283e+02    2.372671e-07    2.188500e+02    5.134115e-09    1.566720e-13    5.014330e-10   -4.512198e-01
    2.975237e+01    1.652158e+02    2.753255e-07    2.536615e+02    5.139650e-09    1.632787e-13    5.249630e-10   -4.462198e-01
    2.974994e+01    1.652024e+02    3.194848e-07    2.939467e+02    5.146215e-09    1.701827e-13    5.496855e-10   -4.412198e-01
    2.974731e+01    1.651878e+02    3.707222e-07    3.405530e+02    5.153850e-09    1.773981e-13    5.756555e-10   -4.362198e-01
    2.974450e+01    1.651723e+02    4.301709e-07    3.944572e+02    5.162595e-09    1.849395e-13    6.029290e-10   -4.312198e-01
    2.974146e+01    1.651555e+02    4.991455e-07    4.567821e+02    5.172500e-09    1.928220e-13    6.315635e-10   -4.262198e-01
    2.973819e+01    1.651375e+02    5.791705e-07    5.288212e+02    5.183610e-09    2.010617e-13    6.616185e-10   -4.212198e-01
    2.973467e+01    1.651180e+02    6.720140e-07    6.120619e+02    5.195965e-09    2.096754e-13    6.931540e-10   -4.162198e-01
    2.973089e+01    1.650972e+02    7.797265e-07    7.082142e+02    5.209615e-09    2.186803e-13    7.262310e-10   -4.112198e-01
    2.972682e+01    1.650747e+02    9.046855e-07    8.192423e+02    5.224610e-09    2.280948e-13    7.609135e-10   -4.062198e-01
    2.972244e+01    1.650506e+02    1.049649e-06    9.474019e+02    5.241000e-09    2.379378e-13    7.972645e-10   -4.012198e-01
    2.971772e+01    1.650246e+02    1.217812e-06    1.095284e+03    5.258830e-09    2.482291e-13    8.353480e-10   -3.962198e-01
    2.971264e+01    1.649967e+02    1.412883e-06    1.265859e+03    5.278155e-09    2.589894e-13    8.752305e-10   -3.912198e-01
    2.970717e+01    1.649666e+02    1.639157e-06    1.462534e+03    5.299025e-09    2.702400e-13    9.169760e-10   -3.862198e-01
    2.970130e+01    1.649344e+02    1.901614e-06    1.689214e+03    5.321490e-09    2.820036e-13    9.606520e-10   -3.812198e-01
    2.969497e+01    1.648996e+02    2.206029e-06    1.950373e+03    5.345600e-09    2.943033e-13    1.006323e-09   -3.762198e-01
    2.968818e+01    1.648624e+02    2.559091e-06    2.251133e+03    5.371410e-09    3.071634e-13    1.054055e-09   -3.712198e-01
    2.968087e+01    1.648224e+02    2.968554e-06    2.597351e+03    5.398970e-09    3.206094e-13    1.103914e-09   -3.662198e-01
    2.967300e+01    1.647794e+02    3.443402e-06    2.995732e+03    5.428330e-09    3.346672e-13    1.155964e-09   -3.612198e-01
    2.966455e+01    1.647331e+02    3.994043e-06    3.453939e+03    5.459540e-09    3.493642e-13    1.210268e-09   -3.562198e-01
    2.965547e+01    1.646835e+02    4.632535e-06    3.980724e+03    5.492645e-09    3.647288e-13    1.266887e-09   -3.512198e-01
    2.964570e+01    1.646303e+02    5.372845e-06    4.586081e+03    5.527700e-09    3.807903e-13    1.325883e-09   -3.462198e-01
    2.963520e+01    1.645731e+02    6.231145e-06    5.281419e+03    5.564745e-09    3.975792e-13    1.387313e-09   -3.412198e-01
    2.962392e+01    1.645119e+02    7.226165e-06    6.079754e+03    5.603825e-09    4.151272e-13    1.451232e-09   -3.362198e-01
    2.961182e+01    1.644461e+02    8.379580e-06    6.995917e+03    5.644985e-09    4.334670e-13    1.517694e-09   -3.312198e-01
    2.959880e+01    1.643757e+02    9.716495e-06    8.046816e+03    5.688265e-09    4.526325e-13    1.586747e-09   -3.262198e-01
    2.958483e+01    1.643002e+02    1.126595e-05    9.251700e+03    5.733705e-09    4.726589e-13    1.658438e-09   -3.212198e-01
    2.956984e+01    1.642193e+02    1.306154e-05    1.063250e+04    5.781330e-09    4.935825e-13    1.732807e-09   -3.162198e-01
    2.955375e+01    1.641327e+02    1.514213e-05    1.221416e+04    5.831175e-09    5.154410e-13    1.809894e-09   -3.112198e-01
    2.953648e+01    1.640400e+02    1.755269e-05    1.402502e+04    5.883270e-09    5.382725e-13    1.889729e-09   -3.062198e-01
    2.951796e+01    1.639409e+02    2.034518e-05    1.609734e+04    5.937640e-09    5.621180e-13    1.972340e-09   -3.012198e-01
    2.949809e+01    1.638349e+02    2.357966e-05    1.846773e+04    5.994295e-09    5.870185e-13    2.057750e-09   -2.962198e-01
    2.947682e+01    1.637217e+02    2.732556e-05    2.117778e+04    6.053260e-09    6.130170e-13    2.145973e-09   -2.912198e-01
    2.945403e+01    1.636008e+02    3.166304e-05    2.427471e+04    6.114535e-09    6.401565e-13    2.237020e-09   -2.862198e-01
    2.942961e+01    1.634719e+02    3.668470e-05    2.781202e+04    6.178130e-09    6.684830e-13    2.330891e-09   -2.812198e-01
    2.940347e+01    1.633345e+02    4.249742e-05    3.185042e+04    6.244045e-09    6.980430e-13    2.427584e-09   -2.762198e-01
    2.937550e+01    1.631879e+02    4.922450e-05    3.645870e+04    6.312270e-09    7.288845e-13    2.527088e-09   -2.712198e-01
    2.934560e+01    1.630322e+02    5.700820e-05    4.171471e+04    6.382800e-09    7.610565e-13    2.629383e-09   -2.662198e-01
    2.931365e+01    1.628665e+02    6.601250e-05    4.770668e+04    6.455605e-09    7.946105e-13    2.734442e-09   -2.612198e-01
    2.927950e+01    1.626907e+02    7.642640e-05    5.453427e+04    6.530670e-09    8.295980e-13    2.842232e-09   -2.562198e-01
    2.924308e+01    1.625041e+02    8.846750e-05    6.231021e+04    6.607965e-09    8.660730e-13    2.952711e-09   -2.512198e-01
    2.920422e+01    1.623065e+02    1.023865e-04    7.116198e+04    6.687445e-09    9.040900e-13    3.065827e-09   -2.462198e-01
    2.916280e+01    1.620975e+02    1.184716e-04    8.123332e+04    6.769075e-09    9.437055e-13    3.181523e-09   -2.412198e-01
    2.911869e+01    1.618766e+02    1.370544e-04    9.268652e+04    6.852805e-09    9.849775e-13    3.299733e-09   -2.362198e-01
    2.907175e+01    1.616439e+02    1.585160e-04    1.057046e+05    6.938580e-09    1.027965e-12    3.420382e-09   -2.312198e-01
    2.902187e+01    1.613989e+02    1.832939e-04    1.204938e+05    7.026330e-09    1.072729e-12    3.543389e-09   -2.262198e-01
    2.896890e+01    1.611416e+02    2.118904e-04    1.372863e+05    7.116000e-09    1.119331e-12    3.668663e-09   -2.212198e-01
    2.891268e+01    1.608718e+02    2.448815e-04    1.563433e+05    7.207510e-09    1.167835e-12    3.796109e-09   -2.162198e-01
    2.885314e+01    1.605899e+02    2.829274e-04    1.779586e+05    7.300780e-09    1.218307e-12    3.925621e-09   -2.112198e-01
    2.879015e+01    1.602960e+02    3.267842e-04    2.024624e+05    7.395725e-09    1.270813e-12    4.057091e-09   -2.062198e-01
    2.872356e+01    1.599903e+02    3.773171e-04    2.302248e+05    7.492260e-09    1.325421e-12    4.190400e-09   -2.012198e-01
    2.865331e+01    1.596738e+02    4.355152e-04    2.616617e+05    7.590285e-09    1.382201e-12    4.325426e-09   -1.962198e-01
    2.857929e+01    1.593470e+02    5.025085e-04    2.972386e+05    7.689705e-09    1.441224e-12    4.462040e-09   -1.912198e-01
    2.850142e+01    1.590111e+02    5.795870e-04    3.374774e+05    7.790415e-09    1.502564e-12    4.600110e-09   -1.862198e-01
    2.841966e+01    1.586675e+02    6.682220e-04    3.829619e+05    7.892310e-09    1.566295e-12    4.739497e-09   -1.812198e-01
    2.833397e+01    1.583177e+02    7.700890e-04    4.343450e+05    7.995280e-09    1.632493e-12    4.880060e-09   -1.762198e-01
    2.824435e+01    1.579639e+02    8.870965e-04    4.923567e+05    8.099210e-09    1.701235e-12    5.021655e-09   -1.712198e-01
    2.815081e+01    1.576085e+02    1.021414e-03    5.578119e+05    8.203990e-09    1.772602e-12    5.164135e-09   -1.662198e-01
    2.805342e+01    1.572544e+02    1.175508e-03    6.316207e+05    8.309500e-09    1.846675e-12    5.307350e-09   -1.612198e-01
    2.795223e+01    1.569050e+02    1.352177e-03    7.147989e+05    8.415620e-09    1.923537e-12    5.451150e-09   -1.562198e-01
    2.784738e+01    1.565641e+02    1.554597e-03    8.084787e+05    8.522235e-09    2.003273e-12    5.595385e-09   -1.512198e-01
    2.773901e+01    1.562362e+02    1.786366e-03    9.139238e+05    8.629220e-09    2.085970e-12    5.739900e-09   -1.462198e-01
    2.762731e+01    1.559263e+02    2.051561e-03    1.032541e+06    8.736465e-09    2.171716e-12    5.884550e-09   -1.412198e-01
    2.751256e+01    1.556401e+02    2.354790e-03    1.165902e+06    8.843845e-09    2.260603e-12    6.029180e-09   -1.362198e-01
    2.739494e+01    1.553837e+02    2.701269e-03    1.315754e+06    8.951245e-09    2.352722e-12    6.173645e-09   -1.312198e-01
    2.727482e+01    1.551641e+02    3.096885e-03    1.484050e+06    9.058550e-09    2.448168e-12    6.317795e-09   -1.262198e-01
    2.715248e+01    1.549887e+02    3.548291e-03    1.672960e+06    9.165650e-09    2.547039e-12    6.461500e-09   -1.212198e-01
    2.702829e+01    1.548656e+02    4.062988e-03    1.884911e+06    9.272425e-09    2.649434e-12    6.604610e-09   -1.162198e-01
    2.690256e+01    1.548034e+02    4.649437e-03    2.122599e+06    9.378775e-09    2.755454e-12    6.746990e-09   -1.112198e-01
    2.677565e+01    1.548109e+02    5.317175e-03    2.389035e+06    9.484590e-09    2.865203e-12    6.888515e-09   -1.062198e-01
    2.664787e+01    1.548979e+02    6.076940e-03    2.687566e+06    9.589775e-09    2.978787e-12    7.029060e-09   -1.012198e-01
    2.651952e+01    1.550738e+02    6.940820e-03    3.021923e+06    9.694225e-09    3.096315e-12    7.168495e-09   -9.621980e-02
    2.639079e+01    1.553484e+02    7.922415e-03    3.396248e+06    9.797850e-09    3.217898e-12    7.306715e-09   -9.121980e-02
    2.626185e+01    1.557315e+02    9.037005e-03    3.815137e+06    9.900560e-09    3.343651e-12    7.443600e-09   -8.621980e-02
    2.613272e+01    1.562324e+02    1.030176e-02    4.283684e+06    1.000227e-08    3.473689e-12    7.579055e-09   -8.121980e-02
    2.600332e+01    1.568600e+02    1.173592e-02    4.807508e+06    1.010290e-08    3.608134e-12    7.712980e-09   -7.621980e-02
    2.587338e+01    1.576224e+02    1.336109e-02    5.392793e+06    1.020237e-08    3.747108e-12    7.845285e-09   -7.121980e-02
    2.574253e+01    1.585268e+02    1.520138e-02    6.046315e+06    1.030063e-08    3.890737e-12    7.975880e-09   -6.621980e-02
    2.561018e+01    1.595787e+02    1.728379e-02    6.775461e+06    1.039759e-08    4.039151e-12    8.104690e-09   -6.121980e-02
    2.547557e+01    1.607826e+02    1.963836e-02    7.588242e+06    1.049321e-08    4.192481e-12    8.231645e-09   -5.621980e-02
    2.533775e+01    1.621404e+02    2.229851e-02    8.493252e+06    1.058742e-08    4.350865e-12    8.356675e-09   -5.121980e-02
    2.519564e+01    1.636527e+02    2.530129e-02    9.499704e+06    1.068017e-08    4.514441e-12    8.479725e-09   -4.621980e-02
    2.504796e+01    1.653170e+02    2.868765e-02    1.061731e+07    1.077142e-08    4.683355e-12    8.600740e-09   -4.121980e-02
    2.489332e+01    1.671287e+02    3.250270e-02    1.185625e+07    1.086113e-08    4.857752e-12    8.719680e-09   -3.621980e-02
    2.473024e+01    1.690804e+02    3.679587e-02    1.322704e+07    1.094927e-08    5.037785e-12    8.836495e-09   -3.121980e-02
    2.455726e+01    1.711618e+02    4.162118e-02    1.474045e+07    1.103579e-08    5.223615e-12    8.951155e-09   -2.621980e-02
    2.437286e+01    1.733601e+02    4.703723e-02    1.640728e+07    1.112069e-08    5.415390e-12    9.063630e-09   -2.121980e-02
    2.417564e+01    1.756599e+02    5.310740e-02    1.823823e+07    1.120393e-08    5.613290e-12    9.173900e-09   -1.621980e-02
    2.396427e+01    1.780432e+02    5.989975e-02    2.024364e+07    1.128550e-08    5.817475e-12    9.281945e-09   -1.121980e-02
    2.373765e+01    1.804897e+02    6.748690e-02    2.243330e+07    1.136539e-08    6.028120e-12    9.387755e-09   -6.219800e-03
    2.349485e+01    1.829772e+02    7.594595e-02    2.481623e+07    1.144357e-08    6.245410e-12    9.491320e-09   -1.219800e-03
    2.323521e+01    1.854820e+02    8.535800e-02    2.740036e+07    1.152006e-08    6.469530e-12    9.592640e-09    3.780200e-03
    2.295835e+01    1.879793e+02    9.580790e-02    3.019237e+07    1.159485e-08    6.700665e-12    9.691715e-09    8.780200e-03
    2.266418e+01    1.904435e+02    1.073838e-01    3.319747e+07    1.166793e-08    6.939015e-12    9.788555e-09    1.378020e-02
    2.235292e+01    1.928491e+02    1.201761e-01    3.641916e+07    1.173931e-08    7.184785e-12    9.883160e-09    1.878020e-02
    2.202505e+01    1.951708e+02    1.342778e-01    3.985910e+07    1.180901e-08    7.438185e-12    9.975550e-09    2.378020e-02
    2.168137e+01    1.973841e+02    1.497823e-01    4.351704e+07    1.187703e-08    7.699425e-12    1.006574e-08    2.878020e-02
    2.132286e+01    1.994660e+02    1.667840e-01    4.739061e+07    1.194339e-08    7.968735e-12    1.015375e-08    3.378020e-02
    2.095077e+01    2.013951e+02    1.853764e-01    5.147554e+07    1.200808e-08    8.246335e-12    1.023960e-08    3.878020e-02
    2.056650e+01    2.031521e+02    2.056523e-01    5.576548e+07    1.207115e-08    8.532465e-12    1.032333e-08    4.378020e-02
    2.017161e+01    2.047200e+02    2.277016e-01    6.025219e+07    1.213260e-08    8.827375e-12    1.040495e-08    4.878020e-02
    1.976771e+01    2.060845e+02    2.516119e-01    6.492567e+07    1.219246e-08    9.131310e-12    1.048449e-08    5.378020e-02
    1.935650e+01    2.072340e+02    2.774667e-01    6.977431e+07    1.225074e-08    9.444530e-12    1.056200e-08    5.878020e-02
    1.893972e+01    2.081600e+02    3.053454e-01    7.478526e+07    1.230748e-08    9.767310e-12    1.063749e-08    6.378020e-02
    1.851903e+01    2.088561e+02    3.353221e-01    7.994431e+07    1.236269e-08    1.009992e-11    1.071101e-08    6.878020e-02
    1.809612e+01    2.093195e+02    3.674657e-01    8.523667e+07    1.241641e-08    1.044265e-11    1.078259e-08    7.378020e-02
    1.767257e+01    2.095494e+02    4.018391e-01    9.064672e+07    1.246867e-08    1.079579e-11    1.085227e-08    7.878020e-02
    1.724987e+01    2.095477e+02    4.384989e-01    9.615866e+07    1.251948e-08    1.115965e-11    1.092009e-08    8.378020e-02
    1.682943e+01    2.093184e+02    4.774953e-01    1.017565e+08    1.256888e-08    1.153455e-11    1.098609e-08    8.878020e-02
    1.641255e+01    2.088678e+02    5.188720e-01    1.074246e+08    1.261690e-08    1.192081e-11    1.105030e-08    9.378020e-02
    1.600037e+01    2.082035e+02    5.626670e-01    1.131476e+08    1.266358e-08    1.231877e-11    1.111278e-08    9.878020e-02
    1.559397e+01    2.073350e+02    6.089100e-01    1.189107e+08    1.270893e-08    1.272877e-11    1.117355e-08    1.037802e-01
    1.519422e+01    2.062725e+02    6.576275e-01    1.246999e+08    1.275300e-08    1.315119e-11    1.123266e-08    1.087802e-01
    1.480196e+01    2.050276e+02    7.088370e-01    1.305023e+08    1.279580e-08    1.358638e-11    1.129015e-08    1.137802e-01
    1.441784e+01    2.036125e+02    7.625525e-01    1.363055e+08    1.283738e-08    1.403473e-11    1.134606e-08    1.187802e-01
    1.404242e+01    2.020391e+02    8.187825e-01    1.420986e+08    1.287778e-08    1.449665e-11    1.140043e-08    1.237802e-01
    1.367618e+01    2.003209e+02    8.775300e-01    1.478717e+08    1.291700e-08    1.497254e-11    1.145331e-08    1.287802e-01
    1.331946e+01    1.984702e+02    9.387940e-01    1.536160e+08    1.295510e-08    1.546282e-11    1.150472e-08    1.337802e-01
    1.297254e+01    1.965000e+02    1.002570e+00    1.593239e+08    1.299209e-08    1.596795e-11    1.155473e-08    1.387802e-01
    1.263559e+01    1.944225e+02    1.068850e+00    1.649887e+08    1.302801e-08    1.648836e-11    1.160335e-08    1.437802e-01
    1.230873e+01    1.922498e+02    1.137621e+00    1.706050e+08    1.306289e-08    1.702455e-11    1.165064e-08    1.487802e-01
