# sky130 nfet_01v8 gm/ID Processed Lookup Table
# Corner: fs
# Temperature: 0C
# W = 2.0 um
# L = 4.68 um (4680 nm)
# Columns: gm/id [1/V]  gm/gds [V/V]  id/W [A/m]  ft [Hz]  Cgg/W [F/m]  Cgd/W [F/m]  Cgs/W [F/m]  Vov [V]
#         gm/id          gm/gds            id/W              ft           Cgg/W           Cgd/W           Cgs/W             Vov
    3.062519e+01    2.307595e+02    1.171747e-09    5.894071e-01    9.689860e-09    8.346515e-14    2.454471e-10   -5.980880e-01
    3.062496e+01    2.307577e+02    1.365637e-09    6.886129e-01    9.666200e-09    8.682755e-14    2.544789e-10   -5.930880e-01
    3.062469e+01    2.307557e+02    1.591608e-09    8.044671e-01    9.643170e-09    9.032920e-14    2.639427e-10   -5.880880e-01
    3.062439e+01    2.307534e+02    1.854969e-09    9.397531e-01    9.620785e-09    9.397645e-14    2.738637e-10   -5.830880e-01
    3.062410e+01    2.307512e+02    2.161904e-09    1.097719e+00    9.599060e-09    9.777595e-14    2.842686e-10   -5.780880e-01
    3.062376e+01    2.307486e+02    2.519622e-09    1.282150e+00    9.578010e-09    1.017346e-13    2.951855e-10   -5.730880e-01
    3.062341e+01    2.307460e+02    2.936525e-09    1.497462e+00    9.557660e-09    1.058598e-13    3.066442e-10   -5.680880e-01
    3.062302e+01    2.307430e+02    3.422403e-09    1.748803e+00    9.538025e-09    1.101593e-13    3.186746e-10   -5.630880e-01
    3.062260e+01    2.307400e+02    3.988667e-09    2.042174e+00    9.519130e-09    1.146410e-13    3.313117e-10   -5.580880e-01
    3.062214e+01    2.307366e+02    4.648613e-09    2.384570e+00    9.500995e-09    1.193136e-13    3.445907e-10   -5.530880e-01
    3.062164e+01    2.307328e+02    5.417740e-09    2.784141e+00    9.483650e-09    1.241859e-13    3.585489e-10   -5.480880e-01
    3.062113e+01    2.307288e+02    6.314100e-09    3.250385e+00    9.467120e-09    1.292675e-13    3.732255e-10   -5.430880e-01
    3.062055e+01    2.307245e+02    7.358745e-09    3.794368e+00    9.451430e-09    1.345679e-13    3.886621e-10   -5.380880e-01
    3.061992e+01    2.307198e+02    8.576200e-09    4.428972e+00    9.436615e-09    1.400978e-13    4.049022e-10   -5.330880e-01
    3.061926e+01    2.307148e+02    9.995040e-09    5.169208e+00    9.422700e-09    1.458679e-13    4.219920e-10   -5.280880e-01
    3.061855e+01    2.307094e+02    1.164857e-08    6.032540e+00    9.409730e-09    1.518898e-13    4.399800e-10   -5.230880e-01
    3.061778e+01    2.307036e+02    1.357560e-08    7.039303e+00    9.397735e-09    1.581753e-13    4.589172e-10   -5.180880e-01
    3.061694e+01    2.306973e+02    1.582136e-08    8.213160e+00    9.386755e-09    1.647372e-13    4.788574e-10   -5.130880e-01
    3.061605e+01    2.306906e+02    1.843855e-08    9.581648e+00    9.376825e-09    1.715888e-13    4.998568e-10   -5.080880e-01
    3.061507e+01    2.306832e+02    2.148857e-08    1.117677e+01    9.367995e-09    1.787439e-13    5.219750e-10   -5.030880e-01
    3.061402e+01    2.306753e+02    2.504299e-08    1.303576e+01    9.360310e-09    1.862172e-13    5.452735e-10   -4.980880e-01
    3.061289e+01    2.306668e+02    2.918519e-08    1.520191e+01    9.353815e-09    1.940241e-13    5.698185e-10   -4.930880e-01
    3.061166e+01    2.306576e+02    3.401231e-08    1.772551e+01    9.348555e-09    2.021807e-13    5.956775e-10   -4.880880e-01
    3.061035e+01    2.306478e+02    3.963759e-08    2.066500e+01    9.344590e-09    2.107041e-13    6.229225e-10   -4.830880e-01
    3.060893e+01    2.306371e+02    4.619289e-08    2.408822e+01    9.341975e-09    2.196120e-13    6.516275e-10   -4.780880e-01
    3.060739e+01    2.306255e+02    5.383195e-08    2.807399e+01    9.340765e-09    2.289230e-13    6.818715e-10   -4.730880e-01
    3.060574e+01    2.306131e+02    6.273375e-08    3.271373e+01    9.341020e-09    2.386570e-13    7.137350e-10   -4.680880e-01
    3.060395e+01    2.305996e+02    7.310700e-08    3.811354e+01    9.342805e-09    2.488343e-13    7.473035e-10   -4.630880e-01
    3.060203e+01    2.305852e+02    8.519470e-08    4.439646e+01    9.346190e-09    2.594766e-13    7.826650e-10   -4.580880e-01
    3.059995e+01    2.305696e+02    9.928000e-08    5.170513e+01    9.351235e-09    2.706066e-13    8.199110e-10   -4.530880e-01
    3.059771e+01    2.305527e+02    1.156928e-07    6.020487e+01    9.358015e-09    2.822480e-13    8.591370e-10   -4.480880e-01
    3.059529e+01    2.305346e+02    1.348174e-07    7.008710e+01    9.366610e-09    2.944257e-13    9.004420e-10   -4.430880e-01
    3.059269e+01    2.305150e+02    1.571013e-07    8.157352e+01    9.377095e-09    3.071658e-13    9.439275e-10   -4.380880e-01
    3.058988e+01    2.304940e+02    1.830661e-07    9.492078e+01    9.389545e-09    3.204958e-13    9.897000e-10   -4.330880e-01
    3.058683e+01    2.304711e+02    2.133191e-07    1.104256e+02    9.404045e-09    3.344442e-13    1.037868e-09   -4.280880e-01
    3.058355e+01    2.304466e+02    2.485677e-07    1.284311e+02    9.420685e-09    3.490411e-13    1.088544e-09   -4.230880e-01
    3.058002e+01    2.304201e+02    2.896359e-07    1.493341e+02    9.439550e-09    3.643178e-13    1.141841e-09   -4.180880e-01
    3.057622e+01    2.303916e+02    3.374830e-07    1.735926e+02    9.460730e-09    3.803072e-13    1.197881e-09   -4.130880e-01
    3.057210e+01    2.303609e+02    3.932267e-07    2.017354e+02    9.484320e-09    3.970439e-13    1.256783e-09   -4.080880e-01
    3.056768e+01    2.303278e+02    4.581679e-07    2.343732e+02    9.510410e-09    4.145636e-13    1.318669e-09   -4.030880e-01
    3.056289e+01    2.302921e+02    5.338220e-07    2.722097e+02    9.539100e-09    4.329041e-13    1.383668e-09   -3.980880e-01
    3.055776e+01    2.302536e+02    6.219525e-07    3.160565e+02    9.570490e-09    4.521046e-13    1.451905e-09   -3.930880e-01
    3.055219e+01    2.302120e+02    7.246140e-07    3.668481e+02    9.604680e-09    4.722060e-13    1.523511e-09   -3.880880e-01
    3.054620e+01    2.301674e+02    8.441965e-07    4.256612e+02    9.641770e-09    4.932513e-13    1.598616e-09   -3.830880e-01
    3.053974e+01    2.301192e+02    9.834830e-07    4.937346e+02    9.681860e-09    5.152850e-13    1.677353e-09   -3.780880e-01
    3.053277e+01    2.300673e+02    1.145713e-06    5.724924e+02    9.725060e-09    5.383540e-13    1.759851e-09   -3.730880e-01
    3.052527e+01    2.300115e+02    1.334654e-06    6.635729e+02    9.771465e-09    5.625065e-13    1.846246e-09   -3.680880e-01
    3.051719e+01    2.299514e+02    1.554694e-06    7.688573e+02    9.821180e-09    5.877935e-13    1.936666e-09   -3.630880e-01
    3.050848e+01    2.298867e+02    1.810934e-06    8.905055e+02    9.874310e-09    6.142680e-13    2.031244e-09   -3.580880e-01
    3.049908e+01    2.298170e+02    2.109312e-06    1.030996e+03    9.930950e-09    6.419840e-13    2.130106e-09   -3.530880e-01
    3.048899e+01    2.297421e+02    2.456733e-06    1.193172e+03    9.991210e-09    6.709990e-13    2.233378e-09   -3.480880e-01
    3.047810e+01    2.296616e+02    2.861227e-06    1.380291e+03    1.005517e-08    7.013720e-13    2.341185e-09   -3.430880e-01
    3.046637e+01    2.295750e+02    3.332131e-06    1.596086e+03    1.012294e-08    7.331655e-13    2.453643e-09   -3.380880e-01
    3.045375e+01    2.294818e+02    3.880301e-06    1.844828e+03    1.019460e-08    7.664430e-13    2.570868e-09   -3.330880e-01
    3.044015e+01    2.293818e+02    4.518355e-06    2.131406e+03    1.027025e-08    8.012705e-13    2.692967e-09   -3.280880e-01
    3.042553e+01    2.292744e+02    5.260955e-06    2.461413e+03    1.034996e-08    8.377175e-13    2.820043e-09   -3.230880e-01
    3.040979e+01    2.291590e+02    6.125140e-06    2.841233e+03    1.043381e-08    8.758555e-13    2.952191e-09   -3.180880e-01
    3.039287e+01    2.290351e+02    7.130695e-06    3.278168e+03    1.052186e-08    9.157585e-13    3.089498e-09   -3.130880e-01
    3.037469e+01    2.289023e+02    8.300600e-06    3.780545e+03    1.061420e-08    9.575025e-13    3.232044e-09   -3.080880e-01
    3.035513e+01    2.287600e+02    9.661540e-06    4.357872e+03    1.071086e-08    1.001167e-12    3.379895e-09   -3.030880e-01
    3.033411e+01    2.286074e+02    1.124448e-05    5.020980e+03    1.081190e-08    1.046835e-12    3.533111e-09   -2.980880e-01
    3.031153e+01    2.284440e+02    1.308533e-05    5.782220e+03    1.091737e-08    1.094589e-12    3.691738e-09   -2.930880e-01
    3.028729e+01    2.282691e+02    1.522577e-05    6.655662e+03    1.102728e-08    1.144518e-12    3.855813e-09   -2.880880e-01
    3.026127e+01    2.280821e+02    1.771411e-05    7.657309e+03    1.114168e-08    1.196713e-12    4.025355e-09   -2.830880e-01
    3.023336e+01    2.278823e+02    2.060635e-05    8.805375e+03    1.126055e-08    1.251266e-12    4.200374e-09   -2.780880e-01
    3.020344e+01    2.276691e+02    2.396733e-05    1.012057e+04    1.138391e-08    1.308273e-12    4.380865e-09   -2.730880e-01
    3.017137e+01    2.274416e+02    2.787220e-05    1.162640e+04    1.151175e-08    1.367833e-12    4.566805e-09   -2.680880e-01
    3.013700e+01    2.271991e+02    3.240789e-05    1.334958e+04    1.164402e-08    1.430048e-12    4.758162e-09   -2.630880e-01
    3.010024e+01    2.269411e+02    3.767497e-05    1.532043e+04    1.178073e-08    1.495023e-12    4.954883e-09   -2.580880e-01
    3.006090e+01    2.266668e+02    4.378975e-05    1.757330e+04    1.192179e-08    1.562866e-12    5.156900e-09   -2.530880e-01
    3.001885e+01    2.263754e+02    5.088665e-05    2.014713e+04    1.206716e-08    1.633687e-12    5.364130e-09   -2.480880e-01
    2.997394e+01    2.260666e+02    5.912085e-05    2.308601e+04    1.221676e-08    1.707600e-12    5.576470e-09   -2.430880e-01
    2.992601e+01    2.257396e+02    6.867155e-05    2.643982e+04    1.237050e-08    1.784723e-12    5.793810e-09   -2.380880e-01
    2.987491e+01    2.253940e+02    7.974535e-05    3.026497e+04    1.252830e-08    1.865176e-12    6.016010e-09   -2.330880e-01
    2.982048e+01    2.250296e+02    9.258050e-05    3.462516e+04    1.269002e-08    1.949081e-12    6.242930e-09   -2.280880e-01
    2.976256e+01    2.246458e+02    1.074513e-04    3.959230e+04    1.285557e-08    2.036566e-12    6.474395e-09   -2.230880e-01
    2.970098e+01    2.242428e+02    1.246735e-04    4.524751e+04    1.302478e-08    2.127760e-12    6.710225e-09   -2.180880e-01
    2.963562e+01    2.238205e+02    1.446101e-04    5.168216e+04    1.319751e-08    2.222796e-12    6.950235e-09   -2.130880e-01
    2.956631e+01    2.233791e+02    1.676784e-04    5.899911e+04    1.337362e-08    2.321810e-12    7.194205e-09   -2.080880e-01
    2.949293e+01    2.229193e+02    1.943571e-04    6.731410e+04    1.355291e-08    2.424942e-12    7.441915e-09   -2.030880e-01
    2.941537e+01    2.224421e+02    2.251957e-04    7.675722e+04    1.373521e-08    2.532334e-12    7.693130e-09   -1.980880e-01
    2.933348e+01    2.219482e+02    2.608235e-04    8.747431e+04    1.392034e-08    2.644133e-12    7.947600e-09   -1.930880e-01
    2.924719e+01    2.214395e+02    3.019608e-04    9.962923e+04    1.410809e-08    2.760489e-12    8.205070e-09   -1.880880e-01
    2.915644e+01    2.209180e+02    3.494317e-04    1.134056e+05    1.429824e-08    2.881555e-12    8.465265e-09   -1.830880e-01
    2.906116e+01    2.203861e+02    4.041775e-04    1.290086e+05    1.449060e-08    3.007487e-12    8.727915e-09   -1.780880e-01
    2.896135e+01    2.198470e+02    4.672723e-04    1.466686e+05    1.468493e-08    3.138448e-12    8.992730e-09   -1.730880e-01
    2.885702e+01    2.193043e+02    5.399410e-04    1.666424e+05    1.488101e-08    3.274600e-12    9.259425e-09   -1.680880e-01
    2.874822e+01    2.187626e+02    6.235785e-04    1.892173e+05    1.507862e-08    3.416112e-12    9.527700e-09   -1.630880e-01
    2.863501e+01    2.182267e+02    7.197725e-04    2.147141e+05    1.527750e-08    3.563155e-12    9.797260e-09   -1.580880e-01
    2.851758e+01    2.177031e+02    8.303260e-04    2.434907e+05    1.547743e-08    3.715907e-12    1.006781e-08   -1.530880e-01
    2.839606e+01    2.171982e+02    9.572875e-04    2.759464e+05    1.567819e-08    3.874547e-12    1.033903e-08   -1.480880e-01
    2.827066e+01    2.167200e+02    1.102982e-03    3.125266e+05    1.587952e-08    4.039259e-12    1.061064e-08   -1.430880e-01
    2.814164e+01    2.162770e+02    1.270041e-03    3.537280e+05    1.608118e-08    4.210232e-12    1.088233e-08   -1.380880e-01
    2.800932e+01    2.158790e+02    1.461448e-03    4.001039e+05    1.628296e-08    4.387660e-12    1.115382e-08   -1.330880e-01
    2.787401e+01    2.155366e+02    1.680578e-03    4.522717e+05    1.648461e-08    4.571738e-12    1.142480e-08   -1.280880e-01
    2.773608e+01    2.152611e+02    1.931243e-03    5.109190e+05    1.668592e-08    4.762672e-12    1.169499e-08   -1.230880e-01
    2.759593e+01    2.150653e+02    2.217753e-03    5.768127e+05    1.688665e-08    4.960667e-12    1.196413e-08   -1.180880e-01
    2.745390e+01    2.149621e+02    2.544972e-03    6.508061e+05    1.708660e-08    5.165935e-12    1.223192e-08   -1.130880e-01
    2.731040e+01    2.149655e+02    2.918386e-03    7.338510e+05    1.728555e-08    5.378700e-12    1.249812e-08   -1.080880e-01
    2.716577e+01    2.150900e+02    3.344181e-03    8.270059e+05    1.748329e-08    5.599175e-12    1.276248e-08   -1.030880e-01
    2.702031e+01    2.153503e+02    3.829320e-03    9.314475e+05    1.767965e-08    5.827595e-12    1.302474e-08   -9.808800e-02
    2.687424e+01    2.157611e+02    4.381643e-03    1.048483e+06    1.787442e-08    6.064190e-12    1.328468e-08   -9.308800e-02
    2.672770e+01    2.163372e+02    5.009965e-03    1.179559e+06    1.806745e-08    6.309205e-12    1.354208e-08   -8.808800e-02
    2.658070e+01    2.170926e+02    5.724185e-03    1.326277e+06    1.825854e-08    6.562890e-12    1.379674e-08   -8.308800e-02
    2.643309e+01    2.180407e+02    6.535410e-03    1.490398e+06    1.844755e-08    6.825490e-12    1.404846e-08   -7.808800e-02
    2.628459e+01    2.191931e+02    7.456080e-03    1.673856e+06    1.863433e-08    7.097270e-12    1.429705e-08   -7.308800e-02
    2.613471e+01    2.205603e+02    8.500105e-03    1.878762e+06    1.881873e-08    7.378500e-12    1.454235e-08   -6.808800e-02
    2.598276e+01    2.221505e+02    9.683015e-03    2.107405e+06    1.900064e-08    7.669450e-12    1.478421e-08   -6.308800e-02
    2.582791e+01    2.239694e+02    1.102209e-02    2.362253e+06    1.917992e-08    7.970400e-12    1.502248e-08   -5.808800e-02
    2.566909e+01    2.260199e+02    1.253651e-02    2.645946e+06    1.935648e-08    8.281650e-12    1.525703e-08   -5.308800e-02
    2.550509e+01    2.283017e+02    1.424753e-02    2.961280e+06    1.953022e-08    8.603485e-12    1.548775e-08   -4.808800e-02
    2.533457e+01    2.308109e+02    1.617854e-02    3.311188e+06    1.970104e-08    8.936225e-12    1.571454e-08   -4.308800e-02
    2.515608e+01    2.335400e+02    1.835526e-02    3.698709e+06    1.986888e-08    9.280180e-12    1.593730e-08   -3.808800e-02
    2.496812e+01    2.364776e+02    2.080577e-02    4.126954e+06    2.003365e-08    9.635675e-12    1.615596e-08   -3.308800e-02
    2.476918e+01    2.396084e+02    2.356067e-02    4.599056e+06    2.019532e-08    1.000304e-11    1.637045e-08   -2.808800e-02
    2.455785e+01    2.429135e+02    2.665301e-02    5.118123e+06    2.035382e-08    1.038264e-11    1.658073e-08   -2.308800e-02
    2.433278e+01    2.463702e+02    3.011835e-02    5.687167e+06    2.050912e-08    1.077481e-11    1.678674e-08   -1.808800e-02
    2.409283e+01    2.499524e+02    3.399471e-02    6.309052e+06    2.066118e-08    1.117992e-11    1.698845e-08   -1.308800e-02
    2.383704e+01    2.536313e+02    3.832247e-02    6.986412e+06    2.080998e-08    1.159835e-11    1.718585e-08   -8.088000e-03
    2.356474e+01    2.573755e+02    4.314419e-02    7.721593e+06    2.095551e-08    1.203049e-11    1.737893e-08   -3.088000e-03
    2.327554e+01    2.611521e+02    4.850445e-02    8.516578e+06    2.109775e-08    1.247674e-11    1.756768e-08    1.912000e-03
    2.296932e+01    2.649262e+02    5.444955e-02    9.372924e+06    2.123672e-08    1.293752e-11    1.775210e-08    6.912000e-03
    2.264629e+01    2.686629e+02    6.102725e-02    1.029171e+07    2.137241e-08    1.341325e-11    1.793222e-08    1.191200e-02
    2.230697e+01    2.723277e+02    6.828640e-02    1.127350e+07    2.150483e-08    1.390438e-11    1.810805e-08    1.691200e-02
    2.195215e+01    2.758860e+02    7.627645e-02    1.231830e+07    2.163401e-08    1.441137e-11    1.827962e-08    2.191200e-02
    2.158283e+01    2.793050e+02    8.504730e-02    1.342552e+07    2.175996e-08    1.493467e-11    1.844698e-08    2.691200e-02
    2.120029e+01    2.825538e+02    9.464855e-02    1.459401e+07    2.188272e-08    1.547479e-11    1.861016e-08    3.191200e-02
    2.080595e+01    2.856041e+02    1.051293e-01    1.582207e+07    2.200231e-08    1.603221e-11    1.876922e-08    3.691200e-02
    2.040139e+01    2.884307e+02    1.165375e-01    1.710742e+07    2.211878e-08    1.660747e-11    1.892420e-08    4.191200e-02
    1.998826e+01    2.910109e+02    1.289198e-01    1.844731e+07    2.223216e-08    1.720109e-11    1.907516e-08    4.691200e-02
    1.956828e+01    2.933262e+02    1.423209e-01    1.983853e+07    2.234251e-08    1.781364e-11    1.922216e-08    5.191200e-02
    1.914318e+01    2.953610e+02    1.567833e-01    2.127749e+07    2.244986e-08    1.844569e-11    1.936528e-08    5.691200e-02
    1.871467e+01    2.971038e+02    1.723471e-01    2.276028e+07    2.255427e-08    1.909782e-11    1.950457e-08    6.191200e-02
    1.828443e+01    2.985468e+02    1.890495e-01    2.428274e+07    2.265579e-08    1.977066e-11    1.964011e-08    6.691200e-02
    1.785403e+01    2.996850e+02    2.069246e-01    2.584056e+07    2.275447e-08    2.046483e-11    1.977198e-08    7.191200e-02
    1.742500e+01    3.005175e+02    2.260037e-01    2.742932e+07    2.285037e-08    2.118100e-11    1.990024e-08    7.691200e-02
    1.699870e+01    3.010457e+02    2.463144e-01    2.904458e+07    2.294355e-08    2.191984e-11    2.002498e-08    8.191200e-02
    1.657643e+01    3.012743e+02    2.678816e-01    3.068197e+07    2.303407e-08    2.268206e-11    2.014628e-08    8.691200e-02
    1.615932e+01    3.012100e+02    2.907262e-01    3.233719e+07    2.312199e-08    2.346838e-11    2.026421e-08    9.191200e-02
    1.574841e+01    3.008621e+02    3.148664e-01    3.400615e+07    2.320736e-08    2.427956e-11    2.037885e-08    9.691200e-02
    1.534459e+01    3.002412e+02    3.403171e-01    3.568494e+07    2.329025e-08    2.511638e-11    2.049028e-08    1.019120e-01
    1.494861e+01    2.993595e+02    3.670901e-01    3.736985e+07    2.337072e-08    2.597965e-11    2.059860e-08    1.069120e-01
    1.456115e+01    2.982307e+02    3.951945e-01    3.905758e+07    2.344884e-08    2.687019e-11    2.070388e-08    1.119120e-01
    1.418271e+01    2.968686e+02    4.246367e-01    4.074494e+07    2.352465e-08    2.778888e-11    2.080619e-08    1.169120e-01
    1.381375e+01    2.952882e+02    4.554204e-01    4.242918e+07    2.359824e-08    2.873662e-11    2.090562e-08    1.219120e-01
    1.345460e+01    2.935047e+02    4.875475e-01    4.410783e+07    2.366966e-08    2.971433e-11    2.100225e-08    1.269120e-01
    1.310548e+01    2.915332e+02    5.210175e-01    4.577871e+07    2.373897e-08    3.072298e-11    2.109615e-08    1.319120e-01
    1.276655e+01    2.893885e+02    5.558285e-01    4.743994e+07    2.380623e-08    3.176356e-11    2.118742e-08    1.369120e-01
    1.243792e+01    2.870857e+02    5.919760e-01    4.908993e+07    2.387149e-08    3.283711e-11    2.127611e-08    1.419120e-01
    1.211958e+01    2.846390e+02    6.294560e-01    5.072741e+07    2.393483e-08    3.394470e-11    2.136232e-08    1.469120e-01
    1.181150e+01    2.820623e+02    6.682615e-01    5.235130e+07    2.399629e-08    3.508744e-11    2.144611e-08    1.519120e-01
    1.151360e+01    2.793687e+02    7.083850e-01    5.396081e+07    2.405594e-08    3.626649e-11    2.152755e-08    1.569120e-01
