# sky130 nfet_01v8 gm/ID Processed Lookup Table
# Corner: fs
# Temperature: 0C
# W = 2.0 um
# L = 3.24 um (3240 nm)
# Columns: gm/id [1/V]  gm/gds [V/V]  id/W [A/m]  ft [Hz]  Cgg/W [F/m]  Cgd/W [F/m]  Cgs/W [F/m]  Vov [V]
#         gm/id          gm/gds            id/W              ft           Cgg/W           Cgd/W           Cgs/W             Vov
    3.037675e+01    1.897356e+02    1.523274e-09    1.088250e+00    6.767230e-09    5.611010e-14    1.691598e-10   -6.041097e-01
    3.037652e+01    1.897341e+02    1.773128e-09    1.269861e+00    6.750595e-09    5.835380e-14    1.753305e-10   -5.991097e-01
    3.037629e+01    1.897328e+02    2.063962e-09    1.481693e+00    6.734390e-09    6.068970e-14    1.817929e-10   -5.941097e-01
    3.037602e+01    1.897310e+02    2.402496e-09    1.728753e+00    6.718630e-09    6.312185e-14    1.885639e-10   -5.891097e-01
    3.037576e+01    1.897294e+02    2.796553e-09    2.016881e+00    6.703320e-09    6.565465e-14    1.956610e-10   -5.841097e-01
    3.037544e+01    1.897274e+02    3.255238e-09    2.352874e+00    6.688470e-09    6.829265e-14    2.031032e-10   -5.791097e-01
    3.037512e+01    1.897254e+02    3.789151e-09    2.744652e+00    6.674100e-09    7.104070e-14    2.109101e-10   -5.741097e-01
    3.037477e+01    1.897233e+02    4.410626e-09    3.201438e+00    6.660215e-09    7.390375e-14    2.191016e-10   -5.691097e-01
    3.037437e+01    1.897209e+02    5.134025e-09    3.733968e+00    6.646835e-09    7.688710e-14    2.277012e-10   -5.641097e-01
    3.037397e+01    1.897183e+02    5.976055e-09    4.354742e+00    6.633975e-09    7.999640e-14    2.367320e-10   -5.591097e-01
    3.037354e+01    1.897155e+02    6.956170e-09    5.078313e+00    6.621650e-09    8.323735e-14    2.462189e-10   -5.541097e-01
    3.037306e+01    1.897126e+02    8.097015e-09    5.921614e+00    6.609880e-09    8.661615e-14    2.561879e-10   -5.491097e-01
    3.037253e+01    1.897093e+02    9.424945e-09    6.904352e+00    6.598680e-09    9.013920e-14    2.666665e-10   -5.441097e-01
    3.037198e+01    1.897059e+02    1.097063e-08    8.049454e+00    6.588070e-09    9.381330e-14    2.776836e-10   -5.391097e-01
    3.037139e+01    1.897021e+02    1.276976e-08    9.383578e+00    6.578075e-09    9.764550e-14    2.892698e-10   -5.341097e-01
    3.037074e+01    1.896981e+02    1.486389e-08    1.093773e+01    6.568720e-09    1.016433e-13    3.014571e-10   -5.291097e-01
    3.037005e+01    1.896938e+02    1.730139e-08    1.274798e+01    6.560020e-09    1.058144e-13    3.142794e-10   -5.241097e-01
    3.036929e+01    1.896891e+02    2.013853e-08    1.485622e+01    6.552005e-09    1.101673e-13    3.277722e-10   -5.191097e-01
    3.036848e+01    1.896840e+02    2.344084e-08    1.731117e+01    6.544700e-09    1.147103e-13    3.419727e-10   -5.141097e-01
    3.036761e+01    1.896786e+02    2.728453e-08    2.016942e+01    6.538135e-09    1.194525e-13    3.569203e-10   -5.091097e-01
    3.036668e+01    1.896727e+02    3.175835e-08    2.349668e+01    6.532340e-09    1.244037e-13    3.726559e-10   -5.041097e-01
    3.036566e+01    1.896664e+02    3.696556e-08    2.736929e+01    6.527345e-09    1.295737e-13    3.892227e-10   -4.991097e-01
    3.036457e+01    1.896596e+02    4.302632e-08    3.187584e+01    6.523185e-09    1.349729e-13    4.066657e-10   -4.941097e-01
    3.036339e+01    1.896523e+02    5.008050e-08    3.711919e+01    6.519895e-09    1.406123e-13    4.250324e-10   -4.891097e-01
    3.036211e+01    1.896443e+02    5.829090e-08    4.321867e+01    6.517505e-09    1.465036e-13    4.443719e-10   -4.841097e-01
    3.036075e+01    1.896358e+02    6.784685e-08    5.031265e+01    6.516060e-09    1.526590e-13    4.647359e-10   -4.791097e-01
    3.035927e+01    1.896266e+02    7.896880e-08    5.856156e+01    6.515600e-09    1.590909e-13    4.861783e-10   -4.741097e-01
    3.035768e+01    1.896166e+02    9.191325e-08    6.815145e+01    6.516160e-09    1.658127e-13    5.087550e-10   -4.691097e-01
    3.035595e+01    1.896060e+02    1.069787e-07    7.929770e+01    6.517795e-09    1.728386e-13    5.325245e-10   -4.641097e-01
    3.035410e+01    1.895944e+02    1.245124e-07    9.225006e+01    6.520535e-09    1.801831e-13    5.575475e-10   -4.591097e-01
    3.035210e+01    1.895820e+02    1.449184e-07    1.072974e+02    6.524440e-09    1.878615e-13    5.838865e-10   -4.541097e-01
    3.034995e+01    1.895685e+02    1.686668e-07    1.247739e+02    6.529560e-09    1.958900e-13    6.116080e-10   -4.491097e-01
    3.034762e+01    1.895541e+02    1.963050e-07    1.450669e+02    6.535935e-09    2.042856e-13    6.407790e-10   -4.441097e-01
    3.034513e+01    1.895386e+02    2.284693e-07    1.686237e+02    6.543625e-09    2.130657e-13    6.714690e-10   -4.391097e-01
    3.034244e+01    1.895218e+02    2.659000e-07    1.959609e+02    6.552690e-09    2.222490e-13    7.037515e-10   -4.341097e-01
    3.033952e+01    1.895037e+02    3.094589e-07    2.276763e+02    6.563175e-09    2.318548e-13    7.377000e-10   -4.291097e-01
    3.033638e+01    1.894842e+02    3.601481e-07    2.644598e+02    6.575145e-09    2.419034e-13    7.733915e-10   -4.241097e-01
    3.033300e+01    1.894632e+02    4.191333e-07    3.071074e+02    6.588665e-09    2.524160e-13    8.109045e-10   -4.191097e-01
    3.032936e+01    1.894406e+02    4.877705e-07    3.565381e+02    6.603785e-09    2.634149e-13    8.503195e-10   -4.141097e-01
    3.032543e+01    1.894162e+02    5.676370e-07    4.138107e+02    6.620580e-09    2.749230e-13    8.917190e-10   -4.091097e-01
    3.032120e+01    1.893900e+02    6.605670e-07    4.801466e+02    6.639105e-09    2.869649e-13    9.351875e-10   -4.041097e-01
    3.031662e+01    1.893616e+02    7.686945e-07    5.569518e+02    6.659430e-09    2.995657e-13    9.808105e-10   -3.991097e-01
    3.031172e+01    1.893312e+02    8.944995e-07    6.458455e+02    6.681625e-09    3.127520e-13    1.028675e-09   -3.941097e-01
    3.030642e+01    1.892984e+02    1.040867e-06    7.486902e+02    6.705760e-09    3.265512e-13    1.078867e-09   -3.891097e-01
    3.030071e+01    1.892631e+02    1.211153e-06    8.676297e+02    6.731895e-09    3.409922e-13    1.131478e-09   -3.841097e-01
    3.029455e+01    1.892250e+02    1.409255e-06    1.005127e+03    6.760100e-09    3.561051e-13    1.186596e-09   -3.791097e-01
    3.028793e+01    1.891841e+02    1.639707e-06    1.164011e+03    6.790455e-09    3.719212e-13    1.244310e-09   -3.741097e-01
    3.028078e+01    1.891400e+02    1.907778e-06    1.347530e+03    6.823020e-09    3.884730e-13    1.304709e-09   -3.691097e-01
    3.027310e+01    1.890927e+02    2.219594e-06    1.559414e+03    6.857870e-09    4.057945e-13    1.367884e-09   -3.641097e-01
    3.026481e+01    1.890416e+02    2.582271e-06    1.803937e+03    6.895070e-09    4.239210e-13    1.433921e-09   -3.591097e-01
    3.025590e+01    1.889868e+02    3.004080e-06    2.086002e+03    6.934690e-09    4.428894e-13    1.502908e-09   -3.541097e-01
    3.024630e+01    1.889278e+02    3.494629e-06    2.411224e+03    6.976795e-09    4.627378e-13    1.574928e-09   -3.491097e-01
    3.023597e+01    1.888644e+02    4.065079e-06    2.786031e+03    7.021455e-09    4.835059e-13    1.650066e-09   -3.441097e-01
    3.022485e+01    1.887963e+02    4.728394e-06    3.217782e+03    7.068730e-09    5.052350e-13    1.728400e-09   -3.391097e-01
    3.021290e+01    1.887230e+02    5.499625e-06    3.714889e+03    7.118685e-09    5.279680e-13    1.810008e-09   -3.341097e-01
    3.020002e+01    1.886445e+02    6.396255e-06    4.286973e+03    7.171375e-09    5.517490e-13    1.894963e-09   -3.291097e-01
    3.018617e+01    1.885601e+02    7.438570e-06    4.945023e+03    7.226855e-09    5.766245e-13    1.983333e-09   -3.241097e-01
    3.017129e+01    1.884695e+02    8.650115e-06    5.701588e+03    7.285175e-09    6.026415e-13    2.075184e-09   -3.191097e-01
    3.015528e+01    1.883723e+02    1.005822e-05    6.570983e+03    7.346390e-09    6.298495e-13    2.170571e-09   -3.141097e-01
    3.013807e+01    1.882681e+02    1.169456e-05    7.569547e+03    7.410535e-09    6.583005e-13    2.269550e-09   -3.091097e-01
    3.011959e+01    1.881565e+02    1.359590e-05    8.715891e+03    7.477655e-09    6.880460e-13    2.372164e-09   -3.041097e-01
    3.009975e+01    1.880369e+02    1.580486e-05    1.003124e+04    7.547775e-09    7.191415e-13    2.478454e-09   -2.991097e-01
    3.007844e+01    1.879089e+02    1.837082e-05    1.153974e+04    7.620930e-09    7.516425e-13    2.588450e-09   -2.941097e-01
    3.005556e+01    1.877718e+02    2.135101e-05    1.326888e+04    7.697135e-09    7.856085e-13    2.702176e-09   -2.891097e-01
    3.003101e+01    1.876253e+02    2.481172e-05    1.524993e+04    7.776410e-09    8.210985e-13    2.819645e-09   -2.841097e-01
    3.000469e+01    1.874689e+02    2.882970e-05    1.751845e+04    7.858755e-09    8.581745e-13    2.940864e-09   -2.791097e-01
    2.997650e+01    1.873020e+02    3.349379e-05    2.011484e+04    7.944175e-09    8.969005e-13    3.065828e-09   -2.741097e-01
    2.994627e+01    1.871238e+02    3.890675e-05    2.308492e+04    8.032660e-09    9.373420e-13    3.194524e-09   -2.691097e-01
    2.991391e+01    1.869340e+02    4.518744e-05    2.648078e+04    8.124195e-09    9.795670e-13    3.326927e-09   -2.641097e-01
    2.987928e+01    1.867321e+02    5.247325e-05    3.036143e+04    8.218755e-09    1.023645e-12    3.463000e-09   -2.591097e-01
    2.984225e+01    1.865172e+02    6.092285e-05    3.479375e+04    8.316310e-09    1.069646e-12    3.602700e-09   -2.541097e-01
    2.980269e+01    1.862892e+02    7.071950e-05    3.985355e+04    8.416815e-09    1.117645e-12    3.745969e-09   -2.491097e-01
    2.976043e+01    1.860473e+02    8.207475e-05    4.562657e+04    8.520225e-09    1.167718e-12    3.892741e-09   -2.441097e-01
    2.971533e+01    1.857913e+02    9.523250e-05    5.220983e+04    8.626480e-09    1.219941e-12    4.042934e-09   -2.391097e-01
    2.966727e+01    1.855205e+02    1.104739e-04    5.971296e+04    8.735515e-09    1.274393e-12    4.196461e-09   -2.341097e-01
    2.961606e+01    1.852347e+02    1.281227e-04    6.825984e+04    8.847250e-09    1.331157e-12    4.353220e-09   -2.291097e-01
    2.956157e+01    1.849337e+02    1.485518e-04    7.799023e+04    8.961600e-09    1.390316e-12    4.513099e-09   -2.241097e-01
    2.950366e+01    1.846174e+02    1.721900e-04    8.906166e+04    9.078480e-09    1.451956e-12    4.675979e-09   -2.191097e-01
    2.944219e+01    1.842857e+02    1.995300e-04    1.016519e+05    9.197780e-09    1.516164e-12    4.841724e-09   -2.141097e-01
    2.937698e+01    1.839385e+02    2.311378e-04    1.159606e+05    9.319400e-09    1.583030e-12    5.010195e-09   -2.091097e-01
    2.930792e+01    1.835765e+02    2.676628e-04    1.322126e+05    9.443225e-09    1.652646e-12    5.181240e-09   -2.041097e-01
    2.923490e+01    1.832001e+02    3.098495e-04    1.506608e+05    9.569125e-09    1.725106e-12    5.354695e-09   -1.991097e-01
    2.915780e+01    1.828100e+02    3.585507e-04    1.715889e+05    9.696975e-09    1.800507e-12    5.530405e-09   -1.941097e-01
    2.907653e+01    1.824075e+02    4.147425e-04    1.953153e+05    9.826635e-09    1.878947e-12    5.708180e-09   -1.891097e-01
    2.899099e+01    1.819937e+02    4.795405e-04    2.221966e+05    9.957975e-09    1.960526e-12    5.887850e-09   -1.841097e-01
    2.890113e+01    1.815705e+02    5.542195e-04    2.526326e+05    1.009084e-08    2.045348e-12    6.069220e-09   -1.791097e-01
    2.880697e+01    1.811402e+02    6.402330e-04    2.870706e+05    1.022509e-08    2.133519e-12    6.252100e-09   -1.741097e-01
    2.870844e+01    1.807054e+02    7.392400e-04    3.260111e+05    1.036055e-08    2.225145e-12    6.436290e-09   -1.691097e-01
    2.860560e+01    1.802693e+02    8.531280e-04    3.700125e+05    1.049709e-08    2.320339e-12    6.621600e-09   -1.641097e-01
    2.849851e+01    1.798355e+02    9.840450e-04    4.196998e+05    1.063454e-08    2.419211e-12    6.807820e-09   -1.591097e-01
    2.838728e+01    1.794087e+02    1.134433e-03    4.757695e+05    1.077273e-08    2.521877e-12    6.994745e-09   -1.541097e-01
    2.827205e+01    1.789936e+02    1.307063e-03    5.389999e+05    1.091152e-08    2.628456e-12    7.182170e-09   -1.491097e-01
    2.815301e+01    1.785961e+02    1.505081e-03    6.102585e+05    1.105073e-08    2.739067e-12    7.369900e-09   -1.441097e-01
    2.803038e+01    1.782225e+02    1.732052e-03    6.905124e+05    1.119022e-08    2.853834e-12    7.557720e-09   -1.391097e-01
    2.790441e+01    1.778801e+02    1.992012e-03    7.808405e+05    1.132981e-08    2.972883e-12    7.745435e-09   -1.341097e-01
    2.777544e+01    1.775769e+02    2.289528e-03    8.824466e+05    1.146935e-08    3.096342e-12    7.932850e-09   -1.291097e-01
    2.764377e+01    1.773215e+02    2.629766e-03    9.966707e+05    1.160868e-08    3.224345e-12    8.119760e-09   -1.241097e-01
    2.750977e+01    1.771233e+02    3.018559e-03    1.125007e+06    1.174766e-08    3.357025e-12    8.305985e-09   -1.191097e-01
    2.737379e+01    1.769925e+02    3.462495e-03    1.269122e+06    1.188614e-08    3.494521e-12    8.491335e-09   -1.141097e-01
    2.723624e+01    1.769396e+02    3.969003e-03    1.430872e+06    1.202397e-08    3.636975e-12    8.675635e-09   -1.091097e-01
    2.709742e+01    1.769756e+02    4.546462e-03    1.612322e+06    1.216102e-08    3.784532e-12    8.858705e-09   -1.041097e-01
    2.695769e+01    1.771123e+02    5.204310e-03    1.815775e+06    1.229714e-08    3.937339e-12    9.040380e-09   -9.910970e-02
    2.681726e+01    1.773611e+02    5.953180e-03    2.043784e+06    1.243221e-08    4.095548e-12    9.220510e-09   -9.410970e-02
    2.667637e+01    1.777336e+02    6.805010e-03    2.299188e+06    1.256612e-08    4.259318e-12    9.398930e-09   -8.910970e-02
    2.653504e+01    1.782410e+02    7.773245e-03    2.585127e+06    1.269873e-08    4.428806e-12    9.575505e-09   -8.410970e-02
    2.639323e+01    1.788942e+02    8.872965e-03    2.905069e+06    1.282995e-08    4.604176e-12    9.750105e-09   -7.910970e-02
    2.625075e+01    1.797028e+02    1.012107e-02    3.262830e+06    1.295967e-08    4.785597e-12    9.922595e-09   -7.410970e-02
    2.610722e+01    1.806755e+02    1.153649e-02    3.662588e+06    1.308779e-08    4.973242e-12    1.009286e-08   -6.910970e-02
    2.596208e+01    1.818195e+02    1.314036e-02    4.108901e+06    1.321422e-08    5.167285e-12    1.026079e-08   -6.410970e-02
    2.581460e+01    1.831400e+02    1.495629e-02    4.606701e+06    1.333888e-08    5.367915e-12    1.042629e-08   -5.910970e-02
    2.566383e+01    1.846400e+02    1.701048e-02    5.161292e+06    1.346169e-08    5.575315e-12    1.058927e-08   -5.410970e-02
    2.550868e+01    1.863201e+02    1.933202e-02    5.778336e+06    1.358259e-08    5.789675e-12    1.074964e-08   -4.910970e-02
    2.534786e+01    1.881781e+02    2.195306e-02    6.463804e+06    1.370151e-08    6.011190e-12    1.090734e-08   -4.410970e-02
    2.518001e+01    1.902091e+02    2.490901e-02    7.223951e+06    1.381840e-08    6.240070e-12    1.106229e-08   -3.910970e-02
    2.500363e+01    1.924046e+02    2.823868e-02    8.065229e+06    1.393320e-08    6.476525e-12    1.121445e-08   -3.410970e-02
    2.481722e+01    1.947532e+02    3.198442e-02    8.994206e+06    1.404588e-08    6.720760e-12    1.136377e-08   -2.910970e-02
    2.461929e+01    1.972404e+02    3.619227e-02    1.001748e+07    1.415641e-08    6.973005e-12    1.151019e-08   -2.410970e-02
    2.440841e+01    1.998484e+02    4.091188e-02    1.114154e+07    1.426474e-08    7.233480e-12    1.165371e-08   -1.910970e-02
    2.418330e+01    2.025568e+02    4.619658e-02    1.237266e+07    1.437086e-08    7.502430e-12    1.179428e-08   -1.410970e-02
    2.394284e+01    2.053424e+02    5.210330e-02    1.371671e+07    1.447475e-08    7.780085e-12    1.193190e-08   -9.109700e-03
    2.368617e+01    2.081800e+02    5.869225e-02    1.517909e+07    1.457639e-08    8.066705e-12    1.206655e-08   -4.109700e-03
    2.341266e+01    2.110424e+02    6.602685e-02    1.676449e+07    1.467578e-08    8.362535e-12    1.219823e-08    8.903000e-04
    2.312197e+01    2.139014e+02    7.417340e-02    1.847681e+07    1.477292e-08    8.667845e-12    1.232693e-08    5.890300e-03
    2.281411e+01    2.167279e+02    8.320045e-02    2.031901e+07    1.486781e-08    8.982910e-12    1.245267e-08    1.089030e-02
    2.248934e+01    2.194929e+02    9.317860e-02    2.229300e+07    1.496044e-08    9.308005e-12    1.257548e-08    1.589030e-02
    2.214824e+01    2.221678e+02    1.041799e-01    2.439957e+07    1.505085e-08    9.643430e-12    1.269534e-08    2.089030e-02
    2.179164e+01    2.247246e+02    1.162770e-01    2.663825e+07    1.513903e-08    9.989470e-12    1.281230e-08    2.589030e-02
    2.142068e+01    2.271374e+02    1.295428e-01    2.900742e+07    1.522501e-08    1.034645e-11    1.292637e-08    3.089030e-02
    2.103663e+01    2.293821e+02    1.440499e-01    3.150417e+07    1.530880e-08    1.071467e-11    1.303761e-08    3.589030e-02
    2.064097e+01    2.314369e+02    1.598695e-01    3.412441e+07    1.539044e-08    1.109448e-11    1.314602e-08    4.089030e-02
    2.023531e+01    2.332827e+02    1.770714e-01    3.686292e+07    1.546994e-08    1.148620e-11    1.325165e-08    4.589030e-02
    1.982133e+01    2.349035e+02    1.957225e-01    3.971344e+07    1.554734e-08    1.189019e-11    1.335455e-08    5.089030e-02
    1.940076e+01    2.362862e+02    2.158870e-01    4.266881e+07    1.562265e-08    1.230682e-11    1.345475e-08    5.589030e-02
    1.897535e+01    2.374211e+02    2.376258e-01    4.572103e+07    1.569594e-08    1.273646e-11    1.355231e-08    6.089030e-02
    1.854680e+01    2.383014e+02    2.609956e-01    4.886155e+07    1.576722e-08    1.317949e-11    1.364726e-08    6.589030e-02
    1.811680e+01    2.389235e+02    2.860489e-01    5.208130e+07    1.583653e-08    1.363632e-11    1.373967e-08    7.089030e-02
    1.768691e+01    2.392866e+02    3.128336e-01    5.537090e+07    1.590391e-08    1.410736e-11    1.382957e-08    7.589030e-02
    1.725861e+01    2.393925e+02    3.413930e-01    5.872083e+07    1.596939e-08    1.459303e-11    1.391703e-08    8.089030e-02
    1.683331e+01    2.392459e+02    3.717652e-01    6.212163e+07    1.603303e-08    1.509378e-11    1.400209e-08    8.589030e-02
    1.641225e+01    2.388533e+02    4.039837e-01    6.556394e+07    1.609485e-08    1.561008e-11    1.408480e-08    9.089030e-02
    1.599656e+01    2.382232e+02    4.380768e-01    6.903868e+07    1.615491e-08    1.614237e-11    1.416524e-08    9.589030e-02
    1.558725e+01    2.373655e+02    4.740680e-01    7.253720e+07    1.621323e-08    1.669118e-11    1.424344e-08    1.008903e-01
    1.518518e+01    2.362917e+02    5.119765e-01    7.605123e+07    1.626986e-08    1.725699e-11    1.431946e-08    1.058903e-01
    1.479111e+01    2.350138e+02    5.518165e-01    7.957316e+07    1.632484e-08    1.784033e-11    1.439336e-08    1.108903e-01
    1.440568e+01    2.335454e+02    5.935990e-01    8.309595e+07    1.637824e-08    1.844175e-11    1.446519e-08    1.158903e-01
    1.402939e+01    2.318997e+02    6.373300e-01    8.661322e+07    1.643005e-08    1.906179e-11    1.453501e-08    1.208903e-01
    1.366266e+01    2.300908e+02    6.830130e-01    9.011925e+07    1.648036e-08    1.970107e-11    1.460288e-08    1.258903e-01
    1.330580e+01    2.281321e+02    7.306475e-01    9.360897e+07    1.652919e-08    2.036015e-11    1.466884e-08    1.308903e-01
    1.295904e+01    2.260375e+02    7.802300e-01    9.707797e+07    1.657659e-08    2.103967e-11    1.473296e-08    1.358903e-01
    1.262253e+01    2.238206e+02    8.317555e-01    1.005226e+08    1.662258e-08    2.174029e-11    1.479528e-08    1.408903e-01
    1.229634e+01    2.214941e+02    8.852155e-01    1.039398e+08    1.666723e-08    2.246265e-11    1.485586e-08    1.458903e-01
    1.198046e+01    2.190707e+02    9.406010e-01    1.073268e+08    1.671056e-08    2.320746e-11    1.491474e-08    1.508903e-01
