# sky130 nfet_01v8 gm/ID Processed Lookup Table
# Corner: fs
# Temperature: 0C
# W = 2.0 um
# L = 4.5 um (4500 nm)
# Columns: gm/id [1/V]  gm/gds [V/V]  id/W [A/m]  ft [Hz]  Cgg/W [F/m]  Cgd/W [F/m]  Cgs/W [F/m]  Vov [V]
#         gm/id          gm/gds            id/W              ft           Cgg/W           Cgd/W           Cgs/W             Vov
    3.066309e+01    2.255527e+02    1.154185e-09    6.040885e-01    9.324190e-09    7.911960e-14    2.334381e-10   -5.991785e-01
    3.066286e+01    2.255510e+02    1.345425e-09    7.059089e-01    9.301295e-09    8.231000e-14    2.420082e-10   -5.941785e-01
    3.066259e+01    2.255491e+02    1.568349e-09    8.248411e-01    9.279005e-09    8.563245e-14    2.509872e-10   -5.891785e-01
    3.066231e+01    2.255470e+02    1.828207e-09    9.637505e-01    9.257330e-09    8.909310e-14    2.603991e-10   -5.841785e-01
    3.066201e+01    2.255448e+02    2.131118e-09    1.125981e+00    9.236280e-09    9.269815e-14    2.702689e-10   -5.791785e-01
    3.066171e+01    2.255426e+02    2.484213e-09    1.315432e+00    9.215880e-09    9.645425e-14    2.806234e-10   -5.741785e-01
    3.066134e+01    2.255399e+02    2.895806e-09    1.536650e+00    9.196145e-09    1.003683e-13    2.914909e-10   -5.691785e-01
    3.066096e+01    2.255371e+02    3.375587e-09    1.794940e+00    9.177095e-09    1.044477e-13    3.028998e-10   -5.641785e-01
    3.066055e+01    2.255340e+02    3.934851e-09    2.096488e+00    9.158745e-09    1.087001e-13    3.148828e-10   -5.591785e-01
    3.066011e+01    2.255309e+02    4.586764e-09    2.448503e+00    9.141125e-09    1.131335e-13    3.274738e-10   -5.541785e-01
    3.065963e+01    2.255272e+02    5.346670e-09    2.859389e+00    9.124250e-09    1.177564e-13    3.407078e-10   -5.491785e-01
    3.065911e+01    2.255235e+02    6.232460e-09    3.338942e+00    9.108155e-09    1.225777e-13    3.546223e-10   -5.441785e-01
    3.065855e+01    2.255195e+02    7.264980e-09    3.898571e+00    9.092865e-09    1.276067e-13    3.692565e-10   -5.391785e-01
    3.065796e+01    2.255150e+02    8.468525e-09    4.551576e+00    9.078400e-09    1.328534e-13    3.846519e-10   -5.341785e-01
    3.065731e+01    2.255102e+02    9.871430e-09    5.313439e+00    9.064805e-09    1.383280e-13    4.008523e-10   -5.291785e-01
    3.065660e+01    2.255051e+02    1.150670e-08    6.202198e+00    9.052100e-09    1.440414e-13    4.179036e-10   -5.241785e-01
    3.065585e+01    2.254996e+02    1.341281e-08    7.238852e+00    9.040320e-09    1.500049e-13    4.358543e-10   -5.191785e-01
    3.065503e+01    2.254935e+02    1.563463e-08    8.447831e+00    9.029510e-09    1.562307e-13    4.547556e-10   -5.141785e-01
    3.065417e+01    2.254871e+02    1.822439e-08    9.857586e+00    9.019700e-09    1.627312e-13    4.746608e-10   -5.091785e-01
    3.065322e+01    2.254801e+02    2.124304e-08    1.150119e+01    9.010940e-09    1.695197e-13    4.956266e-10   -5.041785e-01
    3.065218e+01    2.254725e+02    2.476157e-08    1.341714e+01    9.003260e-09    1.766102e-13    5.177120e-10   -4.991785e-01
    3.065107e+01    2.254644e+02    2.886273e-08    1.565017e+01    8.996715e-09    1.840170e-13    5.409785e-10   -4.941785e-01
    3.064988e+01    2.254557e+02    3.364295e-08    1.825231e+01    8.991355e-09    1.917558e-13    5.654920e-10   -4.891785e-01
    3.064860e+01    2.254463e+02    3.921463e-08    2.128401e+01    8.987220e-09    1.998425e-13    5.913195e-10   -4.841785e-01
    3.064721e+01    2.254361e+02    4.570873e-08    2.481549e+01    8.984365e-09    2.082940e-13    6.185330e-10   -4.791785e-01
    3.064572e+01    2.254251e+02    5.327790e-08    2.892830e+01    8.982850e-09    2.171281e-13    6.472065e-10   -4.741785e-01
    3.064411e+01    2.254132e+02    6.210000e-08    3.371709e+01    8.982735e-09    2.263634e-13    6.774170e-10   -4.691785e-01
    3.064235e+01    2.254005e+02    7.238235e-08    3.929179e+01    8.984070e-09    2.360195e-13    7.092465e-10   -4.641785e-01
    3.064047e+01    2.253867e+02    8.436645e-08    4.577983e+01    8.986925e-09    2.461169e-13    7.427780e-10   -4.591785e-01
    3.063845e+01    2.253717e+02    9.833370e-08    5.332903e+01    8.991365e-09    2.566770e-13    7.781000e-10   -4.541785e-01
    3.063625e+01    2.253557e+02    1.146122e-07    6.211074e+01    8.997455e-09    2.677224e-13    8.153030e-10   -4.491785e-01
    3.063389e+01    2.253384e+02    1.335838e-07    7.232345e+01    9.005275e-09    2.792770e-13    8.544810e-10   -4.441785e-01
    3.063134e+01    2.253197e+02    1.556939e-07    8.419722e+01    9.014885e-09    2.913653e-13    8.957320e-10   -4.391785e-01
    3.062861e+01    2.252997e+02    1.814613e-07    9.799815e+01    9.026375e-09    3.040136e-13    9.391565e-10   -4.341785e-01
    3.062563e+01    2.252779e+02    2.114900e-07    1.140342e+02    9.039820e-09    3.172489e-13    9.848595e-10   -4.291785e-01
    3.062242e+01    2.252544e+02    2.464843e-07    1.326619e+02    9.055295e-09    3.310997e-13    1.032947e-09   -4.241785e-01
    3.061896e+01    2.252291e+02    2.872640e-07    1.542929e+02    9.072895e-09    3.455960e-13    1.083531e-09   -4.191785e-01
    3.061524e+01    2.252019e+02    3.347846e-07    1.794034e+02    9.092695e-09    3.607691e-13    1.136723e-09   -4.141785e-01
    3.061122e+01    2.251726e+02    3.901587e-07    2.085428e+02    9.114795e-09    3.766516e-13    1.192641e-09   -4.091785e-01
    3.060689e+01    2.251409e+02    4.546823e-07    2.423457e+02    9.139280e-09    3.932776e-13    1.251401e-09   -4.041785e-01
    3.060220e+01    2.251067e+02    5.298650e-07    2.815442e+02    9.166245e-09    4.106831e-13    1.313126e-09   -3.991785e-01
    3.059716e+01    2.250700e+02    6.174640e-07    3.269822e+02    9.195785e-09    4.289054e-13    1.377937e-09   -3.941785e-01
    3.059174e+01    2.250303e+02    7.195260e-07    3.796325e+02    9.227995e-09    4.479834e-13    1.445960e-09   -3.891785e-01
    3.058587e+01    2.249875e+02    8.384350e-07    4.406155e+02    9.262975e-09    4.679580e-13    1.517320e-09   -3.841785e-01
    3.057954e+01    2.249416e+02    9.769650e-07    5.112213e+02    9.300820e-09    4.888717e-13    1.592143e-09   -3.791785e-01
    3.057274e+01    2.248920e+02    1.138346e-06    5.929340e+02    9.341625e-09    5.107690e-13    1.670558e-09   -3.741785e-01
    3.056540e+01    2.248386e+02    1.326338e-06    6.874592e+02    9.385500e-09    5.336955e-13    1.752692e-09   -3.691785e-01
    3.055747e+01    2.247811e+02    1.545318e-06    7.967583e+02    9.432540e-09    5.577005e-13    1.838672e-09   -3.641785e-01
    3.054895e+01    2.247193e+02    1.800376e-06    9.230840e+02    9.482840e-09    5.828335e-13    1.928623e-09   -3.591785e-01
    3.053975e+01    2.246527e+02    2.097440e-06    1.069021e+03    9.536500e-09    6.091470e-13    2.022669e-09   -3.541785e-01
    3.052983e+01    2.245809e+02    2.443404e-06    1.237534e+03    9.593620e-09    6.366950e-13    2.120935e-09   -3.491785e-01
    3.051918e+01    2.245039e+02    2.846286e-06    1.432027e+03    9.654285e-09    6.655345e-13    2.223537e-09   -3.441785e-01
    3.050769e+01    2.244210e+02    3.315413e-06    1.656393e+03    9.718600e-09    6.957240e-13    2.330593e-09   -3.391785e-01
    3.049531e+01    2.243317e+02    3.861633e-06    1.915096e+03    9.786640e-09    7.273245e-13    2.442212e-09   -3.341785e-01
    3.048200e+01    2.242361e+02    4.497555e-06    2.213244e+03    9.858495e-09    7.604000e-13    2.558503e-09   -3.291785e-01
    3.046766e+01    2.241332e+02    5.237835e-06    2.556679e+03    9.934245e-09    7.950150e-13    2.679565e-09   -3.241785e-01
    3.045223e+01    2.240225e+02    6.099510e-06    2.952079e+03    1.001397e-08    8.312385e-13    2.805491e-09   -3.191785e-01
    3.043564e+01    2.239040e+02    7.102370e-06    3.407077e+03    1.009774e-08    8.691410e-13    2.936367e-09   -3.141785e-01
    3.041778e+01    2.237766e+02    8.269410e-06    3.930387e+03    1.018561e-08    9.087955e-13    3.072273e-09   -3.091785e-01
    3.039860e+01    2.236401e+02    9.627315e-06    4.531956e+03    1.027764e-08    9.502775e-13    3.213276e-09   -3.041785e-01
    3.037797e+01    2.234938e+02    1.120709e-05    5.223129e+03    1.037388e-08    9.936655e-13    3.359435e-09   -2.991785e-01
    3.035582e+01    2.233371e+02    1.304470e-05    6.016836e+03    1.047437e-08    1.039041e-12    3.510799e-09   -2.941785e-01
    3.033202e+01    2.231692e+02    1.518187e-05    6.927813e+03    1.057914e-08    1.086485e-12    3.667404e-09   -2.891785e-01
    3.030646e+01    2.229897e+02    1.766701e-05    7.972831e+03    1.068823e-08    1.136087e-12    3.829275e-09   -2.841785e-01
    3.027906e+01    2.227979e+02    2.055622e-05    9.170987e+03    1.080164e-08    1.187933e-12    3.996423e-09   -2.791785e-01
    3.024966e+01    2.225930e+02    2.391453e-05    1.054399e+04    1.091937e-08    1.242116e-12    4.168846e-09   -2.741785e-01
    3.021815e+01    2.223744e+02    2.781726e-05    1.211652e+04    1.104141e-08    1.298731e-12    4.346529e-09   -2.691785e-01
    3.018438e+01    2.221413e+02    3.235161e-05    1.391659e+04    1.116775e-08    1.357876e-12    4.529441e-09   -2.641785e-01
    3.014822e+01    2.218930e+02    3.761852e-05    1.597602e+04    1.129835e-08    1.419649e-12    4.717535e-09   -2.591785e-01
    3.010953e+01    2.216289e+02    4.373471e-05    1.833089e+04    1.143318e-08    1.484154e-12    4.910751e-09   -2.541785e-01
    3.006818e+01    2.213485e+02    5.083510e-05    2.102211e+04    1.157217e-08    1.551497e-12    5.109010e-09   -2.491785e-01
    3.002398e+01    2.210509e+02    5.907565e-05    2.409602e+04    1.171525e-08    1.621787e-12    5.312225e-09   -2.441785e-01
    2.997678e+01    2.207358e+02    6.863635e-05    2.760504e+04    1.186235e-08    1.695136e-12    5.520280e-09   -2.391785e-01
    2.992647e+01    2.204024e+02    7.972485e-05    3.160850e+04    1.201339e-08    1.771658e-12    5.733055e-09   -2.341785e-01
    2.987283e+01    2.200505e+02    9.258075e-05    3.617342e+04    1.216823e-08    1.851472e-12    5.950410e-09   -2.291785e-01
    2.981575e+01    2.196798e+02    1.074799e-04    4.137550e+04    1.232678e-08    1.934699e-12    6.172190e-09   -2.241785e-01
    2.975503e+01    2.192901e+02    1.247401e-04    4.730011e+04    1.248891e-08    2.021461e-12    6.398220e-09   -2.191785e-01
    2.969055e+01    2.188813e+02    1.447269e-04    5.404352e+04    1.265446e-08    2.111887e-12    6.628320e-09   -2.141785e-01
    2.962216e+01    2.184539e+02    1.678602e-04    6.171415e+04    1.282330e-08    2.206107e-12    6.862290e-09   -2.091785e-01
    2.954969e+01    2.180079e+02    1.946227e-04    7.043392e+04    1.299525e-08    2.304254e-12    7.099915e-09   -2.041785e-01
    2.947305e+01    2.175444e+02    2.255680e-04    8.034004e+04    1.317014e-08    2.406464e-12    7.340965e-09   -1.991785e-01
    2.939212e+01    2.170644e+02    2.613306e-04    9.158649e+04    1.334781e-08    2.512878e-12    7.585215e-09   -1.941785e-01
    2.930677e+01    2.165691e+02    3.026374e-04    1.043461e+05    1.352803e-08    2.623639e-12    7.832410e-09   -1.891785e-01
    2.921695e+01    2.160603e+02    3.503198e-04    1.188125e+05    1.371063e-08    2.738893e-12    8.082295e-09   -1.841785e-01
    2.912259e+01    2.155406e+02    4.053283e-04    1.352029e+05    1.389540e-08    2.858791e-12    8.334605e-09   -1.791785e-01
    2.902368e+01    2.150126e+02    4.687477e-04    1.537603e+05    1.408211e-08    2.983486e-12    8.589060e-09   -1.741785e-01
    2.892021e+01    2.144799e+02    5.418160e-04    1.747561e+05    1.427056e-08    3.113135e-12    8.845395e-09   -1.691785e-01
    2.881222e+01    2.139464e+02    6.259430e-04    1.984940e+05    1.446053e-08    3.247898e-12    9.103315e-09   -1.641785e-01
    2.869978e+01    2.134172e+02    7.227340e-04    2.253132e+05    1.465179e-08    3.387941e-12    9.362540e-09   -1.591785e-01
    2.858302e+01    2.128977e+02    8.340140e-04    2.555923e+05    1.484410e-08    3.533432e-12    9.622775e-09   -1.541785e-01
    2.846211e+01    2.123943e+02    9.618555e-04    2.897535e+05    1.503725e-08    3.684542e-12    9.883730e-09   -1.491785e-01
    2.833722e+01    2.119145e+02    1.108612e-03    3.282680e+05    1.523101e-08    3.841448e-12    1.014512e-08   -1.441785e-01
    2.820863e+01    2.114664e+02    1.276951e-03    3.716612e+05    1.542514e-08    4.004329e-12    1.040665e-08   -1.391785e-01
    2.807660e+01    2.110591e+02    1.469893e-03    4.205186e+05    1.561943e-08    4.173372e-12    1.066804e-08   -1.341785e-01
    2.794147e+01    2.107028e+02    1.690858e-03    4.754935e+05    1.581364e-08    4.348764e-12    1.092901e-08   -1.291785e-01
    2.780357e+01    2.104083e+02    1.943713e-03    5.373132e+05    1.600757e-08    4.530699e-12    1.118928e-08   -1.241785e-01
    2.766333e+01    2.101879e+02    2.232826e-03    6.067897e+05    1.620098e-08    4.719375e-12    1.144857e-08   -1.191785e-01
    2.752108e+01    2.100538e+02    2.563132e-03    6.848257e+05    1.639368e-08    4.914996e-12    1.170664e-08   -1.141785e-01
    2.737724e+01    2.100198e+02    2.940196e-03    7.724287e+05    1.658547e-08    5.117765e-12    1.196322e-08   -1.091785e-01
    2.723215e+01    2.100995e+02    3.370295e-03    8.707191e+05    1.677613e-08    5.327905e-12    1.221807e-08   -1.041785e-01
    2.708613e+01    2.103074e+02    3.860498e-03    9.809435e+05    1.696549e-08    5.545625e-12    1.247095e-08   -9.917850e-02
    2.693943e+01    2.106577e+02    4.418765e-03    1.104486e+06    1.715336e-08    5.771150e-12    1.272164e-08   -9.417850e-02
    2.679219e+01    2.111649e+02    5.054050e-03    1.242881e+06    1.733957e-08    6.004715e-12    1.296992e-08   -8.917850e-02
    2.664449e+01    2.118427e+02    5.776405e-03    1.397825e+06    1.752396e-08    6.246550e-12    1.321560e-08   -8.417850e-02
    2.649621e+01    2.127042e+02    6.597120e-03    1.571190e+06    1.770637e-08    6.496905e-12    1.345848e-08   -7.917850e-02
    2.634707e+01    2.137615e+02    7.528850e-03    1.765030e+06    1.788665e-08    6.756015e-12    1.369838e-08   -7.417850e-02
    2.619669e+01    2.150248e+02    8.585735e-03    1.981590e+06    1.806467e-08    7.024150e-12    1.393514e-08   -6.917850e-02
    2.604441e+01    2.165024e+02    9.783585e-03    2.223312e+06    1.824031e-08    7.301560e-12    1.416861e-08   -6.417850e-02
    2.588942e+01    2.182005e+02    1.113999e-02    2.492829e+06    1.841345e-08    7.588520e-12    1.439865e-08   -5.917850e-02
    2.573072e+01    2.201226e+02    1.267453e-02    2.792964e+06    1.858397e-08    7.885310e-12    1.462513e-08   -5.417850e-02
    2.556715e+01    2.222687e+02    1.440883e-02    3.126715e+06    1.875179e-08    8.192205e-12    1.484794e-08   -4.917850e-02
    2.539736e+01    2.246359e+02    1.636681e-02    3.497234e+06    1.891682e-08    8.509510e-12    1.506698e-08   -4.417850e-02
    2.521995e+01    2.272174e+02    1.857473e-02    3.907795e+06    1.907898e-08    8.837515e-12    1.528215e-08   -3.917850e-02
    2.503342e+01    2.300029e+02    2.106135e-02    4.361762e+06    1.923820e-08    9.176535e-12    1.549338e-08   -3.417850e-02
    2.483625e+01    2.329780e+02    2.385797e-02    4.862534e+06    1.939443e-08    9.526890e-12    1.570061e-08   -2.917850e-02
    2.462699e+01    2.361248e+02    2.699851e-02    5.413490e+06    1.954762e-08    9.888910e-12    1.590377e-08   -2.417850e-02
    2.440429e+01    2.394218e+02    3.051950e-02    6.017934e+06    1.969773e-08    1.026293e-11    1.610283e-08   -1.917850e-02
    2.416694e+01    2.428442e+02    3.446003e-02    6.679016e+06    1.984472e-08    1.064930e-11    1.629777e-08   -1.417850e-02
    2.391393e+01    2.463640e+02    3.886170e-02    7.399648e+06    1.998858e-08    1.104838e-11    1.648855e-08   -9.178500e-03
    2.364454e+01    2.499512e+02    4.376841e-02    8.182454e+06    2.012928e-08    1.146055e-11    1.667515e-08   -4.178500e-03
    2.335829e+01    2.535733e+02    4.922622e-02    9.029677e+06    2.026682e-08    1.188618e-11    1.685758e-08    8.215000e-04
    2.305502e+01    2.571970e+02    5.528305e-02    9.943109e+06    2.040119e-08    1.232567e-11    1.703585e-08    5.821500e-03
    2.273486e+01    2.607880e+02    6.198845e-02    1.092404e+07    2.053241e-08    1.277943e-11    1.720996e-08    1.082150e-02
    2.239823e+01    2.643122e+02    6.939310e-02    1.197319e+07    2.066047e-08    1.324788e-11    1.737993e-08    1.582150e-02
    2.204587e+01    2.677358e+02    7.754855e-02    1.309070e+07    2.078540e-08    1.373145e-11    1.754581e-08    2.082150e-02
    2.167878e+01    2.710265e+02    8.650670e-02    1.427606e+07    2.090721e-08    1.423059e-11    1.770761e-08    2.582150e-02
    2.129814e+01    2.741538e+02    9.631940e-02    1.552816e+07    2.102595e-08    1.474577e-11    1.786536e-08    3.082150e-02
    2.090539e+01    2.770898e+02    1.070379e-01    1.684526e+07    2.114163e-08    1.527746e-11    1.801915e-08    3.582150e-02
    2.050203e+01    2.798091e+02    1.187127e-01    1.822500e+07    2.125429e-08    1.582616e-11    1.816899e-08    4.082150e-02
    2.008974e+01    2.822892e+02    1.313925e-01    1.966450e+07    2.136397e-08    1.639238e-11    1.831495e-08    4.582150e-02
    1.967022e+01    2.845117e+02    1.451244e-01    2.116037e+07    2.147071e-08    1.697664e-11    1.845708e-08    5.082150e-02
    1.924520e+01    2.864609e+02    1.599533e-01    2.270879e+07    2.157455e-08    1.757949e-11    1.859545e-08    5.582150e-02
    1.881643e+01    2.881253e+02    1.759213e-01    2.430555e+07    2.167556e-08    1.820151e-11    1.873013e-08    6.082150e-02
    1.838556e+01    2.894964e+02    1.930680e-01    2.594621e+07    2.177376e-08    1.884327e-11    1.886119e-08    6.582150e-02
    1.795423e+01    2.905699e+02    2.114295e-01    2.762608e+07    2.186922e-08    1.950537e-11    1.898869e-08    7.082150e-02
    1.752396e+01    2.913439e+02    2.310390e-01    2.934039e+07    2.196200e-08    2.018845e-11    1.911270e-08    7.582150e-02
    1.709617e+01    2.918202e+02    2.519260e-01    3.108431e+07    2.205214e-08    2.089313e-11    1.923330e-08    8.082150e-02
    1.667215e+01    2.920028e+02    2.741168e-01    3.285306e+07    2.213970e-08    2.162012e-11    1.935058e-08    8.582150e-02
    1.625311e+01    2.918986e+02    2.976342e-01    3.464197e+07    2.222475e-08    2.237008e-11    1.946459e-08    9.082150e-02
    1.584007e+01    2.915162e+02    3.224976e-01    3.644652e+07    2.230734e-08    2.314373e-11    1.957543e-08    9.582150e-02
    1.543397e+01    2.908664e+02    3.487229e-01    3.826241e+07    2.238752e-08    2.394182e-11    1.968317e-08    1.008215e-01
    1.503562e+01    2.899612e+02    3.763232e-01    4.008565e+07    2.246536e-08    2.476512e-11    1.978788e-08    1.058215e-01
    1.464567e+01    2.888139e+02    4.053082e-01    4.191245e+07    2.254092e-08    2.561442e-11    1.988965e-08    1.108215e-01
    1.426469e+01    2.874383e+02    4.356852e-01    4.373940e+07    2.261427e-08    2.649055e-11    1.998854e-08    1.158215e-01
    1.389314e+01    2.858493e+02    4.674585e-01    4.556341e+07    2.268545e-08    2.739436e-11    2.008466e-08    1.208215e-01
    1.353136e+01    2.840616e+02    5.006300e-01    4.738172e+07    2.275452e-08    2.832673e-11    2.017806e-08    1.258215e-01
    1.317961e+01    2.820904e+02    5.352000e-01    4.919188e+07    2.282156e-08    2.928859e-11    2.026882e-08    1.308215e-01
    1.283805e+01    2.799506e+02    5.711665e-01    5.099184e+07    2.288660e-08    3.028087e-11    2.035703e-08    1.358215e-01
    1.250681e+01    2.776569e+02    6.085255e-01    5.277981e+07    2.294973e-08    3.130457e-11    2.044275e-08    1.408215e-01
    1.218591e+01    2.752236e+02    6.472715e-01    5.455436e+07    2.301097e-08    3.236070e-11    2.052605e-08    1.458215e-01
    1.187529e+01    2.726641e+02    6.873990e-01    5.631421e+07    2.307042e-08    3.345031e-11    2.060702e-08    1.508215e-01
    1.157493e+01    2.699921e+02    7.288995e-01    5.805856e+07    2.312810e-08    3.457451e-11    2.068573e-08    1.558215e-01
