# sky130 nfet_01v8 gm/ID Processed Lookup Table
# Corner: fs
# Temperature: 0C
# W = 2.0 um
# L = 4.32 um (4320 nm)
# Columns: gm/id [1/V]  gm/gds [V/V]  id/W [A/m]  ft [Hz]  Cgg/W [F/m]  Cgd/W [F/m]  Cgs/W [F/m]  Vov [V]
#         gm/id          gm/gds            id/W              ft           Cgg/W           Cgd/W           Cgs/W             Vov
    3.070424e+01    2.201481e+02    1.133419e-09    6.182598e-01    8.958555e-09    7.479190e-14    2.214582e-10   -6.003597e-01
    3.070400e+01    2.201464e+02    1.321489e-09    7.226281e-01    8.936430e-09    7.781090e-14    2.295683e-10   -5.953597e-01
    3.070376e+01    2.201446e+02    1.540765e-09    8.445643e-01    8.914875e-09    8.095495e-14    2.380644e-10   -5.903597e-01
    3.070348e+01    2.201426e+02    1.796422e-09    9.870140e-01    8.893910e-09    8.422970e-14    2.469689e-10   -5.853597e-01
    3.070319e+01    2.201405e+02    2.094498e-09    1.153417e+00    8.873545e-09    8.764110e-14    2.563057e-10   -5.803597e-01
    3.070288e+01    2.201384e+02    2.442028e-09    1.347785e+00    8.853790e-09    9.119540e-14    2.660999e-10   -5.753597e-01
    3.070255e+01    2.201360e+02    2.847218e-09    1.574797e+00    8.834675e-09    9.489920e-14    2.763784e-10   -5.703597e-01
    3.070217e+01    2.201333e+02    3.319633e-09    1.839915e+00    8.816205e-09    9.875940e-14    2.871681e-10   -5.653597e-01
    3.070178e+01    2.201304e+02    3.870424e-09    2.149504e+00    8.798405e-09    1.027833e-13    2.984996e-10   -5.603597e-01
    3.070134e+01    2.201273e+02    4.512593e-09    2.510990e+00    8.781295e-09    1.069785e-13    3.104050e-10   -5.553597e-01
    3.070088e+01    2.201239e+02    5.261295e-09    2.933030e+00    8.764905e-09    1.113529e-13    3.229177e-10   -5.503597e-01
    3.070037e+01    2.201204e+02    6.134205e-09    3.425716e+00    8.749245e-09    1.159151e-13    3.360728e-10   -5.453597e-01
    3.069983e+01    2.201165e+02    7.151920e-09    4.000813e+00    8.734350e-09    1.206737e-13    3.499076e-10   -5.403597e-01
    3.069925e+01    2.201123e+02    8.338460e-09    4.672024e+00    8.720245e-09    1.256384e-13    3.644614e-10   -5.353597e-01
    3.069861e+01    2.201077e+02    9.721825e-09    5.455318e+00    8.706960e-09    1.308186e-13    3.797755e-10   -5.303597e-01
    3.069792e+01    2.201028e+02    1.133466e-08    6.369298e+00    8.694525e-09    1.362248e-13    3.958934e-10   -5.253597e-01
    3.069719e+01    2.200976e+02    1.321500e-08    7.435627e+00    8.682970e-09    1.418677e-13    4.128613e-10   -5.203597e-01
    3.069639e+01    2.200919e+02    1.540722e-08    8.679528e+00    8.672330e-09    1.477587e-13    4.307273e-10   -5.153597e-01
    3.069553e+01    2.200857e+02    1.796304e-08    1.013035e+01    8.662645e-09    1.539096e-13    4.495423e-10   -5.103597e-01
    3.069461e+01    2.200791e+02    2.094274e-08    1.182228e+01    8.653950e-09    1.603330e-13    4.693596e-10   -5.053597e-01
    3.069361e+01    2.200719e+02    2.441658e-08    1.379505e+01    8.646285e-09    1.670421e-13    4.902354e-10   -5.003597e-01
    3.069254e+01    2.200643e+02    2.846649e-08    1.609491e+01    8.639695e-09    1.740506e-13    5.122285e-10   -4.953597e-01
    3.069139e+01    2.200560e+02    3.318798e-08    1.877560e+01    8.634230e-09    1.813731e-13    5.354000e-10   -4.903597e-01
    3.069012e+01    2.200470e+02    3.869234e-08    2.189961e+01    8.629930e-09    1.890249e-13    5.598155e-10   -4.853597e-01
    3.068877e+01    2.200373e+02    4.510932e-08    2.553959e+01    8.626845e-09    1.970219e-13    5.855415e-10   -4.803597e-01
    3.068732e+01    2.200268e+02    5.259015e-08    2.977987e+01    8.625030e-09    2.053809e-13    6.126495e-10   -4.753597e-01
    3.068574e+01    2.200156e+02    6.131115e-08    3.471844e+01    8.624540e-09    2.141196e-13    6.412125e-10   -4.703597e-01
    3.068404e+01    2.200035e+02    7.147775e-08    4.046903e+01    8.625430e-09    2.232565e-13    6.713080e-10   -4.653597e-01
    3.068220e+01    2.199903e+02    8.332945e-08    4.716361e+01    8.627760e-09    2.328110e-13    7.030150e-10   -4.603597e-01
    3.068023e+01    2.199762e+02    9.714530e-08    5.495525e+01    8.631600e-09    2.428036e-13    7.364180e-10   -4.553597e-01
    3.067808e+01    2.199609e+02    1.132507e-07    6.402154e+01    8.637005e-09    2.532556e-13    7.716030e-10   -4.503597e-01
    3.067578e+01    2.199444e+02    1.320247e-07    7.456821e+01    8.644045e-09    2.641893e-13    8.086600e-10   -4.453597e-01
    3.067330e+01    2.199267e+02    1.539090e-07    8.683365e+01    8.652795e-09    2.756285e-13    8.476820e-10   -4.403597e-01
    3.067061e+01    2.199075e+02    1.794185e-07    1.010939e+02    8.663330e-09    2.875976e-13    8.887645e-10   -4.353597e-01
    3.066771e+01    2.198868e+02    2.091532e-07    1.176686e+02    8.675715e-09    3.001225e-13    9.320080e-10   -4.303597e-01
    3.066460e+01    2.198646e+02    2.438121e-07    1.369276e+02    8.690035e-09    3.132302e-13    9.775145e-10   -4.253597e-01
    3.066123e+01    2.198406e+02    2.842098e-07    1.592984e+02    8.706370e-09    3.269491e-13    1.025389e-09   -4.203597e-01
    3.065759e+01    2.198147e+02    3.312951e-07    1.852754e+02    8.724800e-09    3.413089e-13    1.075741e-09   -4.153597e-01
    3.065366e+01    2.197867e+02    3.861740e-07    2.154294e+02    8.745415e-09    3.563404e-13    1.128679e-09   -4.103597e-01
    3.064943e+01    2.197565e+02    4.501342e-07    2.504200e+02    8.768300e-09    3.720762e-13    1.184319e-09   -4.053597e-01
    3.064485e+01    2.197240e+02    5.246765e-07    2.910084e+02    8.793540e-09    3.885503e-13    1.242776e-09   -4.003597e-01
    3.063995e+01    2.196890e+02    6.115480e-07    3.380721e+02    8.821235e-09    4.057980e-13    1.304167e-09   -3.953597e-01
    3.063462e+01    2.196512e+02    7.127855e-07    3.926234e+02    8.851470e-09    4.238564e-13    1.368612e-09   -3.903597e-01
    3.062891e+01    2.196106e+02    8.307585e-07    4.558283e+02    8.884340e-09    4.427643e-13    1.436231e-09   -3.853597e-01
    3.062272e+01    2.195667e+02    9.682290e-07    5.290301e+02    8.919935e-09    4.625620e-13    1.507147e-09   -3.803597e-01
    3.061607e+01    2.195195e+02    1.128411e-06    6.137738e+02    8.958360e-09    4.832916e-13    1.581483e-09   -3.753597e-01
    3.060889e+01    2.194686e+02    1.315048e-06    7.118374e+02    8.999710e-09    5.049970e-13    1.659360e-09   -3.703597e-01
    3.060115e+01    2.194138e+02    1.532497e-06    8.252654e+02    9.044070e-09    5.277245e-13    1.740903e-09   -3.653597e-01
    3.059283e+01    2.193549e+02    1.785831e-06    9.564059e+02    9.091545e-09    5.515210e-13    1.826231e-09   -3.603597e-01
    3.058381e+01    2.192913e+02    2.080952e-06    1.107954e+03    9.142230e-09    5.764365e-13    1.915467e-09   -3.553597e-01
    3.057413e+01    2.192229e+02    2.424732e-06    1.283007e+03    9.196210e-09    6.025230e-13    2.008727e-09   -3.503597e-01
    3.056370e+01    2.191494e+02    2.825162e-06    1.485113e+03    9.253585e-09    6.298335e-13    2.106128e-09   -3.453597e-01
    3.055246e+01    2.190704e+02    3.291543e-06    1.718341e+03    9.314435e-09    6.584250e-13    2.207783e-09   -3.403597e-01
    3.054036e+01    2.189852e+02    3.834691e-06    1.987352e+03    9.378855e-09    6.883545e-13    2.313799e-09   -3.353597e-01
    3.052733e+01    2.188939e+02    4.467185e-06    2.297484e+03    9.446925e-09    7.196830e-13    2.424281e-09   -3.303597e-01
    3.051330e+01    2.187956e+02    5.203650e-06    2.654843e+03    9.518720e-09    7.524725e-13    2.539327e-09   -3.253597e-01
    3.049820e+01    2.186900e+02    6.061090e-06    3.066415e+03    9.594320e-09    7.867880e-13    2.659030e-09   -3.203597e-01
    3.048194e+01    2.185767e+02    7.059265e-06    3.540184e+03    9.673785e-09    8.226970e-13    2.783474e-09   -3.153597e-01
    3.046448e+01    2.184551e+02    8.221125e-06    4.085267e+03    9.757190e-09    8.602685e-13    2.912737e-09   -3.103597e-01
    3.044568e+01    2.183246e+02    9.573350e-06    4.712077e+03    9.844585e-09    8.995745e-13    3.046888e-09   -3.053597e-01
    3.042547e+01    2.181847e+02    1.114691e-05    5.432495e+03    9.936020e-09    9.406905e-13    3.185986e-09   -3.003597e-01
    3.040376e+01    2.180349e+02    1.297774e-05    6.260070e+03    1.003154e-08    9.836925e-13    3.330081e-09   -2.953597e-01
    3.038044e+01    2.178743e+02    1.510758e-05    7.210237e+03    1.013117e-08    1.028660e-12    3.479210e-09   -2.903597e-01
    3.035542e+01    2.177026e+02    1.758484e-05    8.300597e+03    1.023494e-08    1.075676e-12    3.633402e-09   -2.853597e-01
    3.032851e+01    2.175188e+02    2.046565e-05    9.551148e+03    1.034287e-08    1.124825e-12    3.792671e-09   -2.803597e-01
    3.029969e+01    2.173227e+02    2.381508e-05    1.098469e+04    1.045496e-08    1.176193e-12    3.957018e-09   -2.753597e-01
    3.026876e+01    2.171131e+02    2.770855e-05    1.262711e+04    1.057120e-08    1.229872e-12    4.126432e-09   -2.703597e-01
    3.023562e+01    2.168897e+02    3.223339e-05    1.450783e+04    1.069160e-08    1.285954e-12    4.300887e-09   -2.653597e-01
    3.020013e+01    2.166516e+02    3.749071e-05    1.666028e+04    1.081609e-08    1.344535e-12    4.480343e-09   -2.603597e-01
    3.016214e+01    2.163983e+02    4.359750e-05    1.912236e+04    1.094467e-08    1.405711e-12    4.664745e-09   -2.553597e-01
    3.012152e+01    2.161289e+02    5.068905e-05    2.193707e+04    1.107727e-08    1.469587e-12    4.854023e-09   -2.503597e-01
    3.007807e+01    2.158430e+02    5.892175e-05    2.515311e+04    1.121383e-08    1.536263e-12    5.048090e-09   -2.453597e-01
    3.003168e+01    2.155401e+02    6.847620e-05    2.882571e+04    1.135428e-08    1.605849e-12    5.246850e-09   -2.403597e-01
    2.998219e+01    2.152195e+02    7.956085e-05    3.301723e+04    1.149853e-08    1.678452e-12    5.450185e-09   -2.353597e-01
    2.992943e+01    2.148807e+02    9.241620e-05    3.779826e+04    1.164648e-08    1.754185e-12    5.657960e-09   -2.303597e-01
    2.987325e+01    2.145235e+02    1.073195e-04    4.324857e+04    1.179803e-08    1.833164e-12    5.870035e-09   -2.253597e-01
    2.981346e+01    2.141477e+02    1.245901e-04    4.945807e+04    1.195305e-08    1.915507e-12    6.086245e-09   -2.203597e-01
    2.974994e+01    2.137532e+02    1.445953e-04    5.652827e+04    1.211141e-08    2.001335e-12    6.306415e-09   -2.153597e-01
    2.968251e+01    2.133401e+02    1.677579e-04    6.457349e+04    1.227297e-08    2.090773e-12    6.530360e-09   -2.103597e-01
    2.961106e+01    2.129088e+02    1.945633e-04    7.372245e+04    1.243756e-08    2.183948e-12    6.757875e-09   -2.053597e-01
    2.953544e+01    2.124599e+02    2.255689e-04    8.411991e+04    1.260503e-08    2.280990e-12    6.988750e-09   -2.003597e-01
    2.945552e+01    2.119942e+02    2.614138e-04    9.592850e+04    1.277520e-08    2.382033e-12    7.222755e-09   -1.953597e-01
    2.937120e+01    2.115130e+02    3.028305e-04    1.093307e+05    1.294790e-08    2.487213e-12    7.459655e-09   -1.903597e-01
    2.928240e+01    2.110180e+02    3.506572e-04    1.245315e+05    1.312292e-08    2.596671e-12    7.699210e-09   -1.853597e-01
    2.918905e+01    2.105110e+02    4.058524e-04    1.417602e+05    1.330007e-08    2.710549e-12    7.941155e-09   -1.803597e-01
    2.909112e+01    2.099952e+02    4.695111e-04    1.612738e+05    1.347916e-08    2.828995e-12    8.185240e-09   -1.753597e-01
    2.898860e+01    2.094732e+02    5.428825e-04    1.833596e+05    1.365997e-08    2.952157e-12    8.431190e-09   -1.703597e-01
    2.888152e+01    2.089490e+02    6.273910e-04    2.083391e+05    1.384228e-08    3.080189e-12    8.678740e-09   -1.653597e-01
    2.876993e+01    2.084272e+02    7.246585e-04    2.365712e+05    1.402589e-08    3.213249e-12    8.927605e-09   -1.603597e-01
    2.865395e+01    2.079127e+02    8.365300e-04    2.684569e+05    1.421057e-08    3.351496e-12    9.177510e-09   -1.553597e-01
    2.853371e+01    2.074118e+02    9.651015e-04    3.044432e+05    1.439611e-08    3.495095e-12    9.428180e-09   -1.503597e-01
    2.840943e+01    2.069312e+02    1.112754e-03    3.450294e+05    1.458228e-08    3.644214e-12    9.679330e-09   -1.453597e-01
    2.828132e+01    2.064788e+02    1.282185e-03    3.907720e+05    1.476886e-08    3.799025e-12    9.930685e-09   -1.403597e-01
    2.814965e+01    2.060630e+02    1.476456e-03    4.422913e+05    1.495565e-08    3.959704e-12    1.018197e-08   -1.353597e-01
    2.801476e+01    2.056936e+02    1.699029e-03    5.002796e+05    1.514241e-08    4.126431e-12    1.043290e-08   -1.303597e-01
    2.787698e+01    2.053809e+02    1.953822e-03    5.655079e+05    1.532894e-08    4.299390e-12    1.068323e-08   -1.253597e-01
    2.773667e+01    2.051362e+02    2.245263e-03    6.388353e+05    1.551503e-08    4.478770e-12    1.093267e-08   -1.203597e-01
    2.759423e+01    2.049717e+02    2.578352e-03    7.212202e+05    1.570048e-08    4.664765e-12    1.118100e-08   -1.153597e-01
    2.745006e+01    2.049003e+02    2.958735e-03    8.137295e+05    1.588508e-08    4.857573e-12    1.142794e-08   -1.103597e-01
    2.730451e+01    2.049352e+02    3.392777e-03    9.175514e+05    1.606865e-08    5.057395e-12    1.167327e-08   -1.053597e-01
    2.715790e+01    2.050904e+02    3.887651e-03    1.034007e+06    1.625100e-08    5.264445e-12    1.191676e-08   -1.003597e-01
    2.701053e+01    2.053796e+02    4.451435e-03    1.164565e+06    1.643196e-08    5.478930e-12    1.215819e-08   -9.535970e-02
    2.686257e+01    2.058172e+02    5.093215e-03    1.310855e+06    1.661136e-08    5.701070e-12    1.239734e-08   -9.035970e-02
    2.671408e+01    2.064163e+02    5.823210e-03    1.474678e+06    1.678904e-08    5.931095e-12    1.263403e-08   -8.535970e-02
    2.656507e+01    2.071901e+02    6.652875e-03    1.658024e+06    1.696484e-08    6.169225e-12    1.286806e-08   -8.035970e-02
    2.641525e+01    2.081503e+02    7.595080e-03    1.863079e+06    1.713863e-08    6.415705e-12    1.309927e-08   -7.535970e-02
    2.626429e+01    2.093074e+02    8.664205e-03    2.092237e+06    1.731026e-08    6.670775e-12    1.332748e-08   -7.035970e-02
    2.611160e+01    2.106699e+02    9.876325e-03    2.348102e+06    1.747962e-08    6.934685e-12    1.355257e-08   -6.535970e-02
    2.595641e+01    2.122444e+02    1.124936e-02    2.633491e+06    1.764660e-08    7.207695e-12    1.377437e-08   -6.035970e-02
    2.579777e+01    2.140346e+02    1.280325e-02    2.951427e+06    1.781109e-08    7.490060e-12    1.399277e-08   -5.535970e-02
    2.563456e+01    2.160413e+02    1.456006e-02    3.305133e+06    1.797298e-08    7.782055e-12    1.420767e-08   -5.035970e-02
    2.546549e+01    2.182624e+02    1.654418e-02    3.697998e+06    1.813221e-08    8.083960e-12    1.441895e-08   -4.535970e-02
    2.528914e+01    2.206919e+02    1.878248e-02    4.133562e+06    1.828869e-08    8.396065e-12    1.462653e-08   -4.035970e-02
    2.510405e+01    2.233204e+02    2.130436e-02    4.615467e+06    1.844236e-08    8.718655e-12    1.483033e-08   -3.535970e-02
    2.490871e+01    2.261350e+02    2.414188e-02    5.147415e+06    1.859316e-08    9.052045e-12    1.503029e-08   -3.035970e-02
    2.470161e+01    2.291183e+02    2.732984e-02    5.733090e+06    1.874104e-08    9.396540e-12    1.522635e-08   -2.535970e-02
    2.448140e+01    2.322505e+02    3.090575e-02    6.376122e+06    1.888596e-08    9.752460e-12    1.541847e-08   -2.035970e-02
    2.424681e+01    2.355076e+02    3.490985e-02    7.079983e+06    1.902789e-08    1.012015e-11    1.560662e-08   -1.535970e-02
    2.399680e+01    2.388631e+02    3.938498e-02    7.847921e+06    1.916680e-08    1.049994e-11    1.579077e-08   -1.035970e-02
    2.373052e+01    2.422878e+02    4.437650e-02    8.682866e+06    1.930267e-08    1.089219e-11    1.597091e-08   -5.359700e-03
    2.344747e+01    2.457505e+02    4.993200e-02    9.587364e+06    1.943551e-08    1.129725e-11    1.614703e-08   -3.597000e-04
    2.314738e+01    2.492186e+02    5.610115e-02    1.056349e+07    1.956529e-08    1.171552e-11    1.631914e-08    4.640300e-03
    2.283033e+01    2.526589e+02    6.293530e-02    1.161278e+07    1.969203e-08    1.214737e-11    1.648725e-08    9.640300e-03
    2.249666e+01    2.560380e+02    7.048725e-02    1.273616e+07    1.981573e-08    1.259321e-11    1.665137e-08    1.464030e-02
    2.214706e+01    2.593228e+02    7.881060e-02    1.393393e+07    1.993643e-08    1.305344e-11    1.681154e-08    1.964030e-02
    2.178244e+01    2.624815e+02    8.795955e-02    1.520569e+07    2.005411e-08    1.352849e-11    1.696779e-08    2.464030e-02
    2.140396e+01    2.654840e+02    9.798835e-02    1.655039e+07    2.016882e-08    1.401881e-11    1.712014e-08    2.964030e-02
    2.101298e+01    2.683025e+02    1.089507e-01    1.796625e+07    2.028058e-08    1.452484e-11    1.726864e-08    3.464030e-02
    2.061103e+01    2.709118e+02    1.208996e-01    1.945088e+07    2.038944e-08    1.504706e-11    1.741334e-08    3.964030e-02
    2.019973e+01    2.732897e+02    1.338863e-01    2.100124e+07    2.049541e-08    1.558595e-11    1.755431e-08    4.464030e-02
    1.978079e+01    2.754176e+02    1.479604e-01    2.261375e+07    2.059855e-08    1.614203e-11    1.769158e-08    4.964030e-02
    1.935595e+01    2.772799e+02    1.631693e-01    2.428433e+07    2.069890e-08    1.671579e-11    1.782522e-08    5.464030e-02
    1.892695e+01    2.788648e+02    1.795579e-01    2.600849e+07    2.079650e-08    1.730779e-11    1.795529e-08    5.964030e-02
    1.849550e+01    2.801640e+02    1.971676e-01    2.778142e+07    2.089139e-08    1.791856e-11    1.808186e-08    6.464030e-02
    1.806322e+01    2.811724e+02    2.160373e-01    2.959806e+07    2.098364e-08    1.854870e-11    1.820499e-08    6.964030e-02
    1.763167e+01    2.818883e+02    2.362021e-01    3.145321e+07    2.107329e-08    1.919879e-11    1.832476e-08    7.464030e-02
    1.720231e+01    2.823132e+02    2.576936e-01    3.334162e+07    2.116039e-08    1.986945e-11    1.844124e-08    7.964030e-02
    1.677646e+01    2.824507e+02    2.805401e-01    3.525806e+07    2.124501e-08    2.056131e-11    1.855449e-08    8.464030e-02
    1.635534e+01    2.823076e+02    3.047659e-01    3.719739e+07    2.132719e-08    2.127502e-11    1.866459e-08    8.964030e-02
    1.594004e+01    2.818925e+02    3.303919e-01    3.915465e+07    2.140699e-08    2.201128e-11    1.877163e-08    9.464030e-02
    1.553151e+01    2.812155e+02    3.574357e-01    4.112510e+07    2.148447e-08    2.277078e-11    1.887566e-08    9.964030e-02
    1.513058e+01    2.802886e+02    3.859112e-01    4.310430e+07    2.155969e-08    2.355426e-11    1.897678e-08    1.046403e-01
    1.473796e+01    2.791250e+02    4.158294e-01    4.508809e+07    2.163270e-08    2.436246e-11    1.907504e-08    1.096403e-01
    1.435422e+01    2.777383e+02    4.471981e-01    4.707265e+07    2.170357e-08    2.519618e-11    1.917054e-08    1.146403e-01
    1.397985e+01    2.761429e+02    4.800224e-01    4.905452e+07    2.177234e-08    2.605622e-11    1.926333e-08    1.196403e-01
    1.361522e+01    2.743540e+02    5.143050e-01    5.103067e+07    2.183908e-08    2.694342e-11    1.935351e-08    1.246403e-01
    1.326060e+01    2.723860e+02    5.500460e-01    5.299831e+07    2.190384e-08    2.785865e-11    1.944113e-08    1.296403e-01
    1.291620e+01    2.702542e+02    5.872435e-01    5.495519e+07    2.196668e-08    2.880281e-11    1.952628e-08    1.346403e-01
    1.258212e+01    2.679728e+02    6.258940e-01    5.689924e+07    2.202766e-08    2.977685e-11    1.960903e-08    1.396403e-01
    1.225841e+01    2.655559e+02    6.659920e-01    5.882880e+07    2.208683e-08    3.078170e-11    1.968945e-08    1.446403e-01
    1.194505e+01    2.630174e+02    7.075315e-01    6.074255e+07    2.214425e-08    3.181841e-11    1.976760e-08    1.496403e-01
    1.164197e+01    2.603700e+02    7.505045e-01    6.263941e+07    2.219996e-08    3.288797e-11    1.984356e-08    1.546403e-01
