# sky130 pfet_01v8 gm/ID Processed Lookup Table
# Corner: ff
# Temperature: 85C
# W = 2.0 um
# L = 1.5 um (1500 nm)
# Columns: gm/id [1/V]  gm/gds [V/V]  id/W [A/m]  ft [Hz]  Cgg/W [F/m]  Cgd/W [F/m]  Cgs/W [F/m]  Cdb/W [F/m]  vgs [V]  vth [V]  vdsat [V]
# vdsat = BSIM4 saturation voltage (|VDS|_sat, positive); use for headroom / saturation / cascode-bias calculations
#           gm/id          gm/gds            id/W              ft           Cgg/W           Cgd/W           Cgs/W           Cdb/W             vgs             vth           vdsat
    1.520579e+00    2.083296e+00    1.493584e+01    3.613379e+08    1.000335e-08    1.358267e-09    8.730760e-09    1.002548e-09   -1.800000e+00    8.893820e-01    8.080641e-01
    1.549888e+00    2.167541e+00    1.470873e+01    3.641319e+08    9.964070e-09    1.299929e-09    8.741245e-09    9.969685e-10   -1.790000e+00    8.893820e-01    7.995616e-01
    1.580163e+00    2.257922e+00    1.447991e+01    3.669114e+08    9.924915e-09    1.242270e-09    8.751085e-09    9.913550e-10   -1.780000e+00    8.893820e-01    7.910660e-01
    1.611303e+00    2.355087e+00    1.425070e+01    3.696704e+08    9.885955e-09    1.185418e-09    8.760250e-09    9.857205e-10   -1.770000e+00    8.893820e-01    7.825772e-01
    1.643385e+00    2.459777e+00    1.402068e+01    3.724021e+08    9.847275e-09    1.129500e-09    8.802125e-09    1.016691e-09   -1.760000e+00    8.893820e-01    7.740951e-01
    1.676442e+00    2.572824e+00    1.378988e+01    3.750994e+08    9.808950e-09    1.074638e-09    8.808060e-09    1.009158e-09   -1.750000e+00    8.893820e-01    7.656196e-01
    1.710508e+00    2.695183e+00    1.355833e+01    3.777546e+08    9.771055e-09    1.020952e-09    8.813295e-09    1.001722e-09   -1.740000e+00    8.893820e-01    7.571506e-01
    1.745615e+00    2.827936e+00    1.332606e+01    3.803593e+08    9.733660e-09    9.685530e-10    8.817800e-09    9.943965e-10   -1.730000e+00    8.893820e-01    7.486879e-01
    1.781796e+00    2.972321e+00    1.309309e+01    3.829043e+08    9.696840e-09    9.175455e-10    8.821545e-09    9.871930e-10   -1.720000e+00    8.893820e-01    7.402316e-01
    1.819082e+00    3.129753e+00    1.285948e+01    3.853802e+08    9.660650e-09    8.680240e-10    8.824520e-09    9.801230e-10   -1.710000e+00    8.893820e-01    7.317814e-01
    1.857498e+00    3.301847e+00    1.262526e+01    3.877760e+08    9.625160e-09    8.200730e-10    8.826700e-09    9.731980e-10   -1.700000e+00    8.893820e-01    7.233374e-01
    1.897073e+00    3.490451e+00    1.239047e+01    3.900810e+08    9.590410e-09    7.737660e-10    8.828080e-09    9.664280e-10   -1.690000e+00    8.893820e-01    7.148993e-01
    1.937826e+00    3.697683e+00    1.215517e+01    3.922827e+08    9.556450e-09    7.291630e-10    8.828645e-09    9.598215e-10   -1.680000e+00    8.893820e-01    7.064671e-01
    1.979775e+00    3.925953e+00    1.191939e+01    3.943684e+08    9.523315e-09    6.863120e-10    8.828390e-09    9.533865e-10   -1.670000e+00    8.893820e-01    6.980407e-01
    2.022930e+00    4.178018e+00    1.168323e+01    3.963242e+08    9.491030e-09    6.452485e-10    8.827315e-09    9.471295e-10   -1.660000e+00    8.893820e-01    6.896200e-01
    2.067296e+00    4.457015e+00    1.144674e+01    3.981353e+08    9.459620e-09    6.059945e-10    8.825420e-09    9.410550e-10   -1.650000e+00    8.893820e-01    6.812049e-01
    2.112870e+00    4.766499e+00    1.120998e+01    3.997861e+08    9.429095e-09    5.685600e-10    8.822715e-09    9.351680e-10   -1.640000e+00    8.893820e-01    6.727953e-01
    2.159640e+00    5.110487e+00    1.097306e+01    4.012606e+08    9.399455e-09    5.329415e-10    8.819200e-09    9.294695e-10   -1.630000e+00    8.893820e-01    6.643911e-01
    2.207587e+00    5.493488e+00    1.073606e+01    4.025418e+08    9.370695e-09    4.991266e-10    8.814890e-09    9.239610e-10   -1.620000e+00    8.893820e-01    6.559923e-01
    2.256682e+00    5.920526e+00    1.049908e+01    4.036121e+08    9.342810e-09    4.670906e-10    8.809795e-09    9.186425e-10   -1.610000e+00    8.893820e-01    6.475987e-01
    2.306890e+00    6.397156e+00    1.026224e+01    4.044548e+08    9.315775e-09    4.368003e-10    8.803930e-09    9.135125e-10   -1.600000e+00    8.893820e-01    6.392102e-01
    2.358167e+00    6.929455e+00    1.002565e+01    4.050528e+08    9.289565e-09    4.082139e-10    8.797300e-09    9.085680e-10   -1.590000e+00    8.893820e-01    6.308268e-01
    2.410467e+00    7.523988e+00    9.789435e+00    4.053903e+08    9.264150e-09    3.812828e-10    8.789930e-09    9.038050e-10   -1.580000e+00    8.893820e-01    6.224483e-01
    2.463739e+00    8.187760e+00    9.553750e+00    4.054530e+08    9.239495e-09    3.559527e-10    8.781820e-09    8.992195e-10   -1.570000e+00    8.893820e-01    6.140748e-01
    2.517938e+00    8.928122e+00    9.318725e+00    4.052284e+08    9.215560e-09    3.321639e-10    8.772995e-09    8.948055e-10   -1.560000e+00    8.893820e-01    6.057061e-01
    2.573018e+00    9.752664e+00    9.084520e+00    4.047071e+08    9.192300e-09    3.098539e-10    8.763460e-09    8.905565e-10   -1.550000e+00    8.893820e-01    5.973421e-01
    2.628948e+00    1.066908e+01    8.851285e+00    4.038824e+08    9.169665e-09    2.889568e-10    8.753225e-09    8.864655e-10   -1.540000e+00    8.893820e-01    5.889828e-01
    2.685703e+00    1.168499e+01    8.619180e+00    4.027508e+08    9.147610e-09    2.694059e-10    8.742305e-09    8.825255e-10   -1.530000e+00    8.893820e-01    5.806281e-01
    2.743276e+00    1.280782e+01    8.388370e+00    4.013127e+08    9.126080e-09    2.511330e-10    8.730705e-09    8.787280e-10   -1.520000e+00    8.893820e-01    5.722779e-01
    2.801680e+00    1.404459e+01    8.159000e+00    3.995714e+08    9.105025e-09    2.340704e-10    8.718430e-09    8.750655e-10   -1.510000e+00    8.893820e-01    5.639323e-01
    2.860939e+00    1.540187e+01    7.931240e+00    3.975340e+08    9.084385e-09    2.181507e-10    8.705480e-09    8.715285e-10   -1.500000e+00    8.893820e-01    5.555910e-01
    2.921102e+00    1.688554e+01    7.705235e+00    3.952094e+08    9.064115e-09    2.033079e-10    8.691865e-09    8.681095e-10   -1.490000e+00    8.893820e-01    5.472541e-01
    2.982230e+00    1.850087e+01    7.481135e+00    3.926099e+08    9.044145e-09    1.894774e-10    8.677575e-09    8.647985e-10   -1.480000e+00    8.893820e-01    5.389216e-01
    3.044409e+00    2.025238e+01    7.259070e+00    3.897481e+08    9.024435e-09    1.765971e-10    8.662610e-09    8.615875e-10   -1.470000e+00    8.893820e-01    5.305934e-01
    3.107727e+00    2.214395e+01    7.039185e+00    3.866391e+08    9.004915e-09    1.646067e-10    8.646965e-09    8.584675e-10   -1.460000e+00    8.893820e-01    5.222694e-01
    3.172297e+00    2.417884e+01    6.821595e+00    3.832973e+08    8.985540e-09    1.534485e-10    8.630630e-09    8.554295e-10   -1.450000e+00    8.893820e-01    5.139498e-01
    3.238236e+00    2.635980e+01    6.606420e+00    3.797382e+08    8.966245e-09    1.430678e-10    8.613590e-09    8.524640e-10   -1.440000e+00    8.893820e-01    5.056344e-01
    3.305676e+00    2.868917e+01    6.393765e+00    3.759762e+08    8.946985e-09    1.334121e-10    8.595840e-09    8.495635e-10   -1.430000e+00    8.893820e-01    4.973232e-01
    3.374749e+00    3.116908e+01    6.183735e+00    3.720259e+08    8.927695e-09    1.244321e-10    8.577350e-09    8.467185e-10   -1.420000e+00    8.893820e-01    4.890164e-01
    3.445600e+00    3.380148e+01    5.976425e+00    3.679005e+08    8.908325e-09    1.160813e-10    8.558110e-09    8.439210e-10   -1.410000e+00    8.893820e-01    4.807139e-01
    3.518379e+00    3.658837e+01    5.771920e+00    3.636127e+08    8.888820e-09    1.083156e-10    8.538095e-09    8.411615e-10   -1.400000e+00    8.893820e-01    4.724158e-01
    3.593248e+00    3.953193e+01    5.570295e+00    3.591739e+08    8.869125e-09    1.010939e-10    8.517280e-09    8.384325e-10   -1.390000e+00    8.893820e-01    4.641222e-01
    3.670360e+00    4.263458e+01    5.371635e+00    3.545947e+08    8.849180e-09    9.437740e-11    8.495635e-09    8.357255e-10   -1.380000e+00    8.893820e-01    4.558331e-01
    3.749892e+00    4.589907e+01    5.176000e+00    3.498844e+08    8.828940e-09    8.813025e-11    8.473130e-09    8.330320e-10   -1.370000e+00    8.893820e-01    4.475488e-01
    3.832012e+00    4.932869e+01    4.983465e+00    3.450519e+08    8.808340e-09    8.231875e-11    8.449725e-09    8.303435e-10   -1.360000e+00    8.893820e-01    4.392693e-01
    3.916906e+00    5.292720e+01    4.794087e+00    3.401044e+08    8.787330e-09    7.691140e-11    8.425395e-09    8.276520e-10   -1.350000e+00    8.893820e-01    4.309949e-01
    4.004762e+00    5.669899e+01    4.607925e+00    3.350489e+08    8.765850e-09    7.187915e-11    8.400090e-09    8.249495e-10   -1.340000e+00    8.893820e-01    4.227257e-01
    4.095779e+00    6.064911e+01    4.425032e+00    3.298911e+08    8.743845e-09    6.719475e-11    8.373765e-09    8.222275e-10   -1.330000e+00    8.893820e-01    4.144622e-01
    4.190164e+00    6.478324e+01    4.245462e+00    3.246361e+08    8.721260e-09    6.283305e-11    8.346385e-09    8.194780e-10   -1.320000e+00    8.893820e-01    4.062045e-01
    4.288131e+00    6.910784e+01    4.069265e+00    3.192883e+08    8.698035e-09    5.877070e-11    8.317895e-09    8.166925e-10   -1.310000e+00    8.893820e-01    3.979531e-01
    4.389911e+00    7.363012e+01    3.896487e+00    3.138514e+08    8.674110e-09    5.498605e-11    8.288240e-09    8.138630e-10   -1.300000e+00    8.893820e-01    3.897085e-01
    4.495740e+00    7.835803e+01    3.727175e+00    3.083286e+08    8.649425e-09    5.145890e-11    8.257365e-09    8.109810e-10   -1.290000e+00    8.893820e-01    3.814711e-01
    4.605871e+00    8.330032e+01    3.561373e+00    3.027225e+08    8.623920e-09    4.817077e-11    8.225220e-09    8.080380e-10   -1.280000e+00    8.893820e-01    3.732416e-01
    4.720566e+00    8.846653e+01    3.399125e+00    2.970348e+08    8.597535e-09    4.510439e-11    8.191735e-09    8.050255e-10   -1.270000e+00    8.893820e-01    3.650206e-01
    4.840102e+00    9.386703e+01    3.240471e+00    2.912674e+08    8.570200e-09    4.224385e-11    8.156850e-09    8.019345e-10   -1.260000e+00    8.893820e-01    3.568090e-01
    4.964770e+00    9.951295e+01    3.085454e+00    2.854212e+08    8.541855e-09    3.957439e-11    8.120495e-09    7.987565e-10   -1.250000e+00    8.893820e-01    3.486077e-01
    5.094875e+00    1.054162e+02    2.934113e+00    2.794967e+08    8.512435e-09    3.708238e-11    8.082605e-09    7.954820e-10   -1.240000e+00    8.893820e-01    3.404178e-01
    5.230735e+00    1.115894e+02    2.786488e+00    2.734942e+08    8.481875e-09    3.475520e-11    8.043105e-09    7.921025e-10   -1.230000e+00    8.893820e-01    3.322404e-01
    5.372684e+00    1.180461e+02    2.642619e+00    2.674140e+08    8.450100e-09    3.258119e-11    8.001920e-09    7.886085e-10   -1.220000e+00    8.893820e-01    3.240770e-01
    5.521066e+00    1.248002e+02    2.502542e+00    2.612551e+08    8.417045e-09    3.054956e-11    7.958965e-09    7.849900e-10   -1.210000e+00    8.893820e-01    3.159292e-01
    5.676242e+00    1.318665e+02    2.366297e+00    2.550172e+08    8.382640e-09    2.865030e-11    7.914170e-09    7.812380e-10   -1.200000e+00    8.893820e-01    3.077988e-01
    5.838582e+00    1.392601e+02    2.233921e+00    2.486994e+08    8.346810e-09    2.687418e-11    7.867445e-09    7.773420e-10   -1.190000e+00    8.893820e-01    2.996877e-01
    6.008460e+00    1.469965e+02    2.105450e+00    2.423005e+08    8.309485e-09    2.521266e-11    7.818710e-09    7.732925e-10   -1.180000e+00    8.893820e-01    2.915984e-01
    6.186262e+00    1.550913e+02    1.980922e+00    2.358192e+08    8.270595e-09    2.365780e-11    7.767875e-09    7.690790e-10   -1.170000e+00    8.893820e-01    2.835335e-01
    6.372373e+00    1.635600e+02    1.860372e+00    2.292545e+08    8.230065e-09    2.220229e-11    7.714855e-09    7.646915e-10   -1.160000e+00    8.893820e-01    2.754960e-01
    6.567176e+00    1.724180e+02    1.743834e+00    2.226054e+08    8.187820e-09    2.083935e-11    7.659560e-09    7.601195e-10   -1.150000e+00    8.893820e-01    2.674892e-01
    6.771038e+00    1.816796e+02    1.631341e+00    2.158707e+08    8.143790e-09    1.956268e-11    7.601905e-09    7.553525e-10   -1.140000e+00    8.893820e-01    2.595170e-01
    6.984310e+00    1.913582e+02    1.522927e+00    2.090501e+08    8.097900e-09    1.836646e-11    7.541790e-09    7.503800e-10   -1.130000e+00    8.893820e-01    2.515836e-01
    7.207317e+00    2.014650e+02    1.418620e+00    2.021434e+08    8.050080e-09    1.724529e-11    7.479140e-09    7.451910e-10   -1.120000e+00    8.893820e-01    2.436937e-01
    7.440347e+00    2.120096e+02    1.318447e+00    1.951513e+08    8.000265e-09    1.619416e-11    7.413855e-09    7.397755e-10   -1.110000e+00    8.893820e-01    2.358527e-01
    7.683615e+00    2.229977e+02    1.222433e+00    1.880754e+08    7.948385e-09    1.520843e-11    7.345860e-09    7.341230e-10   -1.100000e+00    8.893820e-01    2.280665e-01
    7.937283e+00    2.344312e+02    1.130599e+00    1.809184e+08    7.894375e-09    1.428380e-11    7.275070e-09    7.282230e-10   -1.090000e+00    8.893820e-01    2.203416e-01
    8.201403e+00    2.463071e+02    1.042960e+00    1.736845e+08    7.838175e-09    1.341626e-11    7.201400e-09    7.220655e-10   -1.080000e+00    8.893820e-01    2.126854e-01
    8.475925e+00    2.586160e+02    9.595265e-01    1.663795e+08    7.779730e-09    1.260208e-11    7.124780e-09    7.156405e-10   -1.070000e+00    8.893820e-01    2.051058e-01
    8.760658e+00    2.713410e+02    8.803020e-01    1.590115e+08    7.718980e-09    1.183783e-11    7.045145e-09    7.089385e-10   -1.060000e+00    8.893820e-01    1.976115e-01
    9.055227e+00    2.844565e+02    8.052830e-01    1.515905e+08    7.655895e-09    1.112028e-11    6.962425e-09    7.019515e-10   -1.050000e+00    8.893820e-01    1.902120e-01
    9.359063e+00    2.979264e+02    7.344560e-01    1.441294e+08    7.590420e-09    1.044646e-11    6.876565e-09    6.946705e-10   -1.040000e+00    8.893820e-01    1.829175e-01
    9.671405e+00    3.117039e+02    6.677970e-01    1.366439e+08    7.522530e-09    9.813575e-12    6.787530e-09    6.870875e-10   -1.030000e+00    8.893820e-01    1.757390e-01
    9.991186e+00    3.257285e+02    6.052715e-01    1.291524e+08    7.452205e-09    9.219060e-12    6.695275e-09    6.791965e-10   -1.020000e+00    8.893820e-01    1.686883e-01
    1.031710e+01    3.399270e+02    5.468310e-01    1.216769e+08    7.379430e-09    8.660490e-12    6.599775e-09    6.709910e-10   -1.010000e+00    8.893820e-01    1.617775e-01
    1.064753e+01    3.542119e+02    4.924140e-01    1.142424e+08    7.304195e-09    8.135625e-12    6.501020e-09    6.624660e-10   -1.000000e+00    8.893820e-01    1.550196e-01
    1.098057e+01    3.684811e+02    4.419429e-01    1.068765e+08    7.226515e-09    7.642370e-12    6.399015e-09    6.536185e-10   -9.900000e-01    8.893820e-01    1.484278e-01
    1.131398e+01    3.826195e+02    3.953246e-01    9.960964e+07    7.146410e-09    7.178775e-12    6.293775e-09    6.444455e-10   -9.800000e-01    8.893820e-01    1.420154e-01
    1.164526e+01    3.965002e+02    3.524498e-01    9.247438e+07    7.063910e-09    6.743015e-12    6.185325e-09    6.349465e-10   -9.700000e-01    8.893820e-01    1.357960e-01
    1.197166e+01    4.099869e+02    3.131926e-01    8.550448e+07    6.979065e-09    6.333390e-12    6.073730e-09    6.251220e-10   -9.600000e-01    8.893820e-01    1.297826e-01
    1.229025e+01    4.229378e+02    2.774112e-01    7.873420e+07    6.891940e-09    5.948310e-12    5.959045e-09    6.149740e-10   -9.500000e-01    8.893820e-01    1.239879e-01
    1.259797e+01    4.352104e+02    2.449488e-01    7.219735e+07    6.802600e-09    5.586285e-12    5.841360e-09    6.045070e-10   -9.400000e-01    8.893820e-01    1.184237e-01
    1.289177e+01    4.466663e+02    2.156351e-01    6.592579e+07    6.711150e-09    5.245925e-12    5.720785e-09    5.937260e-10   -9.300000e-01    8.893820e-01    1.131008e-01
    1.316870e+01    4.571784e+02    1.892882e-01    5.994873e+07    6.617690e-09    4.925926e-12    5.597440e-09    5.826395e-10   -9.200000e-01    8.893820e-01    1.080283e-01
    1.342605e+01    4.666358e+02    1.657166e-01    5.429131e+07    6.522350e-09    4.625074e-12    5.471480e-09    5.712570e-10   -9.100000e-01    8.893820e-01    1.032140e-01
    1.366148e+01    4.749515e+02    1.447232e-01    4.897397e+07    6.425260e-09    4.342225e-12    5.343060e-09    5.595900e-10   -9.000000e-01    8.893820e-01    9.866350e-02
    1.387316e+01    4.820661e+02    1.261068e-01    4.401131e+07    6.326590e-09    4.076307e-12    5.212370e-09    5.476530e-10   -8.900000e-01    8.893820e-01    9.438035e-02
    1.405985e+01    4.879530e+02    1.096663e-01    3.941218e+07    6.226495e-09    3.826317e-12    5.079615e-09    5.354610e-10   -8.800000e-01    8.893820e-01    9.036591e-02
    1.422098e+01    4.926192e+02    9.520355e-02    3.517909e+07    6.125170e-09    3.591313e-12    4.945019e-09    5.230325e-10   -8.700000e-01    8.893820e-01    8.661925e-02
    1.435675e+01    4.961071e+02    8.252555e-02    3.130876e+07    6.022805e-09    3.370410e-12    4.808821e-09    5.103870e-10   -8.600000e-01    8.893820e-01    8.313722e-02
    1.446808e+01    4.984911e+02    7.144755e-02    2.779235e+07    5.919610e-09    3.162777e-12    4.671274e-09    4.975456e-10   -8.500000e-01    8.893820e-01    7.991454e-02
    1.455659e+01    4.998751e+02    6.179500e-02    2.461631e+07    5.815810e-09    2.967632e-12    4.532649e-09    4.845316e-10   -8.400000e-01    8.893820e-01    7.694395e-02
    1.462455e+01    5.003865e+02    5.340480e-02    2.176322e+07    5.711625e-09    2.784242e-12    4.393225e-09    4.713699e-10   -8.300000e-01    8.893820e-01    7.421649e-02
    1.467476e+01    5.001716e+02    4.612663e-02    1.921274e+07    5.607295e-09    2.611915e-12    4.253293e-09    4.580862e-10   -8.200000e-01    8.893820e-01    7.172171e-02
    1.471041e+01    4.993864e+02    3.982337e-02    1.694254e+07    5.503060e-09    2.450003e-12    4.113149e-09    4.447077e-10   -8.100000e-01    8.893820e-01    6.944802e-02
    1.473499e+01    4.981930e+02    3.437121e-02    1.492927e+07    5.399160e-09    2.297892e-12    3.973095e-09    4.312625e-10   -8.000000e-01    8.893820e-01    6.738292e-02
    1.475216e+01    4.967522e+02    2.965939e-02    1.314933e+07    5.295835e-09    2.155007e-12    3.833434e-09    4.177790e-10   -7.900000e-01    8.893820e-01    6.551337e-02
    1.476557e+01    4.952191e+02    2.558967e-02    1.157947e+07    5.193335e-09    2.020807e-12    3.694466e-09    4.042866e-10   -7.800000e-01    8.893820e-01    6.382603e-02
    1.477882e+01    4.937400e+02    2.207549e-02    1.019745e+07    5.091890e-09    1.894778e-12    3.556490e-09    3.908142e-10   -7.700000e-01    8.893820e-01    6.230750e-02
    1.479538e+01    4.924484e+02    1.904112e-02    8.982288e+06    4.991738e-09    1.776440e-12    3.419798e-09    3.773909e-10   -7.600000e-01    8.893820e-01    6.094456e-02
    1.481848e+01    4.914653e+02    1.642063e-02    7.914610e+06    4.893099e-09    1.665339e-12    3.284671e-09    3.640454e-10   -7.500000e-01    8.893820e-01    5.972433e-02
    1.485112e+01    4.908984e+02    1.415687e-02    6.976702e+06    4.796188e-09    1.561046e-12    3.151379e-09    3.508057e-10   -7.400000e-01    8.893820e-01    5.863445e-02
    1.489606e+01    4.908419e+02    1.220048e-02    6.152599e+06    4.701209e-09    1.463159e-12    3.020180e-09    3.376988e-10   -7.300000e-01    8.893820e-01    5.766314e-02
    1.495575e+01    4.913769e+02    1.050897e-02    5.428040e+06    4.608350e-09    1.371296e-12    2.891314e-09    3.247508e-10   -7.200000e-01    8.893820e-01    5.679932e-02
