# sky130 pfet_01v8 gm/ID Processed Lookup Table
# Corner: ff
# Temperature: 85C
# W = 2.0 um
# L = 3 um (3000 nm)
# Columns: gm/id [1/V]  gm/gds [V/V]  id/W [A/m]  ft [Hz]  Cgg/W [F/m]  Cgd/W [F/m]  Cgs/W [F/m]  Cdb/W [F/m]  vgs [V]  vth [V]  vdsat [V]
# vdsat = BSIM4 saturation voltage (|VDS|_sat, positive); use for headroom / saturation / cascode-bias calculations
#           gm/id          gm/gds            id/W              ft           Cgg/W           Cgd/W           Cgs/W           Cdb/W             vgs             vth           vdsat
    1.611147e+00    2.437419e+00    7.261095e+00    9.275621e+07    2.007311e-08    2.920755e-09    1.746727e-08    1.987675e-09   -1.800000e+00    9.044628e-01    7.765853e-01
    1.641790e+00    2.546458e+00    7.144105e+00    9.339116e+07    1.998848e-08    2.797910e-09    1.748776e-08    1.976463e-09   -1.790000e+00    9.044628e-01    7.683159e-01
    1.673439e+00    2.664446e+00    7.026515e+00    9.402277e+07    1.990385e-08    2.676097e-09    1.750700e-08    1.965143e-09   -1.780000e+00    9.044628e-01    7.600516e-01
    1.706020e+00    2.792425e+00    6.908790e+00    9.464904e+07    1.981938e-08    2.555598e-09    1.752489e-08    1.953738e-09   -1.770000e+00    9.044628e-01    7.517926e-01
    1.739599e+00    2.931592e+00    6.790790e+00    9.526792e+07    1.973526e-08    2.436697e-09    1.754137e-08    1.942277e-09   -1.760000e+00    9.044628e-01    7.435386e-01
    1.774204e+00    3.083316e+00    6.672530e+00    9.587712e+07    1.965166e-08    2.319676e-09    1.755636e-08    1.930785e-09   -1.750000e+00    9.044628e-01    7.352896e-01
    1.809863e+00    3.249166e+00    6.554025e+00    9.647410e+07    1.956876e-08    2.204812e-09    1.763577e-08    1.989162e-09   -1.740000e+00    9.044628e-01    7.270457e-01
    1.846601e+00    3.430951e+00    6.435295e+00    9.705607e+07    1.948673e-08    2.092373e-09    1.764393e-08    1.973935e-09   -1.730000e+00    9.044628e-01    7.188066e-01
    1.884437e+00    3.630742e+00    6.316365e+00    9.761994e+07    1.940575e-08    1.982610e-09    1.765056e-08    1.958928e-09   -1.720000e+00    9.044628e-01    7.105724e-01
    1.923393e+00    3.850929e+00    6.197250e+00    9.816252e+07    1.932598e-08    1.875762e-09    1.765562e-08    1.944167e-09   -1.710000e+00    9.044628e-01    7.023430e-01
    1.963478e+00    4.094259e+00    6.077980e+00    9.868019e+07    1.924755e-08    1.772045e-09    1.765905e-08    1.929679e-09   -1.700000e+00    9.044628e-01    6.941183e-01
    2.004701e+00    4.363886e+00    5.958580e+00    9.916914e+07    1.917061e-08    1.671653e-09    1.766081e-08    1.915487e-09   -1.690000e+00    9.044628e-01    6.858983e-01
    2.047062e+00    4.663438e+00    5.839085e+00    9.962537e+07    1.909528e-08    1.574753e-09    1.766090e-08    1.901613e-09   -1.680000e+00    9.044628e-01    6.776829e-01
    2.090553e+00    4.997065e+00    5.719535e+00    1.000446e+08    1.902166e-08    1.481486e-09    1.765929e-08    1.888077e-09   -1.670000e+00    9.044628e-01    6.694721e-01
    2.135162e+00    5.369509e+00    5.599960e+00    1.004224e+08    1.894984e-08    1.391962e-09    1.765595e-08    1.874896e-09   -1.660000e+00    9.044628e-01    6.612657e-01
    2.180863e+00    5.786167e+00    5.480410e+00    1.007541e+08    1.887987e-08    1.306264e-09    1.765089e-08    1.862084e-09   -1.650000e+00    9.044628e-01    6.530639e-01
    2.227626e+00    6.253149e+00    5.360935e+00    1.010351e+08    1.881182e-08    1.224443e-09    1.764412e-08    1.849652e-09   -1.640000e+00    9.044628e-01    6.448664e-01
    2.275413e+00    6.777327e+00    5.241585e+00    1.012608e+08    1.874570e-08    1.146523e-09    1.763564e-08    1.837609e-09   -1.630000e+00    9.044628e-01    6.366732e-01
    2.324178e+00    7.366389e+00    5.122420e+00    1.014267e+08    1.868152e-08    1.072501e-09    1.762547e-08    1.825959e-09   -1.620000e+00    9.044628e-01    6.284843e-01
    2.373873e+00    8.028849e+00    5.003500e+00    1.015287e+08    1.861927e-08    1.002345e-09    1.761364e-08    1.814705e-09   -1.610000e+00    9.044628e-01    6.202997e-01
    2.424451e+00    8.774071e+00    4.884890e+00    1.015630e+08    1.855892e-08    9.360015e-10    1.760015e-08    1.803845e-09   -1.600000e+00    9.044628e-01    6.121192e-01
    2.475861e+00    9.612216e+00    4.766661e+00    1.015264e+08    1.850043e-08    8.733965e-10    1.758504e-08    1.793376e-09   -1.590000e+00    9.044628e-01    6.039429e-01
    2.528062e+00    1.055422e+01    4.648883e+00    1.014163e+08    1.844374e-08    8.144360e-10    1.756832e-08    1.783293e-09   -1.580000e+00    9.044628e-01    5.957707e-01
    2.581019e+00    1.161171e+01    4.531632e+00    1.012310e+08    1.838876e-08    7.590105e-10    1.755004e-08    1.773585e-09   -1.570000e+00    9.044628e-01    5.876025e-01
    2.634711e+00    1.279689e+01    4.414983e+00    1.009697e+08    1.833543e-08    7.069970e-10    1.753021e-08    1.764243e-09   -1.560000e+00    9.044628e-01    5.794384e-01
    2.689127e+00    1.412237e+01    4.299013e+00    1.006324e+08    1.828363e-08    6.582630e-10    1.750886e-08    1.755253e-09   -1.550000e+00    9.044628e-01    5.712782e-01
    2.744277e+00    1.560110e+01    4.183797e+00    1.002199e+08    1.823328e-08    6.126675e-10    1.748601e-08    1.746603e-09   -1.540000e+00    9.044628e-01    5.631220e-01
    2.800184e+00    1.724616e+01    4.069408e+00    9.973383e+07    1.818425e-08    5.700640e-10    1.746167e-08    1.738275e-09   -1.530000e+00    9.044628e-01    5.549697e-01
    2.856892e+00    1.907060e+01    3.955919e+00    9.917662e+07    1.813644e-08    5.303035e-10    1.743587e-08    1.730254e-09   -1.520000e+00    9.044628e-01    5.468212e-01
    2.914459e+00    2.108738e+01    3.843398e+00    9.855115e+07    1.808972e-08    4.932359e-10    1.740861e-08    1.722522e-09   -1.510000e+00    9.044628e-01    5.386767e-01
    2.972961e+00    2.330912e+01    3.731911e+00    9.786079e+07    1.804396e-08    4.587107e-10    1.737990e-08    1.715060e-09   -1.500000e+00    9.044628e-01    5.305361e-01
    3.032483e+00    2.574813e+01    3.621521e+00    9.710909e+07    1.799905e-08    4.265798e-10    1.734974e-08    1.707850e-09   -1.490000e+00    9.044628e-01    5.223993e-01
    3.093127e+00    2.841630e+01    3.512286e+00    9.629989e+07    1.795485e-08    3.966983e-10    1.731812e-08    1.700873e-09   -1.480000e+00    9.044628e-01    5.142664e-01
    3.155005e+00    3.132512e+01    3.404259e+00    9.543703e+07    1.791125e-08    3.689255e-10    1.728504e-08    1.694109e-09   -1.470000e+00    9.044628e-01    5.061373e-01
    3.218233e+00    3.448559e+01    3.297493e+00    9.452419e+07    1.786811e-08    3.431256e-10    1.725048e-08    1.687540e-09   -1.460000e+00    9.044628e-01    4.980122e-01
    3.282941e+00    3.790838e+01    3.192032e+00    9.356508e+07    1.782530e-08    3.191683e-10    1.721442e-08    1.681145e-09   -1.450000e+00    9.044628e-01    4.898910e-01
    3.349260e+00    4.160381e+01    3.087922e+00    9.256308e+07    1.778269e-08    2.969290e-10    1.717683e-08    1.674907e-09   -1.440000e+00    9.044628e-01    4.817738e-01
    3.417333e+00    4.558199e+01    2.985200e+00    9.152151e+07    1.774017e-08    2.762897e-10    1.713768e-08    1.668804e-09   -1.430000e+00    9.044628e-01    4.736607e-01
    3.487303e+00    4.985285e+01    2.883905e+00    9.044329e+07    1.769760e-08    2.571384e-10    1.709694e-08    1.662818e-09   -1.420000e+00    9.044628e-01    4.655517e-01
    3.559318e+00    5.442631e+01    2.784070e+00    8.933112e+07    1.765486e-08    2.393697e-10    1.705456e-08    1.656932e-09   -1.410000e+00    9.044628e-01    4.574469e-01
    3.633533e+00    5.931236e+01    2.685728e+00    8.818746e+07    1.761182e-08    2.228843e-10    1.701048e-08    1.651126e-09   -1.400000e+00    9.044628e-01    4.493465e-01
    3.710113e+00    6.452126e+01    2.588906e+00    8.701460e+07    1.756837e-08    2.075894e-10    1.696464e-08    1.645381e-09   -1.390000e+00    9.044628e-01    4.412506e-01
    3.789222e+00    7.006349e+01    2.493634e+00    8.581441e+07    1.752437e-08    1.933978e-10    1.691700e-08    1.639679e-09   -1.380000e+00    9.044628e-01    4.331594e-01
    3.871035e+00    7.595010e+01    2.399936e+00    8.458873e+07    1.747972e-08    1.802286e-10    1.686748e-08    1.634003e-09   -1.370000e+00    9.044628e-01    4.250730e-01
    3.955731e+00    8.219251e+01    2.307837e+00    8.333899e+07    1.743427e-08    1.680062e-10    1.681600e-08    1.628334e-09   -1.360000e+00    9.044628e-01    4.169918e-01
    4.043501e+00    8.880307e+01    2.217360e+00    8.206664e+07    1.738790e-08    1.566602e-10    1.676248e-08    1.622656e-09   -1.350000e+00    9.044628e-01    4.089161e-01
    4.134540e+00    9.579457e+01    2.128526e+00    8.077268e+07    1.734051e-08    1.461255e-10    1.670684e-08    1.616949e-09   -1.340000e+00    9.044628e-01    4.008460e-01
    4.229054e+00    1.031809e+02    2.041357e+00    7.945814e+07    1.729195e-08    1.363414e-10    1.664898e-08    1.611197e-09   -1.330000e+00    9.044628e-01    3.927822e-01
    4.327261e+00    1.109768e+02    1.955873e+00    7.812381e+07    1.724211e-08    1.272519e-10    1.658880e-08    1.605382e-09   -1.320000e+00    9.044628e-01    3.847249e-01
    4.429390e+00    1.191979e+02    1.872092e+00    7.677041e+07    1.719085e-08    1.188052e-10    1.652620e-08    1.599486e-09   -1.310000e+00    9.044628e-01    3.766747e-01
    4.535676e+00    1.278612e+02    1.790034e+00    7.539835e+07    1.713806e-08    1.109533e-10    1.646108e-08    1.593493e-09   -1.300000e+00    9.044628e-01    3.686323e-01
    4.646376e+00    1.369847e+02    1.709718e+00    7.400815e+07    1.708360e-08    1.036518e-10    1.639331e-08    1.587382e-09   -1.290000e+00    9.044628e-01    3.605982e-01
    4.761745e+00    1.465873e+02    1.631161e+00    7.259994e+07    1.702734e-08    9.685970e-11    1.632277e-08    1.581139e-09   -1.280000e+00    9.044628e-01    3.525733e-01
    4.882069e+00    1.566896e+02    1.554380e+00    7.117398e+07    1.696914e-08    9.053920e-11    1.624932e-08    1.574743e-09   -1.270000e+00    9.044628e-01    3.445585e-01
    5.007630e+00    1.673129e+02    1.479394e+00    6.973025e+07    1.690889e-08    8.465545e-11    1.617285e-08    1.568177e-09   -1.260000e+00    9.044628e-01    3.365548e-01
    5.138735e+00    1.784798e+02    1.406221e+00    6.826875e+07    1.684643e-08    7.917610e-11    1.609319e-08    1.561422e-09   -1.250000e+00    9.044628e-01    3.285634e-01
    5.275704e+00    1.902142e+02    1.334876e+00    6.678934e+07    1.678164e-08    7.407150e-11    1.601023e-08    1.554460e-09   -1.240000e+00    9.044628e-01    3.205856e-01
    5.418859e+00    2.025408e+02    1.265378e+00    6.529176e+07    1.671437e-08    6.931410e-11    1.592380e-08    1.547271e-09   -1.230000e+00    9.044628e-01    3.126229e-01
    5.568546e+00    2.154852e+02    1.197744e+00    6.377577e+07    1.664448e-08    6.487870e-11    1.583375e-08    1.539837e-09   -1.220000e+00    9.044628e-01    3.046770e-01
    5.725112e+00    2.290736e+02    1.131990e+00    6.224098e+07    1.657182e-08    6.074185e-11    1.573992e-08    1.532138e-09   -1.210000e+00    9.044628e-01    2.967499e-01
    5.888924e+00    2.433328e+02    1.068134e+00    6.068704e+07    1.649628e-08    5.688200e-11    1.564216e-08    1.524154e-09   -1.200000e+00    9.044628e-01    2.888438e-01
    6.060341e+00    2.582893e+02    1.006193e+00    5.911348e+07    1.641768e-08    5.327925e-11    1.554029e-08    1.515866e-09   -1.190000e+00    9.044628e-01    2.809612e-01
    6.239740e+00    2.739697e+02    9.461820e-01    5.751992e+07    1.633590e-08    4.991520e-11    1.543414e-08    1.507254e-09   -1.180000e+00    9.044628e-01    2.731049e-01
    6.427478e+00    2.903989e+02    8.881190e-01    5.590587e+07    1.625079e-08    4.677293e-11    1.532356e-08    1.498297e-09   -1.170000e+00    9.044628e-01    2.652780e-01
    6.623915e+00    3.076010e+02    8.320200e-01    5.427105e+07    1.616220e-08    4.383675e-11    1.520837e-08    1.488974e-09   -1.160000e+00    9.044628e-01    2.574842e-01
    6.829398e+00    3.255969e+02    7.778995e-01    5.261505e+07    1.607001e-08    4.109218e-11    1.508840e-08    1.479266e-09   -1.150000e+00    9.044628e-01    2.497273e-01
    7.044234e+00    3.444042e+02    7.257730e-01    5.093773e+07    1.597405e-08    3.852583e-11    1.496348e-08    1.469151e-09   -1.140000e+00    9.044628e-01    2.420120e-01
    7.268707e+00    3.640357e+02    6.756540e-01    4.923900e+07    1.587422e-08    3.612534e-11    1.483345e-08    1.458610e-09   -1.130000e+00    9.044628e-01    2.343430e-01
    7.503056e+00    3.844984e+02    6.275545e-01    4.751906e+07    1.577037e-08    3.387926e-11    1.469814e-08    1.447623e-09   -1.120000e+00    9.044628e-01    2.267260e-01
    7.747448e+00    4.057908e+02    5.814855e-01    4.577831e+07    1.566238e-08    3.177702e-11    1.455740e-08    1.436169e-09   -1.110000e+00    9.044628e-01    2.191670e-01
    8.001959e+00    4.279023e+02    5.374565e-01    4.401751e+07    1.555014e-08    2.980880e-11    1.441108e-08    1.424229e-09   -1.100000e+00    9.044628e-01    2.116728e-01
    8.266585e+00    4.508101e+02    4.954732e-01    4.223779e+07    1.543353e-08    2.796553e-11    1.425904e-08    1.411785e-09   -1.090000e+00    9.044628e-01    2.042509e-01
    8.541181e+00    4.744781e+02    4.555396e-01    4.044076e+07    1.531246e-08    2.623882e-11    1.410114e-08    1.398818e-09   -1.080000e+00    9.044628e-01    1.969093e-01
    8.825456e+00    4.988529e+02    4.176556e-01    3.862856e+07    1.518683e-08    2.462085e-11    1.393726e-08    1.385311e-09   -1.070000e+00    9.044628e-01    1.896568e-01
    9.118944e+00    5.238631e+02    3.818175e-01    3.680395e+07    1.505657e-08    2.310441e-11    1.376731e-08    1.371247e-09   -1.060000e+00    9.044628e-01    1.825030e-01
    9.420980e+00    5.494165e+02    3.480165e-01    3.497035e+07    1.492162e-08    2.168280e-11    1.359119e-08    1.356612e-09   -1.050000e+00    9.044628e-01    1.754580e-01
    9.730667e+00    5.753965e+02    3.162388e-01    3.313190e+07    1.478195e-08    2.034979e-11    1.340884e-08    1.341392e-09   -1.040000e+00    9.044628e-01    1.685329e-01
    1.004686e+01    6.016634e+02    2.864645e-01    3.129352e+07    1.463750e-08    1.909960e-11    1.322021e-08    1.325576e-09   -1.030000e+00    9.044628e-01    1.617389e-01
    1.036814e+01    6.280513e+02    2.586675e-01    2.946089e+07    1.448829e-08    1.792686e-11    1.302528e-08    1.309154e-09   -1.020000e+00    9.044628e-01    1.550883e-01
    1.069281e+01    6.543691e+02    2.328142e-01    2.764040e+07    1.433432e-08    1.682658e-11    1.282404e-08    1.292118e-09   -1.010000e+00    9.044628e-01    1.485933e-01
    1.101887e+01    6.804019e+02    2.088639e-01    2.583915e+07    1.417563e-08    1.579411e-11    1.261652e-08    1.274462e-09   -1.000000e+00    9.044628e-01    1.422666e-01
    1.134409e+01    7.059139e+02    1.867678e-01    2.406484e+07    1.401229e-08    1.482513e-11    1.240279e-08    1.256185e-09   -9.900000e-01    9.044628e-01    1.361210e-01
    1.166595e+01    7.306532e+02    1.664695e-01    2.232553e+07    1.384437e-08    1.391561e-11    1.218294e-08    1.237287e-09   -9.800000e-01    9.044628e-01    1.301690e-01
    1.198176e+01    7.543585e+02    1.479046e-01    2.062957e+07    1.367200e-08    1.306181e-11    1.195709e-08    1.217770e-09   -9.700000e-01    9.044628e-01    1.244228e-01
    1.228867e+01    7.767666e+02    1.310012e-01    1.898528e+07    1.349532e-08    1.226024e-11    1.172541e-08    1.197640e-09   -9.600000e-01    9.044628e-01    1.188938e-01
    1.258380e+01    7.976244e+02    1.156806e-01    1.740073e+07    1.331451e-08    1.150762e-11    1.148809e-08    1.176909e-09   -9.500000e-01    9.044628e-01    1.135928e-01
    1.286432e+01    8.166974e+02    1.018580e-01    1.588347e+07    1.312975e-08    1.080091e-11    1.124536e-08    1.155589e-09   -9.400000e-01    9.044628e-01    1.085290e-01
    1.312754e+01    8.337825e+02    8.944325e-02    1.444020e+07    1.294130e-08    1.013728e-11    1.099750e-08    1.133696e-09   -9.300000e-01    9.044628e-01    1.037105e-01
    1.337109e+01    8.487183e+02    7.834280e-02    1.307664e+07    1.274941e-08    9.514065e-12    1.074481e-08    1.111253e-09   -9.200000e-01    9.044628e-01    9.914332e-02
    1.359299e+01    8.613958e+02    6.846035e-02    1.179721e+07    1.255437e-08    8.928790e-12    1.048765e-08    1.088283e-09   -9.100000e-01    9.044628e-01    9.483191e-02
    1.379178e+01    8.717637e+02    5.969875e-02    1.060499e+07    1.235650e-08    8.379130e-12    1.022639e-08    1.064815e-09   -9.000000e-01    9.044628e-01    9.077854e-02
    1.396660e+01    8.798332e+02    5.196130e-02    9.501547e+06    1.215616e-08    7.862915e-12    9.961455e-09    1.040880e-09   -8.900000e-01    9.044628e-01    8.698342e-02
    1.411727e+01    8.856813e+02    4.515314e-02    8.487036e+06    1.195371e-08    7.378110e-12    9.693295e-09    1.016515e-09   -8.800000e-01    9.044628e-01    8.344465e-02
    1.424430e+01    8.894421e+02    3.918260e-02    7.560197e+06    1.174955e-08    6.922810e-12    9.422390e-09    9.917585e-10   -8.700000e-01    9.044628e-01    8.015827e-02
    1.434889e+01    8.913072e+02    3.396222e-02    6.718530e+06    1.154410e-08    6.495225e-12    9.149250e-09    9.666525e-10   -8.600000e-01    9.044628e-01    7.711844e-02
    1.443287e+01    8.915112e+02    2.940967e-02    5.958468e+06    1.133780e-08    6.093690e-12    8.874405e-09    9.412425e-10   -8.500000e-01    9.044628e-01    7.431756e-02
    1.449867e+01    8.903239e+02    2.544838e-02    5.275594e+06    1.113107e-08    5.716625e-12    8.598405e-09    9.155760e-10   -8.400000e-01    9.044628e-01    7.174653e-02
    1.454916e+01    8.880366e+02    2.200790e-02    4.664861e+06    1.092441e-08    5.362565e-12    8.321810e-09    8.897035e-10   -8.300000e-01    9.044628e-01    6.939500e-02
    1.458755e+01    8.849518e+02    1.902415e-02    4.120822e+06    1.071825e-08    5.030120e-12    8.045205e-09    8.636765e-10   -8.200000e-01    9.044628e-01    6.725166e-02
    1.461730e+01    8.813704e+02    1.643937e-02    3.637830e+06    1.051308e-08    4.717995e-12    7.769160e-09    8.375490e-10   -8.100000e-01    9.044628e-01    6.530448e-02
    1.464196e+01    8.775848e+02    1.420196e-02    3.210229e+06    1.030936e-08    4.424967e-12    7.494260e-09    8.113750e-10   -8.000000e-01    9.044628e-01    6.354099e-02
    1.466510e+01    8.738697e+02    1.226617e-02    2.832488e+06    1.010755e-08    4.149888e-12    7.221075e-09    7.852100e-10   -7.900000e-01    9.044628e-01    6.194855e-02
    1.469018e+01    8.704787e+02    1.059171e-02    2.499325e+06    9.908105e-09    3.891680e-12    6.950175e-09    7.591080e-10   -7.800000e-01    9.044628e-01    6.051452e-02
    1.472053e+01    8.676396e+02    9.143320e-03    2.205785e+06    9.711460e-09    3.649329e-12    6.682110e-09    7.331240e-10   -7.700000e-01    9.044628e-01    5.922651e-02
    1.475924e+01    8.655549e+02    7.890290e-03    1.947285e+06    9.518040e-09    3.421882e-12    6.417400e-09    7.073115e-10   -7.600000e-01    9.044628e-01    5.807247e-02
    1.480916e+01    8.643996e+02    6.805980e-03    1.719654e+06    9.328250e-09    3.208440e-12    6.156560e-09    6.817225e-10   -7.500000e-01    9.044628e-01    5.704087e-02
    1.487289e+01    8.643246e+02    5.867355e-03    1.519131e+06    9.142455e-09    3.008160e-12    5.900065e-09    6.564075e-10   -7.400000e-01    9.044628e-01    5.612075e-02
    1.495276e+01    8.654581e+02    5.054555e-03    1.342354e+06    8.961020e-09    2.820246e-12    5.648350e-09    6.314140e-10   -7.300000e-01    9.044628e-01    5.530180e-02
    1.505079e+01    8.679054e+02    4.350489e-03    1.186349e+06    8.784260e-09    2.643954e-12    5.401835e-09    6.067885e-10   -7.200000e-01    9.044628e-01    5.457440e-02
