# sky130 pfet_01v8 gm/ID Processed Lookup Table
# Corner: ff
# Temperature: 85C
# W = 2.0 um
# L = 5 um (5000 nm)
# Columns: gm/id [1/V]  gm/gds [V/V]  id/W [A/m]  ft [Hz]  Cgg/W [F/m]  Cgd/W [F/m]  Cgs/W [F/m]  Cdb/W [F/m]  vgs [V]  vth [V]  vdsat [V]
# vdsat = BSIM4 saturation voltage (|VDS|_sat, positive); use for headroom / saturation / cascode-bias calculations
#           gm/id          gm/gds            id/W              ft           Cgg/W           Cgd/W           Cgs/W           Cdb/W             vgs             vth           vdsat
    1.652081e+00    2.624468e+00    4.371331e+00    3.436649e+07    3.344492e-08    5.026165e-09    2.919369e-08    3.277500e-09   -1.800000e+00    9.121899e-01    7.728195e-01
    1.683782e+00    2.750008e+00    4.299113e+00    3.459899e+07    3.329826e-08    4.816497e-09    2.922640e-08    3.257924e-09   -1.790000e+00    9.121899e-01    7.644551e-01
    1.716523e+00    2.886572e+00    4.226558e+00    3.483013e+07    3.315138e-08    4.608277e-09    2.925706e-08    3.238144e-09   -1.780000e+00    9.121899e-01    7.560964e-01
    1.750234e+00    3.035532e+00    4.153931e+00    3.505916e+07    3.300456e-08    4.401993e-09    2.928553e-08    3.218204e-09   -1.770000e+00    9.121899e-01    7.477434e-01
    1.784976e+00    3.198466e+00    4.081154e+00    3.528520e+07    3.285813e-08    4.198144e-09    2.931166e-08    3.198149e-09   -1.760000e+00    9.121899e-01    7.393961e-01
    1.820775e+00    3.377203e+00    4.008239e+00    3.550729e+07    3.271240e-08    3.997229e-09    2.933532e-08    3.178029e-09   -1.750000e+00    9.121899e-01    7.310545e-01
    1.857653e+00    3.573849e+00    3.935196e+00    3.572433e+07    3.256770e-08    3.799741e-09    2.946264e-08    3.268173e-09   -1.740000e+00    9.121899e-01    7.227185e-01
    1.895632e+00    3.790859e+00    3.862039e+00    3.593519e+07    3.242433e-08    3.606161e-09    2.947509e-08    3.242080e-09   -1.730000e+00    9.121899e-01    7.143881e-01
    1.934728e+00    4.031074e+00    3.788781e+00    3.613857e+07    3.228260e-08    3.416950e-09    2.948500e-08    3.216337e-09   -1.720000e+00    9.121899e-01    7.060634e-01
    1.974950e+00    4.297797e+00    3.715439e+00    3.633309e+07    3.214282e-08    3.232544e-09    2.949227e-08    3.190993e-09   -1.710000e+00    9.121899e-01    6.977441e-01
    2.016302e+00    4.594866e+00    3.642032e+00    3.651725e+07    3.200526e-08    3.053345e-09    2.949681e-08    3.166094e-09   -1.700000e+00    9.121899e-01    6.894304e-01
    2.058781e+00    4.926739e+00    3.568578e+00    3.668944e+07    3.187017e-08    2.879715e-09    2.949857e-08    3.141685e-09   -1.690000e+00    9.121899e-01    6.811222e-01
    2.102377e+00    5.298589e+00    3.495101e+00    3.684799e+07    3.173779e-08    2.711975e-09    2.949749e-08    3.117809e-09   -1.680000e+00    9.121899e-01    6.728195e-01
    2.147071e+00    5.716418e+00    3.421626e+00    3.699116e+07    3.160831e-08    2.550397e-09    2.949353e-08    3.094502e-09   -1.670000e+00    9.121899e-01    6.645222e-01
    2.192834e+00    6.187154e+00    3.348181e+00    3.711709e+07    3.148189e-08    2.395203e-09    2.948666e-08    3.071797e-09   -1.660000e+00    9.121899e-01    6.562303e-01
    2.239631e+00    6.718787e+00    3.274797e+00    3.722399e+07    3.135870e-08    2.246561e-09    2.947690e-08    3.049722e-09   -1.650000e+00    9.121899e-01    6.479439e-01
    2.287414e+00    7.320480e+00    3.201506e+00    3.730998e+07    3.123879e-08    2.104587e-09    2.946422e-08    3.028300e-09   -1.640000e+00    9.121899e-01    6.396628e-01
    2.336135e+00    8.002689e+00    3.128346e+00    3.737332e+07    3.112227e-08    1.969345e-09    2.944864e-08    3.007547e-09   -1.630000e+00    9.121899e-01    6.313871e-01
    2.385740e+00    8.777279e+00    3.055355e+00    3.741237e+07    3.100913e-08    1.840848e-09    2.943019e-08    2.987475e-09   -1.620000e+00    9.121899e-01    6.231168e-01
    2.436170e+00    9.657620e+00    2.982575e+00    3.742566e+07    3.089937e-08    1.719061e-09    2.940890e-08    2.968089e-09   -1.610000e+00    9.121899e-01    6.148518e-01
    2.487376e+00    1.065864e+01    2.910048e+00    3.741195e+07    3.079296e-08    1.603906e-09    2.938479e-08    2.949389e-09   -1.600000e+00    9.121899e-01    6.065921e-01
    2.539307e+00    1.179687e+01    2.837822e+00    3.737024e+07    3.068983e-08    1.495265e-09    2.935792e-08    2.931372e-09   -1.590000e+00    9.121899e-01    5.983377e-01
    2.591922e+00    1.309043e+01    2.765942e+00    3.729988e+07    3.058987e-08    1.392984e-09    2.932832e-08    2.914026e-09   -1.580000e+00    9.121899e-01    5.900886e-01
    2.645200e+00    1.455905e+01    2.694456e+00    3.720062e+07    3.049296e-08    1.296880e-09    2.929604e-08    2.897339e-09   -1.570000e+00    9.121899e-01    5.818448e-01
    2.699128e+00    1.622388e+01    2.623411e+00    3.707245e+07    3.039895e-08    1.206743e-09    2.926111e-08    2.881291e-09   -1.560000e+00    9.121899e-01    5.736062e-01
    2.753717e+00    1.810744e+01    2.552853e+00    3.691582e+07    3.030768e-08    1.122345e-09    2.922357e-08    2.865862e-09   -1.550000e+00    9.121899e-01    5.653730e-01
    2.808990e+00    2.023343e+01    2.482829e+00    3.673140e+07    3.021896e-08    1.043442e-09    2.918347e-08    2.851026e-09   -1.540000e+00    9.121899e-01    5.571450e-01
    2.864995e+00    2.262658e+01    2.413382e+00    3.652023e+07    3.013261e-08    9.697795e-10    2.914082e-08    2.836758e-09   -1.530000e+00    9.121899e-01    5.489223e-01
    2.921792e+00    2.531235e+01    2.344556e+00    3.628345e+07    3.004841e-08    9.010950e-10    2.909565e-08    2.823026e-09   -1.520000e+00    9.121899e-01    5.407050e-01
    2.979462e+00    2.831684e+01    2.276389e+00    3.602247e+07    2.996616e-08    8.371250e-10    2.904797e-08    2.809800e-09   -1.510000e+00    9.121899e-01    5.324929e-01
    3.038098e+00    3.166654e+01    2.208920e+00    3.573878e+07    2.988562e-08    7.776040e-10    2.899780e-08    2.797048e-09   -1.500000e+00    9.121899e-01    5.242863e-01
    3.097804e+00    3.538807e+01    2.142182e+00    3.543385e+07    2.980658e-08    7.222715e-10    2.894512e-08    2.784738e-09   -1.490000e+00    9.121899e-01    5.160850e-01
    3.158698e+00    3.950819e+01    2.076209e+00    3.510926e+07    2.972880e-08    6.708715e-10    2.888994e-08    2.772835e-09   -1.480000e+00    9.121899e-01    5.078891e-01
    3.220903e+00    4.405350e+01    2.011029e+00    3.476651e+07    2.965207e-08    6.231540e-10    2.883222e-08    2.761306e-09   -1.470000e+00    9.121899e-01    4.996987e-01
    3.284548e+00    4.905043e+01    1.946671e+00    3.440699e+07    2.957616e-08    5.788800e-10    2.877194e-08    2.750115e-09   -1.460000e+00    9.121899e-01    4.915139e-01
    3.349774e+00    5.452519e+01    1.883159e+00    3.403207e+07    2.950082e-08    5.378185e-10    2.870907e-08    2.739230e-09   -1.450000e+00    9.121899e-01    4.833347e-01
    3.416720e+00    6.050368e+01    1.820515e+00    3.364300e+07    2.942585e-08    4.997490e-10    2.864354e-08    2.728615e-09   -1.440000e+00    9.121899e-01    4.751612e-01
    3.485535e+00    6.701168e+01    1.758762e+00    3.324096e+07    2.935101e-08    4.644631e-10    2.857531e-08    2.718237e-09   -1.430000e+00    9.121899e-01    4.669936e-01
    3.556367e+00    7.407449e+01    1.697917e+00    3.282693e+07    2.927608e-08    4.317629e-10    2.850429e-08    2.708064e-09   -1.420000e+00    9.121899e-01    4.588319e-01
    3.629375e+00    8.171754e+01    1.637999e+00    3.240188e+07    2.920083e-08    4.014621e-10    2.843041e-08    2.698060e-09   -1.410000e+00    9.121899e-01    4.506763e-01
    3.704717e+00    8.996604e+01    1.579023e+00    3.196665e+07    2.912505e-08    3.733859e-10    2.835358e-08    2.688196e-09   -1.400000e+00    9.121899e-01    4.425270e-01
    3.782560e+00    9.884521e+01    1.521007e+00    3.152196e+07    2.904852e-08    3.473705e-10    2.827370e-08    2.678438e-09   -1.390000e+00    9.121899e-01    4.343842e-01
    3.863078e+00    1.083805e+02    1.463962e+00    3.106847e+07    2.897101e-08    3.232628e-10    2.819065e-08    2.668754e-09   -1.380000e+00    9.121899e-01    4.262482e-01
    3.946447e+00    1.185978e+02    1.407903e+00    3.060673e+07    2.889230e-08    3.009201e-10    2.810432e-08    2.659114e-09   -1.370000e+00    9.121899e-01    4.181191e-01
    4.032851e+00    1.295229e+02    1.352842e+00    3.013721e+07    2.881220e-08    2.802098e-10    2.801456e-08    2.649485e-09   -1.360000e+00    9.121899e-01    4.099973e-01
    4.122492e+00    1.411827e+02    1.298791e+00    2.966037e+07    2.873046e-08    2.610087e-10    2.792125e-08    2.639839e-09   -1.350000e+00    9.121899e-01    4.018832e-01
    4.215566e+00    1.536044e+02    1.245761e+00    2.917650e+07    2.864689e-08    2.432026e-10    2.782422e-08    2.630144e-09   -1.340000e+00    9.121899e-01    3.937772e-01
    4.312286e+00    1.668160e+02    1.193763e+00    2.868590e+07    2.856124e-08    2.266855e-10    2.772331e-08    2.620369e-09   -1.330000e+00    9.121899e-01    3.856797e-01
    4.412880e+00    1.808468e+02    1.142807e+00    2.818882e+07    2.847333e-08    2.113597e-10    2.761836e-08    2.610485e-09   -1.320000e+00    9.121899e-01    3.775913e-01
    4.517577e+00    1.957264e+02    1.092904e+00    2.768542e+07    2.838290e-08    1.971346e-10    2.750917e-08    2.600461e-09   -1.310000e+00    9.121899e-01    3.695126e-01
    4.626624e+00    2.114859e+02    1.044065e+00    2.717582e+07    2.828976e-08    1.839268e-10    2.739556e-08    2.590267e-09   -1.300000e+00    9.121899e-01    3.614443e-01
    4.740283e+00    2.281575e+02    9.962980e-01    2.666011e+07    2.819367e-08    1.716591e-10    2.727732e-08    2.579873e-09   -1.290000e+00    9.121899e-01    3.533872e-01
    4.858820e+00    2.457739e+02    9.496135e-01    2.613834e+07    2.809441e-08    1.602605e-10    2.715425e-08    2.569248e-09   -1.280000e+00    9.121899e-01    3.453421e-01
    4.982524e+00    2.643696e+02    9.040210e-01    2.561051e+07    2.799174e-08    1.496652e-10    2.702611e-08    2.558363e-09   -1.270000e+00    9.121899e-01    3.373103e-01
    5.111687e+00    2.839793e+02    8.595305e-01    2.507658e+07    2.788543e-08    1.398129e-10    2.689268e-08    2.547185e-09   -1.260000e+00    9.121899e-01    3.292927e-01
    5.246619e+00    3.046387e+02    8.161515e-01    2.453649e+07    2.777526e-08    1.306479e-10    2.675373e-08    2.535683e-09   -1.250000e+00    9.121899e-01    3.212908e-01
    5.387648e+00    3.263840e+02    7.738930e-01    2.399014e+07    2.766098e-08    1.221188e-10    2.660900e-08    2.523827e-09   -1.240000e+00    9.121899e-01    3.133060e-01
    5.535102e+00    3.492517e+02    7.327655e-01    2.343740e+07    2.754236e-08    1.141783e-10    2.645823e-08    2.511585e-09   -1.230000e+00    9.121899e-01    3.053400e-01
    5.689332e+00    3.732773e+02    6.927775e-01    2.287815e+07    2.741917e-08    1.067829e-10    2.630118e-08    2.498924e-09   -1.220000e+00    9.121899e-01    2.973949e-01
    5.850686e+00    3.984961e+02    6.539395e-01    2.231221e+07    2.729115e-08    9.989235e-11    2.613758e-08    2.485811e-09   -1.210000e+00    9.121899e-01    2.894727e-01
    6.019523e+00    4.249413e+02    6.162610e-01    2.173942e+07    2.715807e-08    9.346960e-11    2.596714e-08    2.472215e-09   -1.200000e+00    9.121899e-01    2.815759e-01
    6.196207e+00    4.526434e+02    5.797510e-01    2.115959e+07    2.701969e-08    8.748060e-11    2.578959e-08    2.458101e-09   -1.190000e+00    9.121899e-01    2.737072e-01
    6.381099e+00    4.816292e+02    5.444190e-01    2.057254e+07    2.687577e-08    8.189390e-11    2.560466e-08    2.443438e-09   -1.180000e+00    9.121899e-01    2.658699e-01
    6.574552e+00    5.119202e+02    5.102740e-01    1.997812e+07    2.672607e-08    7.668045e-11    2.541207e-08    2.428191e-09   -1.170000e+00    9.121899e-01    2.580673e-01
    6.776901e+00    5.435313e+02    4.773252e-01    1.937619e+07    2.657035e-08    7.181350e-11    2.521153e-08    2.412327e-09   -1.160000e+00    9.121899e-01    2.503033e-01
    6.988463e+00    5.764684e+02    4.455811e-01    1.876665e+07    2.640839e-08    6.726835e-11    2.500277e-08    2.395813e-09   -1.150000e+00    9.121899e-01    2.425824e-01
    7.209518e+00    6.107263e+02    4.150492e-01    1.814943e+07    2.623995e-08    6.302225e-11    2.478550e-08    2.378615e-09   -1.140000e+00    9.121899e-01    2.349093e-01
    7.440303e+00    6.462863e+02    3.857372e-01    1.752457e+07    2.606483e-08    5.905410e-11    2.455948e-08    2.360700e-09   -1.130000e+00    9.121899e-01    2.272894e-01
    7.680991e+00    6.831131e+02    3.576512e-01    1.689218e+07    2.588281e-08    5.534450e-11    2.432442e-08    2.342037e-09   -1.120000e+00    9.121899e-01    2.197288e-01
    7.931680e+00    7.211517e+02    3.307965e-01    1.625248e+07    2.569370e-08    5.187545e-11    2.408010e-08    2.322593e-09   -1.110000e+00    9.121899e-01    2.122339e-01
    8.192369e+00    7.603238e+02    3.051768e-01    1.560583e+07    2.549731e-08    4.863032e-11    2.382627e-08    2.302338e-09   -1.100000e+00    9.121899e-01    2.048119e-01
    8.462941e+00    8.005248e+02    2.807945e-01    1.495276e+07    2.529348e-08    4.559379e-11    2.356272e-08    2.281242e-09   -1.090000e+00    9.121899e-01    1.974708e-01
    8.743134e+00    8.416194e+02    2.576496e-01    1.429399e+07    2.508207e-08    4.275160e-11    2.328924e-08    2.259276e-09   -1.080000e+00    9.121899e-01    1.902191e-01
    9.032515e+00    8.834387e+02    2.357400e-01    1.363044e+07    2.486293e-08    4.009060e-11    2.300567e-08    2.236415e-09   -1.070000e+00    9.121899e-01    1.830660e-01
    9.330464e+00    9.257777e+02    2.150610e-01    1.296329e+07    2.463598e-08    3.759859e-11    2.271187e-08    2.212633e-09   -1.060000e+00    9.121899e-01    1.760215e-01
    9.636133e+00    9.683915e+02    1.956045e-01    1.229396e+07    2.440114e-08    3.526425e-11    2.240771e-08    2.187910e-09   -1.050000e+00    9.121899e-01    1.690962e-01
    9.948444e+00    1.010996e+03    1.773591e-01    1.162416e+07    2.415835e-08    3.307712e-11    2.209312e-08    2.162226e-09   -1.040000e+00    9.121899e-01    1.623012e-01
    1.026603e+01    1.053268e+03    1.603098e-01    1.095587e+07    2.390760e-08    3.102745e-11    2.176806e-08    2.135563e-09   -1.030000e+00    9.121899e-01    1.556483e-01
    1.058729e+01    1.094846e+03    1.444371e-01    1.029134e+07    2.364892e-08    2.910621e-11    2.143252e-08    2.107910e-09   -1.020000e+00    9.121899e-01    1.491494e-01
    1.091030e+01    1.135338e+03    1.297172e-01    9.633094e+06    2.338237e-08    2.730504e-11    2.108656e-08    2.079257e-09   -1.010000e+00    9.121899e-01    1.428170e-01
    1.123289e+01    1.174325e+03    1.161218e-01    8.983841e+06    2.310803e-08    2.561612e-11    2.073027e-08    2.049599e-09   -1.000000e+00    9.121899e-01    1.366634e-01
    1.155264e+01    1.211377e+03    1.036177e-01    8.346489e+06    2.282608e-08    2.403221e-11    2.036380e-08    2.018936e-09   -9.900000e-01    9.121899e-01    1.307011e-01
    1.186690e+01    1.246059e+03    9.216725e-02    7.724034e+06    2.253668e-08    2.254657e-11    1.998736e-08    1.987273e-09   -9.800000e-01    9.121899e-01    1.249419e-01
    1.217292e+01    1.277955e+03    8.172805e-02    7.119506e+06    2.224007e-08    2.115293e-11    1.960120e-08    1.954620e-09   -9.700000e-01    9.121899e-01    1.193972e-01
    1.246783e+01    1.306680e+03    7.225370e-02    6.535859e+06    2.193655e-08    1.984543e-11    1.920566e-08    1.920991e-09   -9.600000e-01    9.121899e-01    1.140775e-01
    1.274882e+01    1.331897e+03    6.369380e-02    5.975884e+06    2.162644e-08    1.861863e-11    1.880111e-08    1.886407e-09   -9.500000e-01    9.121899e-01    1.089922e-01
    1.301318e+01    1.353340e+03    5.599500e-02    5.442105e+06    2.131012e-08    1.746745e-11    1.838800e-08    1.850894e-09   -9.400000e-01    9.121899e-01    1.041492e-01
    1.325851e+01    1.370830e+03    4.910138e-02    4.936698e+06    2.098804e-08    1.638716e-11    1.796685e-08    1.814488e-09   -9.300000e-01    9.121899e-01    9.955487e-02
    1.348271e+01    1.384278e+03    4.295542e-02    4.461396e+06    2.066068e-08    1.537333e-11    1.753821e-08    1.777223e-09   -9.200000e-01    9.121899e-01    9.521378e-02
    1.368424e+01    1.393706e+03    3.749878e-02    4.017459e+06    2.032856e-08    1.442182e-11    1.710273e-08    1.739149e-09   -9.100000e-01    9.121899e-01    9.112846e-02
    1.386207e+01    1.399237e+03    3.267326e-02    3.605609e+06    1.999227e-08    1.352878e-11    1.666109e-08    1.700313e-09   -9.000000e-01    9.121899e-01    8.729945e-02
    1.401585e+01    1.401099e+03    2.842154e-02    3.226050e+06    1.965242e-08    1.269059e-11    1.621404e-08    1.660773e-09   -8.900000e-01    9.121899e-01    8.372521e-02
    1.414588e+01    1.399610e+03    2.468805e-02    2.878472e+06    1.930967e-08    1.190387e-11    1.576237e-08    1.620593e-09   -8.800000e-01    9.121899e-01    8.040219e-02
    1.425317e+01    1.395169e+03    2.141959e-02    2.562101e+06    1.896471e-08    1.116548e-11    1.530692e-08    1.579838e-09   -8.700000e-01    9.121899e-01    7.732494e-02
    1.433935e+01    1.388230e+03    1.856589e-02    2.275757e+06    1.861828e-08    1.047244e-11    1.484857e-08    1.538583e-09   -8.600000e-01    9.121899e-01    7.448627e-02
    1.440663e+01    1.379289e+03    1.608009e-02    2.017931e+06    1.827110e-08    9.821995e-12    1.438823e-08    1.496902e-09   -8.500000e-01    9.121899e-01    7.187749e-02
    1.445770e+01    1.368857e+03    1.391891e-02    1.786861e+06    1.792395e-08    9.211530e-12    1.392683e-08    1.454878e-09   -8.400000e-01    9.121899e-01    6.948860e-02
    1.449564e+01    1.357448e+03    1.204286e-02    1.580619e+06    1.757760e-08    8.638615e-12    1.346533e-08    1.412593e-09   -8.300000e-01    9.121899e-01    6.730861e-02
    1.452375e+01    1.345557e+03    1.041626e-02    1.397185e+06    1.723283e-08    8.100965e-12    1.300470e-08    1.370135e-09   -8.200000e-01    9.121899e-01    6.532576e-02
    1.454551e+01    1.333652e+03    9.007140e-03    1.234511e+06    1.689044e-08    7.596435e-12    1.254590e-08    1.327590e-09   -8.100000e-01    9.121899e-01    6.352784e-02
    1.456437e+01    1.322155e+03    7.787090e-03    1.090581e+06    1.655118e-08    7.123005e-12    1.208989e-08    1.285047e-09   -8.000000e-01    9.121899e-01    6.190237e-02
    1.458377e+01    1.311451e+03    6.731035e-03    9.634580e+05    1.621582e-08    6.678795e-12    1.163760e-08    1.242596e-09   -7.900000e-01    9.121899e-01    6.043685e-02
    1.460699e+01    1.301872e+03    5.816970e-03    8.513105e+05    1.588510e-08    6.262020e-12    1.118996e-08    1.200325e-09   -7.800000e-01    9.121899e-01    5.911898e-02
    1.463713e+01    1.293705e+03    5.025705e-03    7.524395e+05    1.555971e-08    5.871020e-12    1.074785e-08    1.158320e-09   -7.700000e-01    9.121899e-01    5.793678e-02
    1.467703e+01    1.287192e+03    4.340564e-03    6.652885e+05    1.524034e-08    5.504220e-12    1.031212e-08    1.116668e-09   -7.600000e-01    9.121899e-01    5.687870e-02
    1.472933e+01    1.282534e+03    3.747106e-03    5.884487e+05    1.492761e-08    5.160150e-12    9.883550e-09    1.075448e-09   -7.500000e-01    9.121899e-01    5.593378e-02
    1.479637e+01    1.279898e+03    3.232864e-03    5.206569e+05    1.462215e-08    4.837431e-12    9.462905e-09    1.034740e-09   -7.400000e-01    9.121899e-01    5.509168e-02
    1.488024e+01    1.279412e+03    2.787096e-03    4.607908e+05    1.432446e-08    4.534755e-12    9.050870e-09    9.946180e-10   -7.300000e-01    9.121899e-01    5.434271e-02
    1.498278e+01    1.281183e+03    2.400558e-03    4.078592e+05    1.403507e-08    4.250899e-12    8.648070e-09    9.551520e-10   -7.200000e-01    9.121899e-01    5.367787e-02
