# sky130 pfet_01v8 gm/ID Processed Lookup Table
# Corner: ff
# Temperature: 25C
# W = 2.0 um
# L = 5.5 um (5500 nm)
# Columns: gm/id [1/V]  gm/gds [V/V]  id/W [A/m]  ft [Hz]  Cgg/W [F/m]  Cgd/W [F/m]  Cgs/W [F/m]  Cdb/W [F/m]  vgs [V]  vth [V]  vdsat [V]
# vdsat = BSIM4 saturation voltage (|VDS|_sat, positive); use for headroom / saturation / cascode-bias calculations
#           gm/id          gm/gds            id/W              ft           Cgg/W           Cgd/W           Cgs/W           Cdb/W             vgs             vth           vdsat
    2.002932e+00    4.541758e+00    3.947181e+00    3.510890e+07    3.583902e-08    3.846458e-09    3.250758e-08    3.423692e-09   -1.800000e+00    1.002049e+00    6.931054e-01
    2.045402e+00    4.871450e+00    3.868121e+00    3.528717e+07    3.568471e-08    3.638399e-09    3.252184e-08    3.396698e-09   -1.790000e+00    1.002049e+00    6.847228e-01
    2.089026e+00    5.241255e+00    3.788952e+00    3.545292e+07    3.553294e-08    3.436020e-09    3.253328e-08    3.370172e-09   -1.780000e+00    1.002049e+00    6.763463e-01
    2.133735e+00    5.657320e+00    3.709795e+00    3.560437e+07    3.538402e-08    3.239758e-09    3.254179e-08    3.344167e-09   -1.770000e+00    1.002049e+00    6.679756e-01
    2.179520e+00    6.126787e+00    3.630648e+00    3.573967e+07    3.523827e-08    3.050002e-09    3.254735e-08    3.318728e-09   -1.760000e+00    1.002049e+00    6.596109e-01
    2.226341e+00    6.657921e+00    3.551545e+00    3.585687e+07    3.509592e-08    2.867090e-09    3.254990e-08    3.293902e-09   -1.750000e+00    1.002049e+00    6.512521e-01
    2.274153e+00    7.260275e+00    3.472522e+00    3.595406e+07    3.495721e-08    2.691297e-09    3.254943e-08    3.269727e-09   -1.740000e+00    1.002049e+00    6.428991e-01
    2.322905e+00    7.944841e+00    3.393617e+00    3.602939e+07    3.482231e-08    2.522843e-09    3.254594e-08    3.246236e-09   -1.730000e+00    1.002049e+00    6.345520e-01
    2.372539e+00    8.724176e+00    3.314875e+00    3.608107e+07    3.469136e-08    2.361884e-09    3.253943e-08    3.223457e-09   -1.720000e+00    1.002049e+00    6.262106e-01
    2.422995e+00    9.612544e+00    3.236340e+00    3.610747e+07    3.456446e-08    2.208515e-09    3.252993e-08    3.201414e-09   -1.710000e+00    1.002049e+00    6.178751e-01
    2.474216e+00    1.062603e+01    3.158059e+00    3.610720e+07    3.444167e-08    2.062773e-09    3.251748e-08    3.180121e-09   -1.700000e+00    1.002049e+00    6.095453e-01
    2.526147e+00    1.178264e+01    3.080083e+00    3.607910e+07    3.432301e-08    1.924636e-09    3.250212e-08    3.159589e-09   -1.690000e+00    1.002049e+00    6.012213e-01
    2.578746e+00    1.310231e+01    3.002462e+00    3.602241e+07    3.420845e-08    1.794031e-09    3.248391e-08    3.139819e-09   -1.680000e+00    1.002049e+00    5.929031e-01
    2.631980e+00    1.460693e+01    2.925248e+00    3.593663e+07    3.409794e-08    1.670835e-09    3.246290e-08    3.120813e-09   -1.670000e+00    1.002049e+00    5.845905e-01
    2.685836e+00    1.632034e+01    2.848495e+00    3.582170e+07    3.399139e-08    1.554885e-09    3.243916e-08    3.102559e-09   -1.660000e+00    1.002049e+00    5.762836e-01
    2.740314e+00    1.826817e+01    2.772254e+00    3.567788e+07    3.388866e-08    1.445979e-09    3.241275e-08    3.085047e-09   -1.650000e+00    1.002049e+00    5.679824e-01
    2.795439e+00    2.047773e+01    2.696575e+00    3.550580e+07    3.378961e-08    1.343887e-09    3.238375e-08    3.068259e-09   -1.640000e+00    1.002049e+00    5.596869e-01
    2.851253e+00    2.297786e+01    2.621507e+00    3.530639e+07    3.369408e-08    1.248349e-09    3.235219e-08    3.052173e-09   -1.630000e+00    1.002049e+00    5.513970e-01
    2.907813e+00    2.579866e+01    2.547098e+00    3.508076e+07    3.360186e-08    1.159092e-09    3.231815e-08    3.036765e-09   -1.620000e+00    1.002049e+00    5.431128e-01
    2.965204e+00    2.897137e+01    2.473391e+00    3.483032e+07    3.351275e-08    1.075825e-09    3.228167e-08    3.022008e-09   -1.610000e+00    1.002049e+00    5.348341e-01
    3.023513e+00    3.252802e+01    2.400430e+00    3.455650e+07    3.342652e-08    9.982490e-10    3.224281e-08    3.007870e-09   -1.600000e+00    1.002049e+00    5.265611e-01
    3.082853e+00    3.650133e+01    2.328250e+00    3.426087e+07    3.334295e-08    9.260620e-10    3.220159e-08    2.994321e-09   -1.590000e+00    1.002049e+00    5.182937e-01
    3.143338e+00    4.092438e+01    2.256887e+00    3.394498e+07    3.326179e-08    8.589595e-10    3.215804e-08    2.981325e-09   -1.580000e+00    1.002049e+00    5.100319e-01
    3.205098e+00    4.583058e+01    2.186376e+00    3.361037e+07    3.318280e-08    7.966415e-10    3.211218e-08    2.968851e-09   -1.570000e+00    1.002049e+00    5.017757e-01
    3.268269e+00    5.125341e+01    2.116746e+00    3.325856e+07    3.310573e-08    7.388130e-10    3.206402e-08    2.956860e-09   -1.560000e+00    1.002049e+00    4.935251e-01
    3.332992e+00    5.722633e+01    2.048023e+00    3.289095e+07    3.303032e-08    6.851870e-10    3.201354e-08    2.945317e-09   -1.550000e+00    1.002049e+00    4.852802e-01
    3.399413e+00    6.378268e+01    1.980233e+00    3.250883e+07    3.295635e-08    6.354870e-10    3.196074e-08    2.934188e-09   -1.540000e+00    1.002049e+00    4.770408e-01
    3.467687e+00    7.095579e+01    1.913398e+00    3.211344e+07    3.288353e-08    5.894465e-10    3.190558e-08    2.923434e-09   -1.530000e+00    1.002049e+00    4.688071e-01
    3.537970e+00    7.877878e+01    1.847538e+00    3.170589e+07    3.281162e-08    5.468120e-10    3.184803e-08    2.913023e-09   -1.520000e+00    1.002049e+00    4.605792e-01
    3.610429e+00    8.728474e+01    1.782673e+00    3.128720e+07    3.274040e-08    5.073430e-10    3.178803e-08    2.902915e-09   -1.510000e+00    1.002049e+00    4.523569e-01
    3.685233e+00    9.650676e+01    1.718819e+00    3.085829e+07    3.266958e-08    4.708112e-10    3.172552e-08    2.893078e-09   -1.500000e+00    1.002049e+00    4.441404e-01
    3.762557e+00    1.064780e+02    1.655994e+00    3.041996e+07    3.259892e-08    4.370024e-10    3.166041e-08    2.883476e-09   -1.490000e+00    1.002049e+00    4.359298e-01
    3.842586e+00    1.172319e+02    1.594209e+00    2.997291e+07    3.252820e-08    4.057154e-10    3.159261e-08    2.874075e-09   -1.480000e+00    1.002049e+00    4.277250e-01
    3.925516e+00    1.288022e+02    1.533480e+00    2.951785e+07    3.245715e-08    3.767617e-10    3.152203e-08    2.864840e-09   -1.470000e+00    1.002049e+00    4.195263e-01
    4.011544e+00    1.412231e+02    1.473819e+00    2.905527e+07    3.238552e-08    3.499656e-10    3.144853e-08    2.855738e-09   -1.460000e+00    1.002049e+00    4.113337e-01
    4.100886e+00    1.545296e+02    1.415238e+00    2.858572e+07    3.231307e-08    3.251633e-10    3.137199e-08    2.846735e-09   -1.450000e+00    1.002049e+00    4.031473e-01
    4.193772e+00    1.687577e+02    1.357748e+00    2.810963e+07    3.223955e-08    3.022030e-10    3.129225e-08    2.837799e-09   -1.440000e+00    1.002049e+00    3.949673e-01
    4.290436e+00    1.839442e+02    1.301360e+00    2.762736e+07    3.216470e-08    2.809434e-10    3.120915e-08    2.828895e-09   -1.430000e+00    1.002049e+00    3.867939e-01
    4.391134e+00    2.001276e+02    1.246084e+00    2.713925e+07    3.208826e-08    2.612539e-10    3.112251e-08    2.819991e-09   -1.420000e+00    1.002049e+00    3.786274e-01
    4.496142e+00    2.173476e+02    1.191929e+00    2.664557e+07    3.200998e-08    2.430137e-10    3.103213e-08    2.811055e-09   -1.410000e+00    1.002049e+00    3.704679e-01
    4.605744e+00    2.356455e+02    1.138905e+00    2.614653e+07    3.192959e-08    2.261111e-10    3.093781e-08    2.802050e-09   -1.400000e+00    1.002049e+00    3.623158e-01
    4.720256e+00    2.550649e+02    1.087022e+00    2.564235e+07    3.184681e-08    2.104430e-10    3.083932e-08    2.792945e-09   -1.390000e+00    1.002049e+00    3.541715e-01
    4.840003e+00    2.756511e+02    1.036288e+00    2.513314e+07    3.176138e-08    1.959143e-10    3.073640e-08    2.783705e-09   -1.380000e+00    1.002049e+00    3.460354e-01
    4.965347e+00    2.974516e+02    9.867115e-01    2.461902e+07    3.167300e-08    1.824375e-10    3.062881e-08    2.774294e-09   -1.370000e+00    1.002049e+00    3.379079e-01
    5.096660e+00    3.205161e+02    9.383030e-01    2.410006e+07    3.158136e-08    1.699318e-10    3.051624e-08    2.764678e-09   -1.360000e+00    1.002049e+00    3.297898e-01
    5.234350e+00    3.448966e+02    8.910705e-01    2.357626e+07    3.148618e-08    1.583229e-10    3.039842e-08    2.754820e-09   -1.350000e+00    1.002049e+00    3.216816e-01
    5.378856e+00    3.706478e+02    8.450225e-01    2.304764e+07    3.138714e-08    1.475424e-10    3.027501e-08    2.744683e-09   -1.340000e+00    1.002049e+00    3.135842e-01
    5.530637e+00    3.978259e+02    8.001685e-01    2.251416e+07    3.128391e-08    1.375272e-10    3.014568e-08    2.734229e-09   -1.330000e+00    1.002049e+00    3.054985e-01
    5.690198e+00    4.264894e+02    7.565165e-01    2.197573e+07    3.117616e-08    1.282194e-10    3.001006e-08    2.723416e-09   -1.320000e+00    1.002049e+00    2.974256e-01
    5.858059e+00    4.566985e+02    7.140765e-01    2.143226e+07    3.106352e-08    1.195656e-10    2.986779e-08    2.712207e-09   -1.310000e+00    1.002049e+00    2.893669e-01
    6.034784e+00    4.885143e+02    6.728575e-01    2.088359e+07    3.094567e-08    1.115168e-10    2.971846e-08    2.700557e-09   -1.300000e+00    1.002049e+00    2.813237e-01
    6.220967e+00    5.219986e+02    6.328690e-01    2.032956e+07    3.082221e-08    1.040279e-10    2.956167e-08    2.688423e-09   -1.290000e+00    1.002049e+00    2.732977e-01
    6.417243e+00    5.572116e+02    5.941195e-01    1.976998e+07    3.069277e-08    9.705710e-11    2.939696e-08    2.675761e-09   -1.280000e+00    1.002049e+00    2.652911e-01
    6.624256e+00    5.942127e+02    5.566200e-01    1.920463e+07    3.055695e-08    9.056635e-11    2.922390e-08    2.662522e-09   -1.270000e+00    1.002049e+00    2.573061e-01
    6.842704e+00    6.330563e+02    5.203790e-01    1.863327e+07    3.041436e-08    8.452025e-11    2.904199e-08    2.648662e-09   -1.260000e+00    1.002049e+00    2.493454e-01
    7.073284e+00    6.737923e+02    4.854072e-01    1.805565e+07    3.026456e-08    7.888640e-11    2.885076e-08    2.634128e-09   -1.250000e+00    1.002049e+00    2.414120e-01
    7.316721e+00    7.164608e+02    4.517140e-01    1.747151e+07    3.010715e-08    7.363490e-11    2.864969e-08    2.618869e-09   -1.240000e+00    1.002049e+00    2.335096e-01
    7.573741e+00    7.610900e+02    4.193092e-01    1.688063e+07    2.994168e-08    6.873820e-11    2.843827e-08    2.602835e-09   -1.230000e+00    1.002049e+00    2.256422e-01
    7.845059e+00    8.076916e+02    3.882023e-01    1.628279e+07    2.976773e-08    6.417085e-11    2.821598e-08    2.585971e-09   -1.220000e+00    1.002049e+00    2.178146e-01
    8.131359e+00    8.562561e+02    3.584027e-01    1.567780e+07    2.958486e-08    5.990945e-11    2.798227e-08    2.568222e-09   -1.210000e+00    1.002049e+00    2.100320e-01
    8.433278e+00    9.067466e+02    3.299190e-01    1.506557e+07    2.939262e-08    5.593235e-11    2.773659e-08    2.549532e-09   -1.200000e+00    1.002049e+00    2.023008e-01
    8.751363e+00    9.590919e+02    3.027593e-01    1.444610e+07    2.919057e-08    5.221955e-11    2.747842e-08    2.529845e-09   -1.190000e+00    1.002049e+00    1.946278e-01
    9.086049e+00    1.013179e+03    2.769300e-01    1.381950e+07    2.897829e-08    4.875269e-11    2.720721e-08    2.509105e-09   -1.180000e+00    1.002049e+00    1.870210e-01
    9.437598e+00    1.068842e+03    2.524368e-01    1.318607e+07    2.875536e-08    4.551470e-11    2.692242e-08    2.487254e-09   -1.170000e+00    1.002049e+00    1.794893e-01
    9.806056e+00    1.125858e+03    2.292829e-01    1.254630e+07    2.852138e-08    4.248983e-11    2.662355e-08    2.464237e-09   -1.160000e+00    1.002049e+00    1.720427e-01
    1.019119e+01    1.183934e+03    2.074694e-01    1.190096e+07    2.827595e-08    3.966352e-11    2.631011e-08    2.439999e-09   -1.150000e+00    1.002049e+00    1.646922e-01
    1.059241e+01    1.242696e+03    1.869945e-01    1.125111e+07    2.801872e-08    3.702229e-11    2.598163e-08    2.414486e-09   -1.140000e+00    1.002049e+00    1.574503e-01
    1.100870e+01    1.301688e+03    1.678525e-01    1.059816e+07    2.774938e-08    3.455365e-11    2.563768e-08    2.387648e-09   -1.130000e+00    1.002049e+00    1.503304e-01
    1.143853e+01    1.360360e+03    1.500337e-01    9.943928e+06    2.746764e-08    3.224604e-11    2.527790e-08    2.359436e-09   -1.120000e+00    1.002049e+00    1.433470e-01
    1.187982e+01    1.418074e+03    1.335234e-01    9.290634e+06    2.717327e-08    3.008875e-11    2.490197e-08    2.329806e-09   -1.110000e+00    1.002049e+00    1.365160e-01
    1.232981e+01    1.474103e+03    1.183013e-01    8.640944e+06    2.686610e-08    2.807182e-11    2.450962e-08    2.298719e-09   -1.100000e+00    1.002049e+00    1.298539e-01
    1.278505e+01    1.527648e+03    1.043409e-01    7.997935e+06    2.654600e-08    2.618603e-11    2.410068e-08    2.266141e-09   -1.090000e+00    1.002049e+00    1.233781e-01
    1.324142e+01    1.577855e+03    9.160900e-02    7.365073e+06    2.621295e-08    2.442280e-11    2.367505e-08    2.232045e-09   -1.080000e+00    1.002049e+00    1.171063e-01
    1.369410e+01    1.623848e+03    8.006560e-02    6.746117e+06    2.586699e-08    2.277415e-11    2.323275e-08    2.196412e-09   -1.070000e+00    1.002049e+00    1.110564e-01
    1.413766e+01    1.664769e+03    6.966360e-02    6.145019e+06    2.550824e-08    2.123268e-11    2.277389e-08    2.159231e-09   -1.060000e+00    1.002049e+00    1.052458e-01
    1.456630e+01    1.699821e+03    6.034890e-02    5.565786e+06    2.513693e-08    1.979150e-11    2.229869e-08    2.120499e-09   -1.050000e+00    1.002049e+00    9.969095e-02
    1.497392e+01    1.728326e+03    5.206130e-02    5.012287e+06    2.475339e-08    1.844417e-11    2.180751e-08    2.080227e-09   -1.040000e+00    1.002049e+00    9.440706e-02
    1.535451e+01    1.749769e+03    4.473495e-02    4.488077e+06    2.435805e-08    1.718471e-11    2.130084e-08    2.038436e-09   -1.030000e+00    1.002049e+00    8.940720e-02
    1.570244e+01    1.763846e+03    3.829966e-02    3.996223e+06    2.395148e-08    1.600753e-11    2.077931e-08    1.995156e-09   -1.020000e+00    1.002049e+00    8.470200e-02
    1.601281e+01    1.770500e+03    3.268224e-02    3.539139e+06    2.353433e-08    1.490741e-11    2.024367e-08    1.950435e-09   -1.010000e+00    1.002049e+00    8.029909e-02
    1.628176e+01    1.769929e+03    2.780798e-02    3.118461e+06    2.310738e-08    1.387949e-11    1.969487e-08    1.904330e-09   -1.000000e+00    1.002049e+00    7.620281e-02
    1.650679e+01    1.762585e+03    2.360227e-02    2.734991e+06    2.267152e-08    1.291921e-11    1.913393e-08    1.856913e-09   -9.900000e-01    1.002049e+00    7.241401e-02
    1.668690e+01    1.749150e+03    1.999210e-02    2.388684e+06    2.222776e-08    1.202232e-11    1.856205e-08    1.808268e-09   -9.800000e-01    1.002049e+00    6.892995e-02
    1.682274e+01    1.730484e+03    1.690742e-02    2.078701e+06    2.177721e-08    1.118481e-11    1.798058e-08    1.758496e-09   -9.700000e-01    1.002049e+00    6.574449e-02
    1.691649e+01    1.707575e+03    1.428233e-02    1.803517e+06    2.132107e-08    1.040296e-11    1.739095e-08    1.707705e-09   -9.600000e-01    1.002049e+00    6.284830e-02
    1.697172e+01    1.681475e+03    1.205587e-02    1.561050e+06    2.086064e-08    9.673280e-12    1.679474e-08    1.656020e-09   -9.500000e-01    1.002049e+00    6.022930e-02
    1.699319e+01    1.653237e+03    1.017263e-02    1.348824e+06    2.039731e-08    8.992465e-12    1.619360e-08    1.603574e-09   -9.400000e-01    1.002049e+00    5.787314e-02
    1.698635e+01    1.623860e+03    8.582990e-03    1.164120e+06    1.993247e-08    8.357445e-12    1.558928e-08    1.550510e-09   -9.300000e-01    1.002049e+00    5.576372e-02
    1.695719e+01    1.594253e+03    7.243095e-03    1.004120e+06    1.946761e-08    7.765315e-12    1.498358e-08    1.496979e-09   -9.200000e-01    1.002049e+00    5.388377e-02
    1.691178e+01    1.565207e+03    6.114680e-03    8.660304e+05    1.900422e-08    7.213365e-12    1.437831e-08    1.443139e-09   -9.100000e-01    1.002049e+00    5.221539e-02
    1.685598e+01    1.537372e+03    5.164700e-03    7.471720e+05    1.854380e-08    6.699035e-12    1.377534e-08    1.389152e-09   -9.000000e-01    1.002049e+00    5.074050e-02
    1.679528e+01    1.511271e+03    4.364872e-03    6.450481e+05    1.808785e-08    6.219925e-12    1.317649e-08    1.335181e-09   -8.900000e-01    1.002049e+00    4.944126e-02
    1.673465e+01    1.487295e+03    3.691162e-03    5.573850e+05    1.763780e-08    5.773775e-12    1.258358e-08    1.281391e-09   -8.800000e-01    1.002049e+00    4.830041e-02
    1.667844e+01    1.465728e+03    3.123272e-03    4.821487e+05    1.719509e-08    5.358460e-12    1.199834e-08    1.227944e-09   -8.700000e-01    1.002049e+00    4.730155e-02
    1.663037e+01    1.446757e+03    2.644139e-03    4.175473e+05    1.676103e-08    4.971986e-12    1.142245e-08    1.175000e-09   -8.600000e-01    1.002049e+00    4.642926e-02
    1.659367e+01    1.430502e+03    2.239462e-03    3.620236e+05    1.633689e-08    4.612471e-12    1.085748e-08    1.122711e-09   -8.500000e-01    1.002049e+00    4.566929e-02
    1.657102e+01    1.417025e+03    1.897288e-03    3.142354e+05    1.592383e-08    4.278148e-12    1.030487e-08    1.071221e-09   -8.400000e-01    1.002049e+00    4.500854e-02
    1.656476e+01    1.406356e+03    1.607630e-03    2.730354e+05    1.552288e-08    3.967357e-12    9.765955e-09    1.020667e-09   -8.300000e-01    1.002049e+00    4.443513e-02
    1.657692e+01    1.398503e+03    1.362156e-03    2.374479e+05    1.513500e-08    3.678535e-12    9.241910e-09    9.711735e-10   -8.200000e-01    1.002049e+00    4.393834e-02
    1.660935e+01    1.393468e+03    1.153908e-03    2.066470e+05    1.476098e-08    3.410217e-12    8.733760e-09    9.228550e-10   -8.100000e-01    1.002049e+00    4.350859e-02
    1.666381e+01    1.391255e+03    9.770750e-04    1.799344e+05    1.440151e-08    3.161022e-12    8.242385e-09    8.758115e-10   -8.000000e-01    1.002049e+00    4.313733e-02
    1.674199e+01    1.391876e+03    8.267935e-04    1.567208e+05    1.405716e-08    2.929659e-12    7.768500e-09    8.301310e-10   -7.900000e-01    1.002049e+00    4.281703e-02
    1.684560e+01    1.395358e+03    6.989915e-04    1.365088e+05    1.372833e-08    2.714911e-12    7.312660e-09    7.858880e-10   -7.800000e-01    1.002049e+00    4.254103e-02
    1.697636e+01    1.401741e+03    5.902535e-04    1.188780e+05    1.341535e-08    2.515641e-12    6.875275e-09    7.431440e-10   -7.700000e-01    1.002049e+00    4.230347e-02
    1.713601e+01    1.411083e+03    4.977088e-04    1.034724e+05    1.311840e-08    2.330782e-12    6.456605e-09    7.019465e-10   -7.600000e-01    1.002049e+00    4.209926e-02
    1.732630e+01    1.423447e+03    4.189409e-04    8.999040e+04    1.283756e-08    2.159333e-12    6.056770e-09    6.623305e-10   -7.500000e-01    1.002049e+00    4.192394e-02
    1.754885e+01    1.438906e+03    3.519122e-04    7.817552e+04    1.257281e-08    2.000358e-12    5.675760e-09    6.243195e-10   -7.400000e-01    1.002049e+00    4.177362e-02
    1.780515e+01    1.457530e+03    2.949012e-04    6.780932e+04    1.232404e-08    1.852983e-12    5.313455e-09    5.879245e-10   -7.300000e-01    1.002049e+00    4.164494e-02
    1.809638e+01    1.479375e+03    2.464507e-04    5.870545e+04    1.209104e-08    1.716387e-12    4.969626e-09    5.531465e-10   -7.200000e-01    1.002049e+00    4.153497e-02
