# sky130 pfet_01v8 gm/ID Processed Lookup Table
# Corner: tt
# Temperature: 0C
# W = 2.0 um
# L = 3.6 um (3600 nm)
# Columns: gm/id [1/V]  gm/gds [V/V]  id/W [A/m]  ft [Hz]  Cgg/W [F/m]  Cgd/W [F/m]  Cgs/W [F/m]  Vov [V]
#         gm/id          gm/gds            id/W              ft           Cgg/W           Cgd/W           Cgs/W             Vov
    2.290503e+00    7.273204e+00    5.355325e+00    8.927360e+07    2.186824e-08    1.522403e-09    2.030272e-08   -2.859425e+00
    2.314605e+00    7.594475e+00    5.294025e+00    8.933443e+07    2.183052e-08    1.474046e-09    2.030227e-08   -2.854425e+00
    2.338922e+00    7.935807e+00    5.232790e+00    8.938085e+07    2.179339e-08    1.426809e-09    2.030137e-08   -2.849425e+00
    2.363447e+00    8.298508e+00    5.171635e+00    8.941236e+07    2.175687e-08    1.380696e-09    2.030003e-08   -2.844425e+00
    2.388173e+00    8.683954e+00    5.110565e+00    8.942855e+07    2.172095e-08    1.335708e-09    2.029824e-08   -2.839425e+00
    2.413094e+00    9.093581e+00    5.049590e+00    8.942901e+07    2.168563e-08    1.291846e-09    2.029601e-08   -2.834425e+00
    2.438202e+00    9.528883e+00    4.988717e+00    8.941330e+07    2.165093e-08    1.249108e-09    2.029334e-08   -2.829425e+00
    2.463493e+00    9.991441e+00    4.927958e+00    8.938124e+07    2.161684e-08    1.207490e-09    2.029026e-08   -2.824425e+00
    2.488959e+00    1.048287e+01    4.867321e+00    8.933238e+07    2.158335e-08    1.166987e-09    2.028673e-08   -2.819425e+00
    2.514596e+00    1.100485e+01    4.806816e+00    8.926660e+07    2.155048e-08    1.127590e-09    2.028280e-08   -2.814425e+00
    2.540401e+00    1.155913e+01    4.746452e+00    8.918370e+07    2.151820e-08    1.089291e-09    2.027844e-08   -2.809425e+00
    2.566368e+00    1.214749e+01    4.686240e+00    8.908354e+07    2.148652e-08    1.052080e-09    2.027367e-08   -2.804425e+00
    2.592495e+00    1.277177e+01    4.626189e+00    8.896602e+07    2.145543e-08    1.015945e-09    2.026850e-08   -2.799425e+00
    2.618780e+00    1.343384e+01    4.566310e+00    8.883111e+07    2.142493e-08    9.808720e-10    2.026292e-08   -2.794425e+00
    2.645223e+00    1.413562e+01    4.506610e+00    8.867887e+07    2.139500e-08    9.468470e-10    2.025695e-08   -2.789425e+00
    2.671823e+00    1.487905e+01    4.447103e+00    8.850932e+07    2.136564e-08    9.138545e-10    2.025060e-08   -2.784425e+00
    2.698582e+00    1.566608e+01    4.387795e+00    8.832263e+07    2.133684e-08    8.818770e-10    2.024386e-08   -2.779425e+00
    2.725503e+00    1.649873e+01    4.328698e+00    8.811899e+07    2.130858e-08    8.508980e-10    2.023674e-08   -2.774425e+00
    2.752588e+00    1.737896e+01    4.269820e+00    8.789855e+07    2.128086e-08    8.208985e-10    2.022926e-08   -2.769425e+00
    2.779844e+00    1.830881e+01    4.211170e+00    8.766162e+07    2.125367e-08    7.918590e-10    2.022140e-08   -2.764425e+00
    2.807275e+00    1.929025e+01    4.152759e+00    8.740850e+07    2.122698e-08    7.637600e-10    2.021319e-08   -2.759425e+00
    2.834888e+00    2.032530e+01    4.094594e+00    8.713947e+07    2.120079e-08    7.365815e-10    2.020462e-08   -2.754425e+00
    2.862691e+00    2.141593e+01    4.036684e+00    8.685492e+07    2.117508e-08    7.103025e-10    2.019570e-08   -2.749425e+00
    2.890695e+00    2.256412e+01    3.979039e+00    8.655527e+07    2.114984e-08    6.849015e-10    2.018643e-08   -2.744425e+00
    2.918906e+00    2.377180e+01    3.921665e+00    8.624083e+07    2.112505e-08    6.603570e-10    2.017682e-08   -2.739425e+00
    2.947338e+00    2.504092e+01    3.864571e+00    8.591216e+07    2.110070e-08    6.366480e-10    2.016689e-08   -2.734425e+00
    2.976001e+00    2.637334e+01    3.807766e+00    8.556956e+07    2.107678e-08    6.137520e-10    2.015661e-08   -2.729425e+00
    3.004909e+00    2.777094e+01    3.751255e+00    8.521356e+07    2.105326e-08    5.916470e-10    2.014601e-08   -2.724425e+00
    3.034073e+00    2.923553e+01    3.695046e+00    8.484457e+07    2.103013e-08    5.703120e-10    2.013508e-08   -2.719425e+00
    3.063510e+00    3.076892e+01    3.639147e+00    8.446310e+07    2.100738e-08    5.497245e-10    2.012384e-08   -2.714425e+00
    3.093229e+00    3.237283e+01    3.583563e+00    8.406952e+07    2.098499e-08    5.298635e-10    2.011227e-08   -2.709425e+00
    3.123250e+00    3.404899e+01    3.528301e+00    8.366436e+07    2.096293e-08    5.107065e-10    2.010038e-08   -2.704425e+00
    3.153584e+00    3.579905e+01    3.473367e+00    8.324795e+07    2.094121e-08    4.922323e-10    2.008819e-08   -2.699425e+00
    3.184252e+00    3.762469e+01    3.418767e+00    8.282088e+07    2.091979e-08    4.744204e-10    2.007568e-08   -2.694425e+00
    3.215265e+00    3.952746e+01    3.364507e+00    8.238342e+07    2.089866e-08    4.572497e-10    2.006285e-08   -2.689425e+00
    3.246644e+00    4.150897e+01    3.310591e+00    8.193614e+07    2.087781e-08    4.406996e-10    2.004972e-08   -2.684425e+00
    3.278402e+00    4.357072e+01    3.257026e+00    8.147929e+07    2.085721e-08    4.247500e-10    2.003628e-08   -2.679425e+00
    3.310560e+00    4.571424e+01    3.203815e+00    8.101337e+07    2.083686e-08    4.093811e-10    2.002254e-08   -2.674425e+00
    3.343134e+00    4.794101e+01    3.150962e+00    8.053871e+07    2.081673e-08    3.945737e-10    2.000848e-08   -2.669425e+00
    3.376143e+00    5.025250e+01    3.098475e+00    8.005570e+07    2.079681e-08    3.803085e-10    1.999411e-08   -2.664425e+00
    3.409604e+00    5.265012e+01    3.046355e+00    7.956466e+07    2.077708e-08    3.665673e-10    1.997943e-08   -2.659425e+00
    3.443538e+00    5.513534e+01    2.994608e+00    7.906595e+07    2.075752e-08    3.533317e-10    1.996444e-08   -2.654425e+00
    3.477963e+00    5.770957e+01    2.943236e+00    7.855987e+07    2.073812e-08    3.405841e-10    1.994914e-08   -2.649425e+00
    3.512899e+00    6.037424e+01    2.892244e+00    7.804677e+07    2.071886e-08    3.283074e-10    1.993351e-08   -2.644425e+00
    3.548365e+00    6.313076e+01    2.841636e+00    7.752688e+07    2.069972e-08    3.164848e-10    1.991757e-08   -2.639425e+00
    3.584383e+00    6.598057e+01    2.791413e+00    7.700052e+07    2.068069e-08    3.051001e-10    1.990131e-08   -2.634425e+00
    3.620972e+00    6.892511e+01    2.741582e+00    7.646794e+07    2.066175e-08    2.941372e-10    1.988472e-08   -2.629425e+00
    3.658153e+00    7.196579e+01    2.692143e+00    7.592937e+07    2.064288e-08    2.835812e-10    1.986779e-08   -2.624425e+00
    3.695952e+00    7.510423e+01    2.643100e+00    7.538512e+07    2.062407e-08    2.734168e-10    1.985053e-08   -2.619425e+00
    3.734386e+00    7.834178e+01    2.594456e+00    7.483533e+07    2.060530e-08    2.636299e-10    1.983293e-08   -2.614425e+00
    3.773481e+00    8.168012e+01    2.546214e+00    7.428028e+07    2.058656e-08    2.542062e-10    1.981499e-08   -2.609425e+00
    3.813259e+00    8.512073e+01    2.498376e+00    7.372013e+07    2.056781e-08    2.451325e-10    1.979669e-08   -2.604425e+00
    3.853744e+00    8.866530e+01    2.450945e+00    7.315508e+07    2.054907e-08    2.363956e-10    1.977803e-08   -2.599425e+00
    3.894962e+00    9.231553e+01    2.403924e+00    7.258535e+07    2.053029e-08    2.279830e-10    1.975900e-08   -2.594425e+00
    3.936938e+00    9.607316e+01    2.357314e+00    7.201111e+07    2.051147e-08    2.198822e-10    1.973960e-08   -2.589425e+00
    3.979696e+00    9.993986e+01    2.311119e+00    7.143245e+07    2.049259e-08    2.120817e-10    1.971982e-08   -2.584425e+00
    4.023268e+00    1.039177e+02    2.265339e+00    7.084960e+07    2.047363e-08    2.045700e-10    1.969964e-08   -2.579425e+00
    4.067675e+00    1.080084e+02    2.219978e+00    7.026265e+07    2.045458e-08    1.973361e-10    1.967907e-08   -2.574425e+00
    4.112948e+00    1.122142e+02    2.175038e+00    6.967177e+07    2.043542e-08    1.903696e-10    1.965808e-08   -2.569425e+00
    4.159119e+00    1.165369e+02    2.130521e+00    6.907708e+07    2.041613e-08    1.836601e-10    1.963667e-08   -2.564425e+00
    4.206218e+00    1.209791e+02    2.086428e+00    6.847871e+07    2.039669e-08    1.771979e-10    1.961482e-08   -2.559425e+00
    4.254272e+00    1.255427e+02    2.042762e+00    6.787674e+07    2.037709e-08    1.709735e-10    1.959253e-08   -2.554425e+00
    4.303319e+00    1.302303e+02    1.999524e+00    6.727133e+07    2.035731e-08    1.649780e-10    1.956979e-08   -2.549425e+00
    4.353390e+00    1.350443e+02    1.956716e+00    6.666253e+07    2.033732e-08    1.592022e-10    1.954657e-08   -2.544425e+00
    4.404521e+00    1.399873e+02    1.914341e+00    6.605045e+07    2.031713e-08    1.536381e-10    1.952287e-08   -2.539425e+00
    4.456744e+00    1.450618e+02    1.872399e+00    6.543513e+07    2.029670e-08    1.482774e-10    1.949867e-08   -2.534425e+00
    4.510104e+00    1.502712e+02    1.830894e+00    6.481677e+07    2.027601e-08    1.431122e-10    1.947396e-08   -2.529425e+00
    4.564633e+00    1.556179e+02    1.789825e+00    6.419534e+07    2.025504e-08    1.381352e-10    1.944872e-08   -2.524425e+00
    4.620373e+00    1.611051e+02    1.749195e+00    6.357090e+07    2.023379e-08    1.333390e-10    1.942294e-08   -2.519425e+00
    4.677368e+00    1.667362e+02    1.709006e+00    6.294357e+07    2.021221e-08    1.287168e-10    1.939659e-08   -2.514425e+00
    4.735660e+00    1.725145e+02    1.669260e+00    6.231339e+07    2.019032e-08    1.242619e-10    1.936967e-08   -2.509425e+00
    4.795294e+00    1.784435e+02    1.629957e+00    6.168041e+07    2.016806e-08    1.199678e-10    1.934214e-08   -2.504425e+00
    4.856315e+00    1.845267e+02    1.591098e+00    6.104462e+07    2.014543e-08    1.158284e-10    1.931399e-08   -2.499425e+00
    4.918773e+00    1.907682e+02    1.552688e+00    6.040615e+07    2.012241e-08    1.118379e-10    1.928521e-08   -2.494425e+00
    4.982720e+00    1.971718e+02    1.514726e+00    5.976499e+07    2.009897e-08    1.079905e-10    1.925578e-08   -2.489425e+00
    5.048206e+00    2.037417e+02    1.477214e+00    5.912118e+07    2.007509e-08    1.042807e-10    1.922566e-08   -2.484425e+00
    5.115288e+00    2.104823e+02    1.440154e+00    5.847475e+07    2.005075e-08    1.007034e-10    1.919484e-08   -2.479425e+00
    5.184018e+00    2.173979e+02    1.403547e+00    5.782569e+07    2.002592e-08    9.725335e-11    1.916330e-08   -2.474425e+00
    5.254458e+00    2.244934e+02    1.367394e+00    5.717405e+07    2.000059e-08    9.392595e-11    1.913100e-08   -2.469425e+00
    5.326669e+00    2.317737e+02    1.331698e+00    5.651983e+07    1.997473e-08    9.071645e-11    1.909792e-08   -2.464425e+00
    5.400712e+00    2.392436e+02    1.296460e+00    5.586299e+07    1.994830e-08    8.762040e-11    1.906405e-08   -2.459425e+00
    5.476660e+00    2.469089e+02    1.261680e+00    5.520363e+07    1.992130e-08    8.463355e-11    1.902935e-08   -2.454425e+00
    5.554572e+00    2.547743e+02    1.227362e+00    5.454162e+07    1.989369e-08    8.175175e-11    1.899379e-08   -2.449425e+00
    5.634526e+00    2.628462e+02    1.193506e+00    5.387705e+07    1.986545e-08    7.897100e-11    1.895734e-08   -2.444425e+00
    5.716593e+00    2.711300e+02    1.160114e+00    5.320987e+07    1.983654e-08    7.628765e-11    1.891999e-08   -2.439425e+00
    5.800849e+00    2.796319e+02    1.127188e+00    5.254005e+07    1.980694e-08    7.369795e-11    1.888169e-08   -2.434425e+00
    5.887376e+00    2.883583e+02    1.094728e+00    5.186756e+07    1.977663e-08    7.119840e-11    1.884241e-08   -2.429425e+00
    5.976255e+00    2.973156e+02    1.062738e+00    5.119241e+07    1.974557e-08    6.878570e-11    1.880212e-08   -2.424425e+00
    6.067574e+00    3.065106e+02    1.031217e+00    5.051454e+07    1.971373e-08    6.645665e-11    1.876078e-08   -2.419425e+00
    6.161420e+00    3.159500e+02    1.000168e+00    4.983388e+07    1.968109e-08    6.420805e-11    1.871836e-08   -2.414425e+00
    6.257878e+00    3.256407e+02    9.695930e-01    4.915039e+07    1.964761e-08    6.203705e-11    1.867484e-08   -2.409425e+00
    6.357060e+00    3.355906e+02    9.394925e-01    4.846409e+07    1.961326e-08    5.994070e-11    1.863015e-08   -2.404425e+00
    6.459047e+00    3.458066e+02    9.098695e-01    4.777484e+07    1.957800e-08    5.791630e-11    1.858429e-08   -2.399425e+00
    6.563948e+00    3.562963e+02    8.807245e-01    4.708260e+07    1.954182e-08    5.596120e-11    1.853719e-08   -2.394425e+00
    6.671876e+00    3.670679e+02    8.520595e-01    4.638737e+07    1.950466e-08    5.407290e-11    1.848882e-08   -2.389425e+00
    6.782922e+00    3.781284e+02    8.238765e-01    4.568896e+07    1.946650e-08    5.224895e-11    1.843914e-08   -2.384425e+00
    6.897210e+00    3.894867e+02    7.961770e-01    4.498741e+07    1.942729e-08    5.048700e-11    1.838810e-08   -2.379425e+00
    7.014850e+00    4.011505e+02    7.689630e-01    4.428260e+07    1.938701e-08    4.878484e-11    1.833567e-08   -2.374425e+00
    7.135958e+00    4.131276e+02    7.422360e-01    4.357445e+07    1.934562e-08    4.714031e-11    1.828180e-08   -2.369425e+00
    7.260649e+00    4.254262e+02    7.159980e-01    4.286283e+07    1.930307e-08    4.555133e-11    1.822645e-08   -2.364425e+00
    7.389057e+00    4.380546e+02    6.902505e-01    4.214776e+07    1.925934e-08    4.401591e-11    1.816956e-08   -2.359425e+00
    7.521291e+00    4.510198e+02    6.649955e-01    4.142905e+07    1.921437e-08    4.253214e-11    1.811109e-08   -2.354425e+00
    7.657491e+00    4.643307e+02    6.402350e-01    4.070671e+07    1.916815e-08    4.109818e-11    1.805099e-08   -2.349425e+00
    7.797777e+00    4.779941e+02    6.159705e-01    3.998058e+07    1.912061e-08    3.971228e-11    1.798922e-08   -2.344425e+00
    7.942282e+00    4.920173e+02    5.922035e-01    3.925062e+07    1.907172e-08    3.837274e-11    1.792572e-08   -2.339425e+00
    8.091127e+00    5.064069e+02    5.689365e-01    3.851674e+07    1.902144e-08    3.707790e-11    1.786043e-08   -2.334425e+00
    8.244443e+00    5.211692e+02    5.461710e-01    3.777887e+07    1.896973e-08    3.582622e-11    1.779332e-08   -2.329425e+00
    8.402358e+00    5.363096e+02    5.239085e-01    3.703693e+07    1.891655e-08    3.461619e-11    1.772433e-08   -2.324425e+00
    8.565004e+00    5.518331e+02    5.021505e-01    3.629088e+07    1.886184e-08    3.344634e-11    1.765339e-08   -2.319425e+00
    8.732482e+00    5.677434e+02    4.808997e-01    3.554067e+07    1.880557e-08    3.231529e-11    1.758047e-08   -2.314425e+00
    8.904922e+00    5.840430e+02    4.601568e-01    3.478627e+07    1.874771e-08    3.122169e-11    1.750551e-08   -2.309425e+00
    9.082430e+00    6.007331e+02    4.399235e-01    3.402767e+07    1.868819e-08    3.016425e-11    1.742844e-08   -2.304425e+00
    9.265108e+00    6.178142e+02    4.202014e-01    3.326485e+07    1.862699e-08    2.914174e-11    1.734923e-08   -2.299425e+00
    9.453047e+00    6.352837e+02    4.009918e-01    3.249787e+07    1.856405e-08    2.815296e-11    1.726780e-08   -2.294425e+00
    9.646329e+00    6.531387e+02    3.822959e-01    3.172678e+07    1.849933e-08    2.719674e-11    1.718412e-08   -2.289425e+00
    9.845017e+00    6.713729e+02    3.641146e-01    3.095165e+07    1.843279e-08    2.627199e-11    1.709811e-08   -2.284425e+00
    1.004916e+01    6.899773e+02    3.464490e-01    3.017262e+07    1.836438e-08    2.537765e-11    1.700973e-08   -2.279425e+00
    1.025879e+01    7.089405e+02    3.292996e-01    2.938984e+07    1.829407e-08    2.451268e-11    1.691893e-08   -2.274425e+00
    1.047391e+01    7.282487e+02    3.126669e-01    2.860353e+07    1.822181e-08    2.367610e-11    1.682564e-08   -2.269425e+00
    1.069450e+01    7.478836e+02    2.965512e-01    2.781392e+07    1.814756e-08    2.286695e-11    1.672982e-08   -2.264425e+00
    1.092052e+01    7.678234e+02    2.809522e-01    2.702134e+07    1.807128e-08    2.208432e-11    1.663142e-08   -2.259425e+00
    1.115188e+01    7.880428e+02    2.658696e-01    2.622617e+07    1.799293e-08    2.132733e-11    1.653039e-08   -2.254425e+00
    1.138846e+01    8.085114e+02    2.513024e-01    2.542881e+07    1.791248e-08    2.059514e-11    1.642666e-08   -2.249425e+00
    1.163010e+01    8.291942e+02    2.372496e-01    2.462979e+07    1.782988e-08    1.988691e-11    1.632021e-08   -2.244425e+00
    1.187660e+01    8.500514e+02    2.237094e-01    2.382966e+07    1.774511e-08    1.920185e-11    1.621097e-08   -2.239425e+00
    1.212770e+01    8.710379e+02    2.106797e-01    2.302909e+07    1.765812e-08    1.853922e-11    1.609892e-08   -2.234425e+00
    1.238309e+01    8.921033e+02    1.981578e-01    2.222879e+07    1.756890e-08    1.789827e-11    1.598399e-08   -2.229425e+00
    1.264241e+01    9.131910e+02    1.861404e-01    2.142959e+07    1.747740e-08    1.727830e-11    1.586618e-08   -2.224425e+00
    1.290522e+01    9.342391e+02    1.746238e-01    2.063237e+07    1.738360e-08    1.667862e-11    1.574542e-08   -2.219425e+00
    1.317105e+01    9.551805e+02    1.636033e-01    1.983811e+07    1.728749e-08    1.609859e-11    1.562169e-08   -2.214425e+00
    1.343932e+01    9.759421e+02    1.530737e-01    1.904786e+07    1.718904e-08    1.553756e-11    1.549495e-08   -2.209425e+00
    1.370942e+01    9.964456e+02    1.430291e-01    1.826277e+07    1.708823e-08    1.499492e-11    1.536520e-08   -2.204425e+00
    1.398065e+01    1.016608e+03    1.334628e-01    1.748402e+07    1.698505e-08    1.447008e-11    1.523240e-08   -2.199425e+00
    1.425226e+01    1.036343e+03    1.243675e-01    1.671290e+07    1.687948e-08    1.396247e-11    1.509653e-08   -2.194425e+00
    1.452341e+01    1.055560e+03    1.157348e-01    1.595072e+07    1.677153e-08    1.347155e-11    1.495759e-08   -2.189425e+00
    1.479323e+01    1.074166e+03    1.075557e-01    1.519885e+07    1.666118e-08    1.299677e-11    1.481557e-08   -2.184425e+00
    1.506075e+01    1.092067e+03    9.982045e-02    1.445870e+07    1.654844e-08    1.253763e-11    1.467045e-08   -2.179425e+00
    1.532501e+01    1.109168e+03    9.251835e-02    1.373166e+07    1.643333e-08    1.209363e-11    1.452227e-08   -2.174425e+00
    1.558495e+01    1.125377e+03    8.563810e-02    1.301916e+07    1.631585e-08    1.166430e-11    1.437100e-08   -2.169425e+00
    1.583953e+01    1.140604e+03    7.916755e-02    1.232258e+07    1.619600e-08    1.124916e-11    1.421669e-08   -2.164425e+00
    1.608766e+01    1.154764e+03    7.309395e-02    1.164327e+07    1.607383e-08    1.084777e-11    1.405935e-08   -2.159425e+00
    1.632828e+01    1.167778e+03    6.740385e-02    1.098252e+07    1.594936e-08    1.045971e-11    1.389900e-08   -2.154425e+00
    1.656032e+01    1.179575e+03    6.208330e-02    1.034155e+07    1.582261e-08    1.008455e-11    1.373568e-08   -2.149425e+00
    1.678277e+01    1.190094e+03    5.711775e-02    9.721452e+06    1.569364e-08    9.721885e-12    1.356944e-08   -2.144425e+00
    1.699464e+01    1.199285e+03    5.249230e-02    9.123241e+06    1.556248e-08    9.371325e-12    1.340033e-08   -2.139425e+00
    1.719503e+01    1.207109e+03    4.819175e-02    8.547774e+06    1.542918e-08    9.032500e-12    1.322840e-08   -2.134425e+00
    1.738315e+01    1.213545e+03    4.420055e-02    7.995778e+06    1.529380e-08    8.705035e-12    1.305374e-08   -2.129425e+00
    1.755827e+01    1.218582e+03    4.050308e-02    7.467817e+06    1.515641e-08    8.388575e-12    1.287640e-08   -2.124425e+00
    1.771982e+01    1.222226e+03    3.708368e-02    6.964294e+06    1.501707e-08    8.082785e-12    1.269646e-08   -2.119425e+00
    1.786734e+01    1.224500e+03    3.392672e-02    6.485448e+06    1.487586e-08    7.787325e-12    1.251403e-08   -2.114425e+00
    1.800055e+01    1.225436e+03    3.101675e-02    6.031356e+06    1.473287e-08    7.501875e-12    1.232919e-08   -2.109425e+00
    1.811926e+01    1.225086e+03    2.833852e-02    5.601920e+06    1.458817e-08    7.226125e-12    1.214205e-08   -2.104425e+00
