# sky130 pfet_01v8 gm/ID Processed Lookup Table
# Corner: tt
# Temperature: 0C
# W = 2.0 um
# L = 2.52 um (2520 nm)
# Columns: gm/id [1/V]  gm/gds [V/V]  id/W [A/m]  ft [Hz]  Cgg/W [F/m]  Cgd/W [F/m]  Cgs/W [F/m]  Vov [V]
#         gm/id          gm/gds            id/W              ft           Cgg/W           Cgd/W           Cgs/W             Vov
    2.251060e+00    6.479198e+00    7.737765e+00    1.804673e+08    1.536117e-08    1.050872e-09    1.415935e-08   -2.856837e+00
    2.274972e+00    6.745862e+00    7.650705e+00    1.806349e+08    1.533543e-08    1.017605e-09    1.415910e-08   -2.851837e+00
    2.299122e+00    7.028309e+00    7.563715e+00    1.807753e+08    1.531010e-08    9.851120e-10    1.415856e-08   -2.846837e+00
    2.323501e+00    7.327516e+00    7.476810e+00    1.808874e+08    1.528520e-08    9.533950e-10    1.415770e-08   -2.841837e+00
    2.348106e+00    7.644510e+00    7.389995e+00    1.809704e+08    1.526070e-08    9.224550e-10    1.415653e-08   -2.836837e+00
    2.372929e+00    7.980362e+00    7.303290e+00    1.810234e+08    1.523662e-08    8.922915e-10    1.415506e-08   -2.831837e+00
    2.397965e+00    8.336183e+00    7.216700e+00    1.810455e+08    1.521297e-08    8.629025e-10    1.415329e-08   -2.826837e+00
    2.423207e+00    8.713130e+00    7.130240e+00    1.810359e+08    1.518973e-08    8.342850e-10    1.415122e-08   -2.821837e+00
    2.448651e+00    9.112395e+00    7.043920e+00    1.809940e+08    1.516691e-08    8.064345e-10    1.414886e-08   -2.816837e+00
    2.474288e+00    9.535217e+00    6.957760e+00    1.809192e+08    1.514450e-08    7.793455e-10    1.414621e-08   -2.811837e+00
    2.500114e+00    9.982859e+00    6.871770e+00    1.808109e+08    1.512252e-08    7.530115e-10    1.414326e-08   -2.806837e+00
    2.526126e+00    1.045662e+01    6.785965e+00    1.806687e+08    1.510093e-08    7.274250e-10    1.414004e-08   -2.801837e+00
    2.552318e+00    1.095783e+01    6.700355e+00    1.804922e+08    1.507976e-08    7.025775e-10    1.413654e-08   -2.796837e+00
    2.578690e+00    1.148784e+01    6.614955e+00    1.802813e+08    1.505898e-08    6.784595e-10    1.413276e-08   -2.791837e+00
    2.605239e+00    1.204803e+01    6.529780e+00    1.800359e+08    1.503859e-08    6.550605e-10    1.412871e-08   -2.786837e+00
    2.631961e+00    1.263977e+01    6.444845e+00    1.797557e+08    1.501860e-08    6.323700e-10    1.412439e-08   -2.781837e+00
    2.658858e+00    1.326446e+01    6.360160e+00    1.794409e+08    1.499898e-08    6.103760e-10    1.411981e-08   -2.776837e+00
    2.685933e+00    1.392352e+01    6.275740e+00    1.790918e+08    1.497975e-08    5.890660e-10    1.411497e-08   -2.771837e+00
    2.713183e+00    1.461833e+01    6.191600e+00    1.787085e+08    1.496087e-08    5.684280e-10    1.410987e-08   -2.766837e+00
    2.740613e+00    1.535031e+01    6.107755e+00    1.782915e+08    1.494235e-08    5.484480e-10    1.410452e-08   -2.761837e+00
    2.768228e+00    1.612084e+01    6.024215e+00    1.778410e+08    1.492418e-08    5.291125e-10    1.409893e-08   -2.756837e+00
    2.796032e+00    1.693130e+01    5.940995e+00    1.773577e+08    1.490636e-08    5.104075e-10    1.409308e-08   -2.751837e+00
    2.824029e+00    1.778307e+01    5.858110e+00    1.768421e+08    1.488886e-08    4.923187e-10    1.408701e-08   -2.746837e+00
    2.852232e+00    1.867748e+01    5.775565e+00    1.762948e+08    1.487167e-08    4.748315e-10    1.408069e-08   -2.741837e+00
    2.880644e+00    1.961587e+01    5.693380e+00    1.757166e+08    1.485481e-08    4.579311e-10    1.407414e-08   -2.736837e+00
    2.909275e+00    2.059952e+01    5.611565e+00    1.751082e+08    1.483824e-08    4.416028e-10    1.406735e-08   -2.731837e+00
    2.938139e+00    2.162972e+01    5.530125e+00    1.744704e+08    1.482196e-08    4.258314e-10    1.406034e-08   -2.726837e+00
    2.967239e+00    2.270769e+01    5.449085e+00    1.738039e+08    1.480596e-08    4.106022e-10    1.405311e-08   -2.721837e+00
    2.996593e+00    2.383467e+01    5.368445e+00    1.731098e+08    1.479023e-08    3.959000e-10    1.404565e-08   -2.716837e+00
    3.026214e+00    2.501183e+01    5.288215e+00    1.723887e+08    1.477475e-08    3.817099e-10    1.403797e-08   -2.711837e+00
    3.056110e+00    2.624033e+01    5.208415e+00    1.716416e+08    1.475952e-08    3.680172e-10    1.403008e-08   -2.706837e+00
    3.086299e+00    2.752129e+01    5.129045e+00    1.708693e+08    1.474452e-08    3.548070e-10    1.402197e-08   -2.701837e+00
    3.116793e+00    2.885581e+01    5.050120e+00    1.700726e+08    1.472975e-08    3.420649e-10    1.401364e-08   -2.696837e+00
    3.147609e+00    3.024498e+01    4.971647e+00    1.692526e+08    1.471518e-08    3.297764e-10    1.400510e-08   -2.691837e+00
    3.178762e+00    3.168982e+01    4.893635e+00    1.684100e+08    1.470083e-08    3.179273e-10    1.399635e-08   -2.686837e+00
    3.210267e+00    3.319137e+01    4.816092e+00    1.675456e+08    1.468666e-08    3.065036e-10    1.398738e-08   -2.681837e+00
    3.242140e+00    3.475062e+01    4.739028e+00    1.666603e+08    1.467266e-08    2.954916e-10    1.397821e-08   -2.676837e+00
    3.274399e+00    3.636859e+01    4.662449e+00    1.657550e+08    1.465883e-08    2.848777e-10    1.396882e-08   -2.671837e+00
    3.307062e+00    3.804622e+01    4.586363e+00    1.648302e+08    1.464516e-08    2.746488e-10    1.395923e-08   -2.666837e+00
    3.340145e+00    3.978450e+01    4.510778e+00    1.638869e+08    1.463163e-08    2.647919e-10    1.394942e-08   -2.661837e+00
    3.373667e+00    4.158439e+01    4.435698e+00    1.629256e+08    1.461824e-08    2.552943e-10    1.393940e-08   -2.656837e+00
    3.407646e+00    4.344683e+01    4.361134e+00    1.619473e+08    1.460496e-08    2.461438e-10    1.392917e-08   -2.651837e+00
    3.442102e+00    4.537279e+01    4.287089e+00    1.609525e+08    1.459179e-08    2.373282e-10    1.391873e-08   -2.646837e+00
    3.477053e+00    4.736324e+01    4.213570e+00    1.599418e+08    1.457872e-08    2.288359e-10    1.390807e-08   -2.641837e+00
    3.512519e+00    4.941915e+01    4.140583e+00    1.589160e+08    1.456574e-08    2.206553e-10    1.389719e-08   -2.636837e+00
    3.548521e+00    5.154152e+01    4.068133e+00    1.578756e+08    1.455284e-08    2.127754e-10    1.388610e-08   -2.631837e+00
    3.585079e+00    5.373134e+01    3.996226e+00    1.568211e+08    1.454000e-08    2.051855e-10    1.387478e-08   -2.626837e+00
    3.622215e+00    5.598965e+01    3.924867e+00    1.557532e+08    1.452721e-08    1.978750e-10    1.386324e-08   -2.621837e+00
    3.659949e+00    5.831751e+01    3.854061e+00    1.546723e+08    1.451447e-08    1.908337e-10    1.385147e-08   -2.616837e+00
    3.698304e+00    6.071598e+01    3.783812e+00    1.535790e+08    1.450175e-08    1.840519e-10    1.383947e-08   -2.611837e+00
    3.737302e+00    6.318619e+01    3.714125e+00    1.524736e+08    1.448906e-08    1.775200e-10    1.382724e-08   -2.606837e+00
    3.776967e+00    6.572933e+01    3.645005e+00    1.513568e+08    1.447637e-08    1.712289e-10    1.381477e-08   -2.601837e+00
    3.817324e+00    6.834658e+01    3.576456e+00    1.502288e+08    1.446368e-08    1.651694e-10    1.380205e-08   -2.596837e+00
    3.858394e+00    7.103916e+01    3.508482e+00    1.490900e+08    1.445098e-08    1.593331e-10    1.378909e-08   -2.591837e+00
    3.900205e+00    7.380838e+01    3.441086e+00    1.479410e+08    1.443825e-08    1.537116e-10    1.377587e-08   -2.586837e+00
    3.942782e+00    7.665565e+01    3.374274e+00    1.467820e+08    1.442549e-08    1.482968e-10    1.376239e-08   -2.581837e+00
    3.986153e+00    7.958229e+01    3.308047e+00    1.456133e+08    1.441268e-08    1.430811e-10    1.374865e-08   -2.576837e+00
    4.030343e+00    8.258984e+01    3.242411e+00    1.444354e+08    1.439980e-08    1.380568e-10    1.373464e-08   -2.571837e+00
    4.075381e+00    8.567980e+01    3.177368e+00    1.432485e+08    1.438686e-08    1.332167e-10    1.372035e-08   -2.566837e+00
    4.121297e+00    8.885376e+01    3.112922e+00    1.420528e+08    1.437383e-08    1.285540e-10    1.370577e-08   -2.561837e+00
    4.168120e+00    9.211341e+01    3.049076e+00    1.408487e+08    1.436071e-08    1.240617e-10    1.369091e-08   -2.556837e+00
    4.215882e+00    9.546059e+01    2.985834e+00    1.396364e+08    1.434748e-08    1.197336e-10    1.367573e-08   -2.551837e+00
    4.264617e+00    9.889706e+01    2.923198e+00    1.384162e+08    1.433414e-08    1.155633e-10    1.366026e-08   -2.546837e+00
    4.314355e+00    1.024248e+02    2.861172e+00    1.371882e+08    1.432066e-08    1.115448e-10    1.364447e-08   -2.541837e+00
    4.365131e+00    1.060457e+02    2.799758e+00    1.359528e+08    1.430704e-08    1.076725e-10    1.362835e-08   -2.536837e+00
    4.416984e+00    1.097620e+02    2.738959e+00    1.347101e+08    1.429327e-08    1.039406e-10    1.361189e-08   -2.531837e+00
    4.469946e+00    1.135759e+02    2.678780e+00    1.334602e+08    1.427932e-08    1.003439e-10    1.359509e-08   -2.526837e+00
    4.524060e+00    1.174897e+02    2.619221e+00    1.322035e+08    1.426519e-08    9.687715e-11    1.357793e-08   -2.521837e+00
    4.579360e+00    1.215058e+02    2.560286e+00    1.309398e+08    1.425088e-08    9.353550e-11    1.356041e-08   -2.516837e+00
    4.635895e+00    1.256267e+02    2.501977e+00    1.296696e+08    1.423635e-08    9.031415e-11    1.354250e-08   -2.511837e+00
    4.693701e+00    1.298551e+02    2.444297e+00    1.283929e+08    1.422160e-08    8.720850e-11    1.352420e-08   -2.506837e+00
    4.752827e+00    1.341938e+02    2.387250e+00    1.271098e+08    1.420663e-08    8.421420e-11    1.350550e-08   -2.501837e+00
    4.813316e+00    1.386455e+02    2.330836e+00    1.258204e+08    1.419140e-08    8.132700e-11    1.348638e-08   -2.496837e+00
    4.875216e+00    1.432135e+02    2.275060e+00    1.245249e+08    1.417590e-08    7.854285e-11    1.346684e-08   -2.491837e+00
    4.938579e+00    1.479007e+02    2.219923e+00    1.232233e+08    1.416013e-08    7.585780e-11    1.344684e-08   -2.486837e+00
    5.003457e+00    1.527106e+02    2.165428e+00    1.219157e+08    1.414407e-08    7.326815e-11    1.342639e-08   -2.481837e+00
    5.069902e+00    1.576466e+02    2.111578e+00    1.206023e+08    1.412769e-08    7.077030e-11    1.340546e-08   -2.476837e+00
    5.137968e+00    1.627120e+02    2.058374e+00    1.192829e+08    1.411100e-08    6.836070e-11    1.338405e-08   -2.471837e+00
    5.207717e+00    1.679109e+02    2.005819e+00    1.179577e+08    1.409396e-08    6.603615e-11    1.336212e-08   -2.466837e+00
    5.279204e+00    1.732471e+02    1.953918e+00    1.166267e+08    1.407657e-08    6.379335e-11    1.333967e-08   -2.461837e+00
    5.352500e+00    1.787245e+02    1.902669e+00    1.152900e+08    1.405880e-08    6.162925e-11    1.331668e-08   -2.456837e+00
    5.427663e+00    1.843476e+02    1.852078e+00    1.139476e+08    1.404065e-08    5.954095e-11    1.329313e-08   -2.451837e+00
    5.504764e+00    1.901205e+02    1.802145e+00    1.125994e+08    1.402208e-08    5.752560e-11    1.326899e-08   -2.446837e+00
    5.583871e+00    1.960478e+02    1.752875e+00    1.112455e+08    1.400309e-08    5.558045e-11    1.324426e-08   -2.441837e+00
    5.665060e+00    2.021345e+02    1.704268e+00    1.098859e+08    1.398366e-08    5.370290e-11    1.321892e-08   -2.436837e+00
    5.748407e+00    2.083853e+02    1.656327e+00    1.085204e+08    1.396376e-08    5.189045e-11    1.319293e-08   -2.431837e+00
    5.833987e+00    2.148054e+02    1.609057e+00    1.071492e+08    1.394338e-08    5.014065e-11    1.316627e-08   -2.426837e+00
    5.921886e+00    2.214001e+02    1.562457e+00    1.057720e+08    1.392250e-08    4.845125e-11    1.313894e-08   -2.421837e+00
    6.012187e+00    2.281748e+02    1.516531e+00    1.043890e+08    1.390109e-08    4.681999e-11    1.311089e-08   -2.416837e+00
    6.104981e+00    2.351353e+02    1.471280e+00    1.030000e+08    1.387914e-08    4.524473e-11    1.308211e-08   -2.411837e+00
    6.200356e+00    2.422875e+02    1.426710e+00    1.016049e+08    1.385663e-08    4.372341e-11    1.305258e-08   -2.406837e+00
    6.298406e+00    2.496371e+02    1.382821e+00    1.002037e+08    1.383353e-08    4.225409e-11    1.302226e-08   -2.401837e+00
    6.399234e+00    2.571908e+02    1.339615e+00    9.879621e+07    1.380982e-08    4.083484e-11    1.299114e-08   -2.396837e+00
    6.502934e+00    2.649546e+02    1.297096e+00    9.738227e+07    1.378547e-08    3.946386e-11    1.295917e-08   -2.391837e+00
    6.609616e+00    2.729354e+02    1.255267e+00    9.596191e+07    1.376047e-08    3.813940e-11    1.292635e-08   -2.386837e+00
    6.719388e+00    2.811397e+02    1.214128e+00    9.453493e+07    1.373480e-08    3.685977e-11    1.289263e-08   -2.381837e+00
    6.832354e+00    2.895745e+02    1.173686e+00    9.310114e+07    1.370842e-08    3.562336e-11    1.285800e-08   -2.376837e+00
    6.948641e+00    2.982468e+02    1.133939e+00    9.166049e+07    1.368130e-08    3.442862e-11    1.282241e-08   -2.371837e+00
    7.068353e+00    3.071637e+02    1.094893e+00    9.021279e+07    1.365344e-08    3.327406e-11    1.278584e-08   -2.366837e+00
    7.191621e+00    3.163325e+02    1.056549e+00    8.875785e+07    1.362479e-08    3.215826e-11    1.274825e-08   -2.361837e+00
    7.318559e+00    3.257603e+02    1.018911e+00    8.729554e+07    1.359534e-08    3.107981e-11    1.270963e-08   -2.356837e+00
    7.449298e+00    3.354545e+02    9.819805e-01    8.582565e+07    1.356505e-08    3.003740e-11    1.266992e-08   -2.351837e+00
    7.583967e+00    3.454226e+02    9.457610e-01    8.434807e+07    1.353390e-08    2.902977e-11    1.262910e-08   -2.346837e+00
    7.722689e+00    3.556715e+02    9.102555e-01    8.286260e+07    1.350186e-08    2.805568e-11    1.258714e-08   -2.341837e+00
    7.865600e+00    3.662085e+02    8.754660e-01    8.136903e+07    1.346890e-08    2.711396e-11    1.254398e-08   -2.336837e+00
    8.012831e+00    3.770404e+02    8.413955e-01    7.986729e+07    1.343499e-08    2.620347e-11    1.249962e-08   -2.331837e+00
    8.164513e+00    3.881742e+02    8.080470e-01    7.835716e+07    1.340011e-08    2.532314e-11    1.245401e-08   -2.326837e+00
    8.320769e+00    3.996161e+02    7.754235e-01    7.683851e+07    1.336422e-08    2.447190e-11    1.240710e-08   -2.321837e+00
    8.481743e+00    4.113724e+02    7.435270e-01    7.531124e+07    1.332730e-08    2.364875e-11    1.235886e-08   -2.316837e+00
    8.647559e+00    4.234483e+02    7.123600e-01    7.377526e+07    1.328931e-08    2.285274e-11    1.230926e-08   -2.311837e+00
    8.818325e+00    4.358485e+02    6.819260e-01    7.223043e+07    1.325023e-08    2.208291e-11    1.225826e-08   -2.306837e+00
    8.994176e+00    4.485776e+02    6.522265e-01    7.067679e+07    1.321001e-08    2.133838e-11    1.220582e-08   -2.301837e+00
    9.175206e+00    4.616380e+02    6.232645e-01    6.911422e+07    1.316864e-08    2.061829e-11    1.215189e-08   -2.296837e+00
    9.361532e+00    4.750323e+02    5.950415e-01    6.754283e+07    1.312608e-08    1.992179e-11    1.209645e-08   -2.291837e+00
    9.553237e+00    4.887616e+02    5.675600e-01    6.596266e+07    1.308231e-08    1.924810e-11    1.203945e-08   -2.286837e+00
    9.750398e+00    5.028244e+02    5.408215e-01    6.437387e+07    1.303728e-08    1.859644e-11    1.198085e-08   -2.281837e+00
    9.953081e+00    5.172193e+02    5.148280e-01    6.277669e+07    1.299097e-08    1.796607e-11    1.192061e-08   -2.276837e+00
    1.016133e+01    5.319421e+02    4.895808e-01    6.117142e+07    1.294335e-08    1.735627e-11    1.185869e-08   -2.271837e+00
    1.037518e+01    5.469861e+02    4.650805e-01    5.955839e+07    1.289439e-08    1.676637e-11    1.179507e-08   -2.266837e+00
    1.059461e+01    5.623428e+02    4.413280e-01    5.793810e+07    1.284406e-08    1.619569e-11    1.172970e-08   -2.261837e+00
    1.081960e+01    5.780014e+02    4.183236e-01    5.631111e+07    1.279233e-08    1.564361e-11    1.166254e-08   -2.256837e+00
    1.105010e+01    5.939466e+02    3.960669e-01    5.467814e+07    1.273917e-08    1.510950e-11    1.159355e-08   -2.251837e+00
    1.128600e+01    6.101623e+02    3.745575e-01    5.303997e+07    1.268456e-08    1.459278e-11    1.152270e-08   -2.246837e+00
    1.152718e+01    6.266264e+02    3.537939e-01    5.139760e+07    1.262847e-08    1.409286e-11    1.144995e-08   -2.241837e+00
    1.177345e+01    6.433149e+02    3.337743e-01    4.975210e+07    1.257087e-08    1.360922e-11    1.137527e-08   -2.236837e+00
    1.202458e+01    6.601981e+02    3.144961e-01    4.810475e+07    1.251173e-08    1.314130e-11    1.129863e-08   -2.231837e+00
    1.228030e+01    6.772442e+02    2.959562e-01    4.645696e+07    1.245104e-08    1.268860e-11    1.122000e-08   -2.226837e+00
    1.254027e+01    6.944149e+02    2.781503e-01    4.481033e+07    1.238878e-08    1.225064e-11    1.113934e-08   -2.221837e+00
    1.280410e+01    7.116678e+02    2.610736e-01    4.316662e+07    1.232492e-08    1.182692e-11    1.105663e-08   -2.216837e+00
    1.307132e+01    7.289563e+02    2.447201e-01    4.152778e+07    1.225944e-08    1.141700e-11    1.097185e-08   -2.211837e+00
    1.334141e+01    7.462287e+02    2.290830e-01    3.989587e+07    1.219234e-08    1.102044e-11    1.088497e-08   -2.206837e+00
    1.361378e+01    7.634282e+02    2.141544e-01    3.827321e+07    1.212358e-08    1.063680e-11    1.079597e-08   -2.201837e+00
    1.388775e+01    7.804943e+02    1.999253e-01    3.666220e+07    1.205317e-08    1.026568e-11    1.070484e-08   -2.196837e+00
    1.416259e+01    7.973614e+02    1.863857e-01    3.506543e+07    1.198109e-08    9.906660e-12    1.061155e-08   -2.191837e+00
    1.443750e+01    8.139606e+02    1.735243e-01    3.348557e+07    1.190734e-08    9.559380e-12    1.051611e-08   -2.186837e+00
    1.471160e+01    8.302193e+02    1.613288e-01    3.192546e+07    1.183191e-08    9.223460e-12    1.041849e-08   -2.181837e+00
    1.498397e+01    8.460628e+02    1.497856e-01    3.038798e+07    1.175480e-08    8.898540e-12    1.031870e-08   -2.176837e+00
    1.525362e+01    8.614146e+02    1.388798e-01    2.887605e+07    1.167601e-08    8.584275e-12    1.021673e-08   -2.171837e+00
    1.551951e+01    8.761971e+02    1.285959e-01    2.739262e+07    1.159555e-08    8.280330e-12    1.011260e-08   -2.166837e+00
    1.578056e+01    8.903337e+02    1.189166e-01    2.594062e+07    1.151343e-08    7.986390e-12    1.000629e-08   -2.161837e+00
    1.603571e+01    9.037491e+02    1.098240e-01    2.452292e+07    1.142966e-08    7.702130e-12    9.897840e-09   -2.156837e+00
    1.628383e+01    9.163707e+02    1.012991e-01    2.314229e+07    1.134425e-08    7.427250e-12    9.787250e-09   -2.151837e+00
    1.652384e+01    9.281316e+02    9.332185e-02    2.180133e+07    1.125723e-08    7.161465e-12    9.674550e-09   -2.146837e+00
    1.675467e+01    9.389695e+02    8.587165e-02    2.050248e+07    1.116862e-08    6.904490e-12    9.559765e-09   -2.141837e+00
    1.697529e+01    9.488299e+02    7.892710e-02    1.924795e+07    1.107845e-08    6.656045e-12    9.442925e-09   -2.136837e+00
    1.718475e+01    9.576671e+02    7.246615e-02    1.803970e+07    1.098675e-08    6.415870e-12    9.324070e-09   -2.131837e+00
    1.738216e+01    9.654441e+02    6.646645e-02    1.687938e+07    1.089356e-08    6.183710e-12    9.203235e-09   -2.126837e+00
    1.756675e+01    9.721359e+02    6.090525e-02    1.576834e+07    1.079892e-08    5.959320e-12    9.080480e-09   -2.121837e+00
    1.773783e+01    9.777276e+02    5.575975e-02    1.470758e+07    1.070287e-08    5.742450e-12    8.955855e-09   -2.116837e+00
    1.789492e+01    9.822187e+02    5.100705e-02    1.369778e+07    1.060547e-08    5.532875e-12    8.829415e-09   -2.111837e+00
    1.803758e+01    9.856182e+02    4.662454e-02    1.273925e+07    1.050677e-08    5.330365e-12    8.701225e-09   -2.106837e+00
    1.816563e+01    9.879486e+02    4.258971e-02    1.183196e+07    1.040683e-08    5.134705e-12    8.571365e-09   -2.101837e+00
