# sky130 pfet_01v8 gm/ID Processed Lookup Table
# Corner: tt
# Temperature: 0C
# W = 2.0 um
# L = 3.96 um (3960 nm)
# Columns: gm/id [1/V]  gm/gds [V/V]  id/W [A/m]  ft [Hz]  Cgg/W [F/m]  Cgd/W [F/m]  Cgs/W [F/m]  Vov [V]
#         gm/id          gm/gds            id/W              ft           Cgg/W           Cgd/W           Cgs/W             Vov
    2.298969e+00    7.493316e+00    4.848702e+00    7.380757e+07    2.403687e-08    1.684575e-09    2.234535e-08   -2.859976e+00
    2.323079e+00    7.829705e+00    4.792998e+00    7.385329e+07    2.399504e-08    1.631044e-09    2.234485e-08   -2.854976e+00
    2.347398e+00    8.187336e+00    4.737360e+00    7.388694e+07    2.395387e-08    1.578749e-09    2.234385e-08   -2.849976e+00
    2.371919e+00    8.567597e+00    4.681795e+00    7.390807e+07    2.391336e-08    1.527695e-09    2.234236e-08   -2.844976e+00
    2.396635e+00    8.971961e+00    4.626314e+00    7.391637e+07    2.387352e-08    1.477884e-09    2.234038e-08   -2.839976e+00
    2.421540e+00    9.401965e+00    4.570922e+00    7.391153e+07    2.383436e-08    1.429315e-09    2.233792e-08   -2.834976e+00
    2.446626e+00    9.859216e+00    4.515630e+00    7.389320e+07    2.379587e-08    1.381990e-09    2.233497e-08   -2.829976e+00
    2.471888e+00    1.034539e+01    4.460445e+00    7.386119e+07    2.375805e-08    1.335902e-09    2.233156e-08   -2.824976e+00
    2.497321e+00    1.086223e+01    4.405375e+00    7.381524e+07    2.372091e-08    1.291046e-09    2.232766e-08   -2.819976e+00
    2.522918e+00    1.141154e+01    4.350431e+00    7.375517e+07    2.368444e-08    1.247415e-09    2.232331e-08   -2.814976e+00
    2.548677e+00    1.199519e+01    4.295621e+00    7.368089e+07    2.364863e-08    1.204999e-09    2.231849e-08   -2.809976e+00
    2.574595e+00    1.261509e+01    4.240952e+00    7.359228e+07    2.361349e-08    1.163785e-09    2.231322e-08   -2.804976e+00
    2.600669e+00    1.327324e+01    4.186436e+00    7.348933e+07    2.357900e-08    1.123763e-09    2.230751e-08   -2.799976e+00
    2.626896e+00    1.397163e+01    4.132080e+00    7.337196e+07    2.354516e-08    1.084916e-09    2.230135e-08   -2.794976e+00
    2.653278e+00    1.471234e+01    4.077894e+00    7.324027e+07    2.351196e-08    1.047230e-09    2.229475e-08   -2.789976e+00
    2.679813e+00    1.549746e+01    4.023886e+00    7.309430e+07    2.347938e-08    1.010686e-09    2.228773e-08   -2.784976e+00
    2.706505e+00    1.632913e+01    3.970064e+00    7.293421e+07    2.344743e-08    9.752680e-10    2.228028e-08   -2.779976e+00
    2.733357e+00    1.720948e+01    3.916438e+00    7.276016e+07    2.341608e-08    9.409550e-10    2.227242e-08   -2.774976e+00
    2.760373e+00    1.814068e+01    3.863017e+00    7.257232e+07    2.338533e-08    9.077275e-10    2.226414e-08   -2.769976e+00
    2.787556e+00    1.912492e+01    3.809808e+00    7.237091e+07    2.335515e-08    8.755635e-10    2.225546e-08   -2.764976e+00
    2.814915e+00    2.016437e+01    3.756819e+00    7.215623e+07    2.332555e-08    8.444420e-10    2.224639e-08   -2.759976e+00
    2.842456e+00    2.126122e+01    3.704059e+00    7.192856e+07    2.329649e-08    8.143405e-10    2.223691e-08   -2.754976e+00
    2.870187e+00    2.241760e+01    3.651535e+00    7.168816e+07    2.326796e-08    7.852355e-10    2.222706e-08   -2.749976e+00
    2.898120e+00    2.363571e+01    3.599255e+00    7.143546e+07    2.323996e-08    7.571040e-10    2.221682e-08   -2.744976e+00
    2.926262e+00    2.491765e+01    3.547227e+00    7.117067e+07    2.321247e-08    7.299220e-10    2.220620e-08   -2.739976e+00
    2.954626e+00    2.626555e+01    3.495456e+00    7.089424e+07    2.318545e-08    7.036660e-10    2.219521e-08   -2.734976e+00
    2.983223e+00    2.768149e+01    3.443951e+00    7.060651e+07    2.315891e-08    6.783115e-10    2.218386e-08   -2.729976e+00
    3.012066e+00    2.916751e+01    3.392718e+00    7.030784e+07    2.313282e-08    6.538340e-10    2.217214e-08   -2.724976e+00
    3.041169e+00    3.072564e+01    3.341763e+00    6.999864e+07    2.310717e-08    6.302105e-10    2.216006e-08   -2.719976e+00
    3.070546e+00    3.235784e+01    3.291091e+00    6.967926e+07    2.308193e-08    6.074155e-10    2.214762e-08   -2.714976e+00
    3.100210e+00    3.406607e+01    3.240710e+00    6.935009e+07    2.305708e-08    5.854255e-10    2.213483e-08   -2.709976e+00
    3.130178e+00    3.585224e+01    3.190624e+00    6.901149e+07    2.303262e-08    5.642165e-10    2.212170e-08   -2.704976e+00
    3.160464e+00    3.771819e+01    3.140840e+00    6.866383e+07    2.300852e-08    5.437650e-10    2.210822e-08   -2.699976e+00
    3.191083e+00    3.966575e+01    3.091361e+00    6.830744e+07    2.298476e-08    5.240475e-10    2.209438e-08   -2.694976e+00
    3.222056e+00    4.169673e+01    3.042193e+00    6.794273e+07    2.296133e-08    5.050410e-10    2.208021e-08   -2.689976e+00
    3.253395e+00    4.381287e+01    2.993341e+00    6.756999e+07    2.293820e-08    4.867228e-10    2.206569e-08   -2.684976e+00
    3.285117e+00    4.601586e+01    2.944809e+00    6.718954e+07    2.291536e-08    4.690702e-10    2.205084e-08   -2.679976e+00
    3.317244e+00    4.830743e+01    2.896602e+00    6.680176e+07    2.289277e-08    4.520617e-10    2.203564e-08   -2.674976e+00
    3.349790e+00    5.068926e+01    2.848724e+00    6.640691e+07    2.287045e-08    4.356756e-10    2.202009e-08   -2.669976e+00
    3.382774e+00    5.316293e+01    2.801177e+00    6.600530e+07    2.284836e-08    4.198907e-10    2.200420e-08   -2.664976e+00
    3.416217e+00    5.573012e+01    2.753967e+00    6.559725e+07    2.282647e-08    4.046866e-10    2.198797e-08   -2.659976e+00
    3.450133e+00    5.839237e+01    2.707097e+00    6.518295e+07    2.280478e-08    3.900432e-10    2.197140e-08   -2.654976e+00
    3.484547e+00    6.115134e+01    2.660569e+00    6.476276e+07    2.278326e-08    3.759407e-10    2.195447e-08   -2.649976e+00
    3.519474e+00    6.400860e+01    2.614389e+00    6.433684e+07    2.276189e-08    3.623603e-10    2.193719e-08   -2.644976e+00
    3.554934e+00    6.696568e+01    2.568558e+00    6.390544e+07    2.274067e-08    3.492831e-10    2.191957e-08   -2.639976e+00
    3.590951e+00    7.002425e+01    2.523080e+00    6.346885e+07    2.271956e-08    3.366912e-10    2.190158e-08   -2.634976e+00
    3.627544e+00    7.318588e+01    2.477956e+00    6.302725e+07    2.269855e-08    3.245671e-10    2.188323e-08   -2.629976e+00
    3.664734e+00    7.645221e+01    2.433191e+00    6.258083e+07    2.267762e-08    3.128937e-10    2.186451e-08   -2.624976e+00
    3.702542e+00    7.982485e+01    2.388787e+00    6.212978e+07    2.265676e-08    3.016544e-10    2.184542e-08   -2.619976e+00
    3.740991e+00    8.330548e+01    2.344746e+00    6.167427e+07    2.263595e-08    2.908333e-10    2.182596e-08   -2.614976e+00
    3.780104e+00    8.689579e+01    2.301071e+00    6.121453e+07    2.261515e-08    2.804149e-10    2.180611e-08   -2.609976e+00
    3.819908e+00    9.059763e+01    2.257764e+00    6.075072e+07    2.259437e-08    2.703840e-10    2.178587e-08   -2.604976e+00
    3.860420e+00    9.441259e+01    2.214828e+00    6.028295e+07    2.257357e-08    2.607264e-10    2.176522e-08   -2.599976e+00
    3.901668e+00    9.834259e+01    2.172264e+00    5.981135e+07    2.255274e-08    2.514279e-10    2.174418e-08   -2.594976e+00
    3.943678e+00    1.023896e+02    2.130074e+00    5.933611e+07    2.253187e-08    2.424750e-10    2.172272e-08   -2.589976e+00
    3.986476e+00    1.065555e+02    2.088261e+00    5.885735e+07    2.251092e-08    2.338546e-10    2.170083e-08   -2.584976e+00
    4.030088e+00    1.108422e+02    2.046827e+00    5.837519e+07    2.248989e-08    2.255541e-10    2.167850e-08   -2.579976e+00
    4.074542e+00    1.152521e+02    2.005773e+00    5.788973e+07    2.246876e-08    2.175614e-10    2.165574e-08   -2.574976e+00
    4.119867e+00    1.197870e+02    1.965101e+00    5.740109e+07    2.244751e-08    2.098645e-10    2.163252e-08   -2.569976e+00
    4.166095e+00    1.244495e+02    1.924814e+00    5.690941e+07    2.242611e-08    2.024525e-10    2.160882e-08   -2.564976e+00
    4.213250e+00    1.292417e+02    1.884912e+00    5.641471e+07    2.240454e-08    1.953142e-10    2.158466e-08   -2.559976e+00
    4.261371e+00    1.341662e+02    1.845398e+00    5.591717e+07    2.238280e-08    1.884392e-10    2.156000e-08   -2.554976e+00
    4.310486e+00    1.392254e+02    1.806273e+00    5.541680e+07    2.236085e-08    1.818174e-10    2.153483e-08   -2.549976e+00
    4.360627e+00    1.444220e+02    1.767540e+00    5.491368e+07    2.233869e-08    1.754390e-10    2.150913e-08   -2.544976e+00
    4.411834e+00    1.497589e+02    1.729198e+00    5.440795e+07    2.231628e-08    1.692948e-10    2.148291e-08   -2.539976e+00
    4.464141e+00    1.552389e+02    1.691250e+00    5.389961e+07    2.229361e-08    1.633757e-10    2.145613e-08   -2.534976e+00
    4.517586e+00    1.608650e+02    1.653699e+00    5.338878e+07    2.227065e-08    1.576731e-10    2.142878e-08   -2.529976e+00
    4.572205e+00    1.666403e+02    1.616544e+00    5.287546e+07    2.224740e-08    1.521786e-10    2.140085e-08   -2.524976e+00
    4.628040e+00    1.725680e+02    1.579788e+00    5.235973e+07    2.222381e-08    1.468842e-10    2.137230e-08   -2.519976e+00
    4.685137e+00    1.786519e+02    1.543431e+00    5.184167e+07    2.219988e-08    1.417823e-10    2.134315e-08   -2.514976e+00
    4.743535e+00    1.848952e+02    1.507476e+00    5.132131e+07    2.217558e-08    1.368655e-10    2.131334e-08   -2.509976e+00
    4.803278e+00    1.913018e+02    1.471924e+00    5.079865e+07    2.215089e-08    1.321265e-10    2.128287e-08   -2.504976e+00
    4.864415e+00    1.978755e+02    1.436776e+00    5.027376e+07    2.212578e-08    1.275587e-10    2.125172e-08   -2.499976e+00
    4.926997e+00    2.046204e+02    1.402034e+00    4.974667e+07    2.210023e-08    1.231555e-10    2.121987e-08   -2.494976e+00
    4.991067e+00    2.115406e+02    1.367698e+00    4.921739e+07    2.207422e-08    1.189106e-10    2.118728e-08   -2.489976e+00
    5.056687e+00    2.186407e+02    1.333772e+00    4.868597e+07    2.204773e-08    1.148178e-10    2.115394e-08   -2.484976e+00
    5.123907e+00    2.259251e+02    1.300254e+00    4.815242e+07    2.202072e-08    1.108715e-10    2.111982e-08   -2.479976e+00
    5.192783e+00    2.333987e+02    1.267148e+00    4.761676e+07    2.199317e-08    1.070660e-10    2.108489e-08   -2.474976e+00
    5.263373e+00    2.410664e+02    1.234455e+00    4.707898e+07    2.196506e-08    1.033960e-10    2.104914e-08   -2.469976e+00
    5.335740e+00    2.489331e+02    1.202174e+00    4.653906e+07    2.193637e-08    9.985635e-11    2.101253e-08   -2.464976e+00
    5.409947e+00    2.570045e+02    1.170310e+00    4.599708e+07    2.190705e-08    9.644205e-11    2.097502e-08   -2.459976e+00
    5.486067e+00    2.652862e+02    1.138861e+00    4.545302e+07    2.187708e-08    9.314845e-11    2.093661e-08   -2.454976e+00
    5.564154e+00    2.737834e+02    1.107832e+00    4.490681e+07    2.184644e-08    8.997090e-11    2.089724e-08   -2.449976e+00
    5.644290e+00    2.825025e+02    1.077221e+00    4.435849e+07    2.181511e-08    8.690510e-11    2.085689e-08   -2.444976e+00
    5.726548e+00    2.914497e+02    1.047030e+00    4.380806e+07    2.178303e-08    8.394685e-11    2.081553e-08   -2.439976e+00
    5.811003e+00    3.006312e+02    1.017262e+00    4.325547e+07    2.175019e-08    8.109210e-11    2.077313e-08   -2.434976e+00
    5.897731e+00    3.100535e+02    9.879180e-01    4.270070e+07    2.171656e-08    7.833695e-11    2.072964e-08   -2.429976e+00
    5.986827e+00    3.197236e+02    9.589980e-01    4.214375e+07    2.168210e-08    7.567770e-11    2.068503e-08   -2.424976e+00
    6.078361e+00    3.296482e+02    9.305050e-01    4.158455e+07    2.164678e-08    7.311080e-11    2.063926e-08   -2.419976e+00
    6.172434e+00    3.398346e+02    9.024390e-01    4.102308e+07    2.161057e-08    7.063285e-11    2.059231e-08   -2.414976e+00
    6.269131e+00    3.502905e+02    8.748030e-01    4.045934e+07    2.157342e-08    6.824055e-11    2.054411e-08   -2.409976e+00
    6.368557e+00    3.610232e+02    8.475970e-01    3.989325e+07    2.153531e-08    6.593065e-11    2.049464e-08   -2.404976e+00
    6.470794e+00    3.720400e+02    8.208235e-01    3.932473e+07    2.149621e-08    6.370025e-11    2.044386e-08   -2.399976e+00
    6.575960e+00    3.833496e+02    7.944840e-01    3.875382e+07    2.145606e-08    6.154635e-11    2.039172e-08   -2.394976e+00
    6.684149e+00    3.949592e+02    7.685795e-01    3.818038e+07    2.141484e-08    5.946615e-11    2.033817e-08   -2.389976e+00
    6.795474e+00    4.068771e+02    7.431115e-01    3.760437e+07    2.137251e-08    5.745700e-11    2.028317e-08   -2.384976e+00
    6.910042e+00    4.191117e+02    7.180820e-01    3.702574e+07    2.132903e-08    5.551635e-11    2.022667e-08   -2.379976e+00
    7.027975e+00    4.316710e+02    6.934920e-01    3.644444e+07    2.128436e-08    5.364165e-11    2.016862e-08   -2.374976e+00
    7.149379e+00    4.445634e+02    6.693440e-01    3.586040e+07    2.123845e-08    5.183050e-11    2.010899e-08   -2.369976e+00
    7.274385e+00    4.577969e+02    6.456385e-01    3.527353e+07    2.119126e-08    5.008070e-11    2.004772e-08   -2.364976e+00
    7.403105e+00    4.713797e+02    6.223780e-01    3.468378e+07    2.114277e-08    4.839000e-11    1.998475e-08   -2.359976e+00
    7.535663e+00    4.853197e+02    5.995640e-01    3.409107e+07    2.109291e-08    4.675629e-11    1.992003e-08   -2.354976e+00
    7.672194e+00    4.996241e+02    5.771975e-01    3.349534e+07    2.104165e-08    4.517752e-11    1.985350e-08   -2.349976e+00
    7.812812e+00    5.143010e+02    5.552810e-01    3.289651e+07    2.098894e-08    4.365178e-11    1.978513e-08   -2.344976e+00
    7.957659e+00    5.293570e+02    5.338150e-01    3.229451e+07    2.093474e-08    4.217716e-11    1.971485e-08   -2.339976e+00
    8.106853e+00    5.447985e+02    5.128020e-01    3.168929e+07    2.087900e-08    4.075186e-11    1.964260e-08   -2.334976e+00
    8.260519e+00    5.606314e+02    4.922436e-01    3.108077e+07    2.082168e-08    3.937416e-11    1.956833e-08   -2.329976e+00
    8.418789e+00    5.768609e+02    4.721408e-01    3.046891e+07    2.076273e-08    3.804238e-11    1.949197e-08   -2.324976e+00
    8.581784e+00    5.934907e+02    4.524955e-01    2.985367e+07    2.070209e-08    3.675493e-11    1.941349e-08   -2.319976e+00
    8.749622e+00    6.105242e+02    4.333091e-01    2.923500e+07    2.063974e-08    3.551025e-11    1.933279e-08   -2.314976e+00
    8.922419e+00    6.279627e+02    4.145831e-01    2.861289e+07    2.057561e-08    3.430687e-11    1.924985e-08   -2.309976e+00
    9.100280e+00    6.458074e+02    3.963188e-01    2.798731e+07    2.050966e-08    3.314335e-11    1.916459e-08   -2.304976e+00
    9.283308e+00    6.640562e+02    3.785174e-01    2.735828e+07    2.044184e-08    3.201833e-11    1.907695e-08   -2.299976e+00
    9.471591e+00    6.827059e+02    3.611802e-01    2.672583e+07    2.037210e-08    3.093050e-11    1.898688e-08   -2.294976e+00
    9.665204e+00    7.017507e+02    3.443082e-01    2.608999e+07    2.030040e-08    2.987856e-11    1.889430e-08   -2.289976e+00
    9.864214e+00    7.211834e+02    3.279024e-01    2.545085e+07    2.022669e-08    2.886131e-11    1.879917e-08   -2.284976e+00
    1.006866e+01    7.409929e+02    3.119635e-01    2.480852e+07    2.015092e-08    2.787756e-11    1.870142e-08   -2.279976e+00
    1.027858e+01    7.611653e+02    2.964920e-01    2.416311e+07    2.007305e-08    2.692619e-11    1.860100e-08   -2.274976e+00
    1.049397e+01    7.816834e+02    2.814883e-01    2.351483e+07    1.999303e-08    2.600609e-11    1.849784e-08   -2.269976e+00
    1.071480e+01    8.025264e+02    2.669527e-01    2.286387e+07    1.991081e-08    2.511623e-11    1.839188e-08   -2.264976e+00
    1.094103e+01    8.236690e+02    2.528848e-01    2.221050e+07    1.982635e-08    2.425558e-11    1.828308e-08   -2.259976e+00
    1.117256e+01    8.450820e+02    2.392843e-01    2.155502e+07    1.973961e-08    2.342319e-11    1.817138e-08   -2.254976e+00
    1.140928e+01    8.667310e+02    2.261503e-01    2.089781e+07    1.965055e-08    2.261809e-11    1.805671e-08   -2.249976e+00
    1.165101e+01    8.885768e+02    2.134817e-01    2.023927e+07    1.955913e-08    2.183940e-11    1.793904e-08   -2.244976e+00
    1.189755e+01    9.105749e+02    2.012769e-01    1.957989e+07    1.946530e-08    2.108624e-11    1.781830e-08   -2.239976e+00
    1.214862e+01    9.326748e+02    1.895340e-01    1.892021e+07    1.936904e-08    2.035777e-11    1.769446e-08   -2.234976e+00
    1.240393e+01    9.548210e+02    1.782503e-01    1.826084e+07    1.927031e-08    1.965319e-11    1.756747e-08   -2.229976e+00
    1.266309e+01    9.769514e+02    1.674228e-01    1.760245e+07    1.916908e-08    1.897170e-11    1.743728e-08   -2.224976e+00
    1.292567e+01    9.989980e+02    1.570480e-01    1.694579e+07    1.906532e-08    1.831256e-11    1.730386e-08   -2.219976e+00
    1.319118e+01    1.020888e+03    1.471218e-01    1.629166e+07    1.895901e-08    1.767504e-11    1.716717e-08   -2.214976e+00
    1.345905e+01    1.042542e+03    1.376393e-01    1.564094e+07    1.885012e-08    1.705846e-11    1.702718e-08   -2.209976e+00
    1.372865e+01    1.063876e+03    1.285950e-01    1.499457e+07    1.873863e-08    1.646211e-11    1.688386e-08   -2.204976e+00
    1.399928e+01    1.084801e+03    1.199827e-01    1.435355e+07    1.862454e-08    1.588537e-11    1.673719e-08   -2.199976e+00
    1.427019e+01    1.105223e+03    1.117958e-01    1.371892e+07    1.850782e-08    1.532759e-11    1.658716e-08   -2.194976e+00
    1.454053e+01    1.125048e+03    1.040266e-01    1.309178e+07    1.838849e-08    1.478816e-11    1.643374e-08   -2.189976e+00
    1.480941e+01    1.144176e+03    9.666690e-02    1.247326e+07    1.826652e-08    1.426652e-11    1.627694e-08   -2.184976e+00
    1.507590e+01    1.162509e+03    8.970770e-02    1.186450e+07    1.814193e-08    1.376208e-11    1.611676e-08   -2.179976e+00
    1.533898e+01    1.179948e+03    8.313935e-02    1.126667e+07    1.801472e-08    1.327430e-11    1.595319e-08   -2.174976e+00
    1.559766e+01    1.196397e+03    7.695140e-02    1.068094e+07    1.788492e-08    1.280266e-11    1.578626e-08   -2.169976e+00
    1.585085e+01    1.211763e+03    7.113295e-02    1.010842e+07    1.775253e-08    1.234664e-11    1.561597e-08   -2.164976e+00
    1.609749e+01    1.225960e+03    6.567225e-02    9.550233e+06    1.761758e-08    1.190575e-11    1.544236e-08   -2.159976e+00
    1.633650e+01    1.238907e+03    6.055720e-02    9.007433e+06    1.748010e-08    1.147951e-11    1.526546e-08   -2.154976e+00
    1.656687e+01    1.250534e+03    5.577500e-02    8.481008e+06    1.734014e-08    1.106748e-11    1.508531e-08   -2.149976e+00
    1.678754e+01    1.260783e+03    5.131255e-02    7.971860e+06    1.719773e-08    1.066918e-11    1.490196e-08   -2.144976e+00
    1.699756e+01    1.269603e+03    4.715634e-02    7.480794e+06    1.705293e-08    1.028420e-11    1.471546e-08   -2.139976e+00
    1.719605e+01    1.276963e+03    4.329250e-02    7.008515e+06    1.690579e-08    9.912125e-12    1.452589e-08   -2.134976e+00
    1.738222e+01    1.282845e+03    3.970704e-02    6.555606e+06    1.675637e-08    9.552540e-12    1.433332e-08   -2.129976e+00
    1.755536e+01    1.287242e+03    3.638582e-02    6.122507e+06    1.660476e-08    9.205060e-12    1.413782e-08   -2.124976e+00
    1.771492e+01    1.290170e+03    3.331466e-02    5.709550e+06    1.645102e-08    8.869310e-12    1.393950e-08   -2.119976e+00
    1.786047e+01    1.291656e+03    3.047946e-02    5.316913e+06    1.629524e-08    8.544920e-12    1.373844e-08   -2.114976e+00
    1.799170e+01    1.291743e+03    2.786627e-02    4.944637e+06    1.613751e-08    8.231530e-12    1.353477e-08   -2.109976e+00
    1.810849e+01    1.290489e+03    2.546132e-02    4.592641e+06    1.597794e-08    7.928810e-12    1.332859e-08   -2.104976e+00
