# sky130 pfet_01v8 gm/ID Processed Lookup Table
# Corner: tt
# Temperature: 0C
# W = 2.0 um
# L = 1.26 um (1260 nm)
# Columns: gm/id [1/V]  gm/gds [V/V]  id/W [A/m]  ft [Hz]  Cgg/W [F/m]  Cgd/W [F/m]  Cgs/W [F/m]  Vov [V]
#         gm/id          gm/gds            id/W              ft           Cgg/W           Cgd/W           Cgs/W             Vov
    2.150556e+00    5.122620e+00    1.552306e+01    6.855397e+08    7.750250e-09    4.471477e-10    7.225830e-09   -2.840647e+00
    2.173877e+00    5.308525e+00    1.535615e+01    6.864757e+08    7.739485e-09    4.331166e-10    7.225640e-09   -2.835647e+00
    2.197471e+00    5.504604e+00    1.518924e+01    6.873237e+08    7.728905e-09    4.194358e-10    7.225310e-09   -2.830647e+00
    2.221333e+00    5.711469e+00    1.502237e+01    6.880802e+08    7.718505e-09    4.061036e-10    7.224830e-09   -2.825647e+00
    2.245460e+00    5.929755e+00    1.485555e+01    6.887417e+08    7.708285e-09    3.931175e-10    7.224215e-09   -2.820647e+00
    2.269845e+00    6.160125e+00    1.468880e+01    6.893043e+08    7.698245e-09    3.804750e-10    7.223460e-09   -2.815647e+00
    2.294484e+00    6.403271e+00    1.452215e+01    6.897649e+08    7.688380e-09    3.681726e-10    7.222565e-09   -2.810647e+00
    2.319370e+00    6.659905e+00    1.435560e+01    6.901193e+08    7.678695e-09    3.562070e-10    7.221540e-09   -2.805647e+00
    2.344499e+00    6.930766e+00    1.418919e+01    6.903641e+08    7.669190e-09    3.445742e-10    7.220375e-09   -2.800647e+00
    2.369861e+00    7.216612e+00    1.402295e+01    6.904972e+08    7.659850e-09    3.332697e-10    7.219080e-09   -2.795647e+00
    2.395453e+00    7.518217e+00    1.385688e+01    6.905144e+08    7.650685e-09    3.222891e-10    7.217655e-09   -2.790647e+00
    2.421267e+00    7.836372e+00    1.369102e+01    6.904131e+08    7.641690e-09    3.116273e-10    7.216105e-09   -2.785647e+00
    2.447297e+00    8.171875e+00    1.352539e+01    6.901913e+08    7.632855e-09    3.012794e-10    7.214425e-09   -2.780647e+00
    2.473537e+00    8.525534e+00    1.336002e+01    6.898462e+08    7.624185e-09    2.912398e-10    7.212620e-09   -2.775647e+00
    2.499984e+00    8.898157e+00    1.319493e+01    6.893757e+08    7.615675e-09    2.815028e-10    7.210695e-09   -2.770647e+00
    2.526629e+00    9.290550e+00    1.303016e+01    6.887783e+08    7.607320e-09    2.720628e-10    7.208655e-09   -2.765647e+00
    2.553470e+00    9.703512e+00    1.286572e+01    6.880528e+08    7.599115e-09    2.629137e-10    7.206490e-09   -2.760647e+00
    2.580502e+00    1.013783e+01    1.270165e+01    6.871979e+08    7.591060e-09    2.540495e-10    7.204210e-09   -2.755647e+00
    2.607724e+00    1.059426e+01    1.253796e+01    6.862134e+08    7.583145e-09    2.454638e-10    7.201820e-09   -2.750647e+00
    2.635132e+00    1.107356e+01    1.237470e+01    6.850984e+08    7.575375e-09    2.371506e-10    7.199310e-09   -2.745647e+00
    2.662726e+00    1.157644e+01    1.221188e+01    6.838537e+08    7.567735e-09    2.291032e-10    7.196695e-09   -2.740647e+00
    2.690507e+00    1.210359e+01    1.204954e+01    6.824789e+08    7.560235e-09    2.213153e-10    7.193970e-09   -2.735647e+00
    2.718473e+00    1.265564e+01    1.188769e+01    6.809758e+08    7.552855e-09    2.137805e-10    7.191135e-09   -2.730647e+00
    2.746630e+00    1.323320e+01    1.172638e+01    6.793446e+08    7.545605e-09    2.064922e-10    7.188195e-09   -2.725647e+00
    2.774978e+00    1.383683e+01    1.156563e+01    6.775877e+08    7.538470e-09    1.994441e-10    7.185155e-09   -2.720647e+00
    2.803524e+00    1.446705e+01    1.140545e+01    6.757063e+08    7.531450e-09    1.926296e-10    7.182005e-09   -2.715647e+00
    2.832271e+00    1.512431e+01    1.124588e+01    6.737025e+08    7.524545e-09    1.860423e-10    7.178760e-09   -2.710647e+00
    2.861230e+00    1.580904e+01    1.108694e+01    6.715792e+08    7.517740e-09    1.796759e-10    7.175410e-09   -2.705647e+00
    2.890403e+00    1.652159e+01    1.092867e+01    6.693382e+08    7.511040e-09    1.735240e-10    7.171960e-09   -2.700647e+00
    2.919804e+00    1.726228e+01    1.077107e+01    6.669828e+08    7.504435e-09    1.675803e-10    7.168415e-09   -2.695647e+00
    2.949441e+00    1.803139e+01    1.061418e+01    6.645158e+08    7.497920e-09    1.618389e-10    7.164770e-09   -2.690647e+00
    2.979324e+00    1.882912e+01    1.045801e+01    6.619401e+08    7.491495e-09    1.562934e-10    7.161030e-09   -2.685647e+00
    3.009466e+00    1.965567e+01    1.030261e+01    6.592591e+08    7.485150e-09    1.509379e-10    7.157190e-09   -2.680647e+00
    3.039878e+00    2.051118e+01    1.014797e+01    6.564756e+08    7.478885e-09    1.457665e-10    7.153255e-09   -2.675647e+00
    3.070573e+00    2.139575e+01    9.994130e+00    6.535929e+08    7.472695e-09    1.407735e-10    7.149230e-09   -2.670647e+00
    3.101568e+00    2.230944e+01    9.841100e+00    6.506145e+08    7.466575e-09    1.359532e-10    7.145105e-09   -2.665647e+00
    3.132876e+00    2.325234e+01    9.688905e+00    6.475440e+08    7.460515e-09    1.313001e-10    7.140890e-09   -2.660647e+00
    3.164511e+00    2.422443e+01    9.537565e+00    6.443837e+08    7.454520e-09    1.268086e-10    7.136575e-09   -2.655647e+00
    3.196490e+00    2.522576e+01    9.387095e+00    6.411375e+08    7.448580e-09    1.224735e-10    7.132170e-09   -2.650647e+00
    3.228829e+00    2.625631e+01    9.237515e+00    6.378090e+08    7.442685e-09    1.182897e-10    7.127670e-09   -2.645647e+00
    3.261546e+00    2.731608e+01    9.088835e+00    6.344000e+08    7.436845e-09    1.142520e-10    7.123075e-09   -2.640647e+00
    3.294657e+00    2.840507e+01    8.941080e+00    6.309148e+08    7.431040e-09    1.103555e-10    7.118385e-09   -2.635647e+00
    3.328178e+00    2.952327e+01    8.794265e+00    6.273555e+08    7.425275e-09    1.065955e-10    7.113595e-09   -2.630647e+00
    3.362133e+00    3.067068e+01    8.648395e+00    6.237251e+08    7.419545e-09    1.029673e-10    7.108715e-09   -2.625647e+00
    3.396533e+00    3.184734e+01    8.503500e+00    6.200267e+08    7.413840e-09    9.946630e-11    7.103730e-09   -2.620647e+00
    3.431403e+00    3.305327e+01    8.359580e+00    6.162628e+08    7.408160e-09    9.608815e-11    7.098655e-09   -2.615647e+00
    3.466761e+00    3.428853e+01    8.216650e+00    6.124356e+08    7.402500e-09    9.282860e-11    7.093475e-09   -2.610647e+00
    3.502626e+00    3.555321e+01    8.074730e+00    6.085480e+08    7.396855e-09    8.968350e-11    7.088195e-09   -2.605647e+00
    3.539019e+00    3.684740e+01    7.933825e+00    6.046020e+08    7.391220e-09    8.664875e-11    7.082815e-09   -2.600647e+00
    3.575959e+00    3.817127e+01    7.793955e+00    6.006001e+08    7.385590e-09    8.372055e-11    7.077335e-09   -2.595647e+00
    3.613471e+00    3.952495e+01    7.655120e+00    5.965443e+08    7.379960e-09    8.089510e-11    7.071745e-09   -2.590647e+00
    3.651573e+00    4.090865e+01    7.517340e+00    5.924364e+08    7.374330e-09    7.816870e-11    7.066050e-09   -2.585647e+00
    3.690288e+00    4.232264e+01    7.380625e+00    5.882788e+08    7.368690e-09    7.553790e-11    7.060245e-09   -2.580647e+00
    3.729640e+00    4.376719e+01    7.244980e+00    5.840729e+08    7.363040e-09    7.299920e-11    7.054335e-09   -2.575647e+00
    3.769653e+00    4.524263e+01    7.110415e+00    5.798208e+08    7.357370e-09    7.054935e-11    7.048305e-09   -2.570647e+00
    3.810348e+00    4.674932e+01    6.976945e+00    5.755240e+08    7.351680e-09    6.818515e-11    7.042165e-09   -2.565647e+00
    3.851750e+00    4.828767e+01    6.844575e+00    5.711838e+08    7.345965e-09    6.590350e-11    7.035905e-09   -2.560647e+00
    3.893890e+00    4.985813e+01    6.713310e+00    5.668025e+08    7.340215e-09    6.370145e-11    7.029520e-09   -2.555647e+00
    3.936788e+00    5.146119e+01    6.583165e+00    5.623805e+08    7.334435e-09    6.157605e-11    7.023015e-09   -2.550647e+00
    3.980469e+00    5.309738e+01    6.454150e+00    5.579199e+08    7.328610e-09    5.952465e-11    7.016385e-09   -2.545647e+00
    4.024967e+00    5.476734e+01    6.326265e+00    5.534217e+08    7.322740e-09    5.754445e-11    7.009625e-09   -2.540647e+00
    4.070307e+00    5.647167e+01    6.199520e+00    5.488871e+08    7.316820e-09    5.563300e-11    7.002730e-09   -2.535647e+00
    4.116519e+00    5.821111e+01    6.073925e+00    5.443176e+08    7.310840e-09    5.378765e-11    6.995695e-09   -2.530647e+00
    4.163629e+00    5.998635e+01    5.949490e+00    5.397135e+08    7.304805e-09    5.200615e-11    6.988520e-09   -2.525647e+00
    4.211674e+00    6.179821e+01    5.826215e+00    5.350765e+08    7.298700e-09    5.028610e-11    6.981205e-09   -2.520647e+00
    4.260685e+00    6.364754e+01    5.704110e+00    5.304073e+08    7.292525e-09    4.862526e-11    6.973735e-09   -2.515647e+00
    4.310692e+00    6.553525e+01    5.583185e+00    5.257068e+08    7.286275e-09    4.702153e-11    6.966115e-09   -2.510647e+00
    4.361735e+00    6.746227e+01    5.463440e+00    5.209760e+08    7.279940e-09    4.547283e-11    6.958335e-09   -2.505647e+00
    4.413845e+00    6.942962e+01    5.344885e+00    5.162154e+08    7.273520e-09    4.397715e-11    6.950395e-09   -2.500647e+00
    4.467063e+00    7.143839e+01    5.227525e+00    5.114261e+08    7.267005e-09    4.253258e-11    6.942280e-09   -2.495647e+00
    4.521424e+00    7.348970e+01    5.111370e+00    5.066088e+08    7.260390e-09    4.113727e-11    6.934000e-09   -2.490647e+00
    4.576969e+00    7.558473e+01    4.996421e+00    5.017638e+08    7.253670e-09    3.978943e-11    6.925535e-09   -2.485647e+00
    4.633740e+00    7.772471e+01    4.882687e+00    4.968920e+08    7.246840e-09    3.848735e-11    6.916885e-09   -2.480647e+00
    4.691779e+00    7.991100e+01    4.770172e+00    4.919940e+08    7.239890e-09    3.722938e-11    6.908045e-09   -2.475647e+00
    4.751133e+00    8.214496e+01    4.658882e+00    4.870700e+08    7.232820e-09    3.601394e-11    6.899005e-09   -2.470647e+00
    4.811845e+00    8.442802e+01    4.548824e+00    4.821210e+08    7.225615e-09    3.483949e-11    6.889765e-09   -2.465647e+00
    4.873965e+00    8.676172e+01    4.440002e+00    4.771474e+08    7.218270e-09    3.370455e-11    6.880310e-09   -2.460647e+00
    4.937543e+00    8.914760e+01    4.332422e+00    4.721492e+08    7.210785e-09    3.260772e-11    6.870640e-09   -2.455647e+00
    5.002632e+00    9.158739e+01    4.226089e+00    4.671268e+08    7.203150e-09    3.154762e-11    6.860745e-09   -2.450647e+00
    5.069284e+00    9.408274e+01    4.121008e+00    4.620812e+08    7.195350e-09    3.052295e-11    6.850615e-09   -2.445647e+00
    5.137557e+00    9.663552e+01    4.017185e+00    4.570117e+08    7.187390e-09    2.953244e-11    6.840240e-09   -2.440647e+00
    5.207508e+00    9.924759e+01    3.914625e+00    4.519193e+08    7.179255e-09    2.857487e-11    6.829620e-09   -2.435647e+00
    5.279201e+00    1.019209e+02    3.813332e+00    4.468041e+08    7.170935e-09    2.764908e-11    6.818740e-09   -2.430647e+00
    5.352697e+00    1.046576e+02    3.713313e+00    4.416662e+08    7.162425e-09    2.675394e-11    6.807595e-09   -2.425647e+00
    5.428061e+00    1.074597e+02    3.614572e+00    4.365058e+08    7.153715e-09    2.588836e-11    6.796170e-09   -2.420647e+00
    5.505363e+00    1.103294e+02    3.517114e+00    4.313224e+08    7.144805e-09    2.505130e-11    6.784460e-09   -2.415647e+00
    5.584677e+00    1.132692e+02    3.420943e+00    4.261174e+08    7.135670e-09    2.424176e-11    6.772450e-09   -2.410647e+00
    5.666073e+00    1.162814e+02    3.326067e+00    4.208896e+08    7.126315e-09    2.345877e-11    6.760135e-09   -2.405647e+00
    5.749629e+00    1.193685e+02    3.232487e+00    4.156393e+08    7.116725e-09    2.270141e-11    6.747505e-09   -2.400647e+00
    5.835429e+00    1.225332e+02    3.140212e+00    4.103666e+08    7.106895e-09    2.196878e-11    6.734545e-09   -2.395647e+00
    5.923553e+00    1.257780e+02    3.049245e+00    4.050716e+08    7.096805e-09    2.126000e-11    6.721240e-09   -2.390647e+00
    6.014088e+00    1.291059e+02    2.959590e+00    3.997536e+08    7.086455e-09    2.057426e-11    6.707590e-09   -2.385647e+00
    6.107127e+00    1.325198e+02    2.871253e+00    3.944133e+08    7.075825e-09    1.991077e-11    6.693570e-09   -2.380647e+00
    6.202760e+00    1.360226e+02    2.784241e+00    3.890495e+08    7.064915e-09    1.926874e-11    6.679175e-09   -2.375647e+00
    6.301086e+00    1.396174e+02    2.698555e+00    3.836624e+08    7.053710e-09    1.864745e-11    6.664385e-09   -2.370647e+00
    6.402203e+00    1.433074e+02    2.614204e+00    3.782518e+08    7.042195e-09    1.804617e-11    6.649195e-09   -2.365647e+00
    6.506221e+00    1.470961e+02    2.531191e+00    3.728174e+08    7.030360e-09    1.746423e-11    6.633585e-09   -2.360647e+00
    6.613242e+00    1.509867e+02    2.449521e+00    3.673587e+08    7.018195e-09    1.690095e-11    6.617545e-09   -2.355647e+00
    6.723381e+00    1.549829e+02    2.369200e+00    3.618752e+08    7.005685e-09    1.635572e-11    6.601060e-09   -2.350647e+00
    6.836749e+00    1.590880e+02    2.290233e+00    3.563666e+08    6.992820e-09    1.582792e-11    6.584110e-09   -2.345647e+00
    6.953470e+00    1.633061e+02    2.212624e+00    3.508324e+08    6.979585e-09    1.531696e-11    6.566680e-09   -2.340647e+00
    7.073664e+00    1.676406e+02    2.136380e+00    3.452718e+08    6.965975e-09    1.482225e-11    6.548755e-09   -2.335647e+00
    7.197458e+00    1.720956e+02    2.061506e+00    3.396849e+08    6.951965e-09    1.434329e-11    6.530325e-09   -2.330647e+00
    7.324982e+00    1.766749e+02    1.988006e+00    3.340708e+08    6.937545e-09    1.387951e-11    6.511365e-09   -2.325647e+00
    7.456362e+00    1.813825e+02    1.915886e+00    3.284288e+08    6.922700e-09    1.343042e-11    6.491860e-09   -2.320647e+00
    7.591740e+00    1.862223e+02    1.845152e+00    3.227583e+08    6.907425e-09    1.299553e-11    6.471790e-09   -2.315647e+00
    7.731250e+00    1.911984e+02    1.775808e+00    3.170591e+08    6.891690e-09    1.257438e-11    6.451140e-09   -2.310647e+00
    7.875030e+00    1.963147e+02    1.707862e+00    3.113300e+08    6.875495e-09    1.216650e-11    6.429895e-09   -2.305647e+00
    8.023223e+00    2.015752e+02    1.641316e+00    3.055710e+08    6.858815e-09    1.177145e-11    6.408030e-09   -2.300647e+00
    8.175969e+00    2.069837e+02    1.576177e+00    2.997810e+08    6.841640e-09    1.138884e-11    6.385525e-09   -2.295647e+00
    8.333413e+00    2.125444e+02    1.512450e+00    2.939600e+08    6.823950e-09    1.101823e-11    6.362365e-09   -2.290647e+00
    8.495694e+00    2.182605e+02    1.450140e+00    2.881072e+08    6.805730e-09    1.065924e-11    6.338530e-09   -2.285647e+00
    8.662953e+00    2.241355e+02    1.389252e+00    2.822224e+08    6.786965e-09    1.031150e-11    6.314000e-09   -2.280647e+00
    8.835321e+00    2.301730e+02    1.329792e+00    2.763048e+08    6.767645e-09    9.974635e-12    6.288750e-09   -2.275647e+00
    9.012937e+00    2.363758e+02    1.271763e+00    2.703548e+08    6.747740e-09    9.648300e-12    6.262760e-09   -2.270647e+00
    9.195927e+00    2.427462e+02    1.215170e+00    2.643719e+08    6.727245e-09    9.332160e-12    6.236010e-09   -2.265647e+00
    9.384406e+00    2.492867e+02    1.160018e+00    2.583562e+08    6.706140e-09    9.025880e-12    6.208485e-09   -2.260647e+00
    9.578482e+00    2.559987e+02    1.106310e+00    2.523079e+08    6.684405e-09    8.729155e-12    6.180155e-09   -2.255647e+00
    9.778251e+00    2.628831e+02    1.054051e+00    2.462276e+08    6.662025e-09    8.441675e-12    6.151005e-09   -2.250647e+00
    9.983803e+00    2.699405e+02    1.003243e+00    2.401156e+08    6.638990e-09    8.163155e-12    6.121010e-09   -2.245647e+00
    1.019520e+01    2.771701e+02    9.538900e-01    2.339733e+08    6.615275e-09    7.893300e-12    6.090150e-09   -2.240647e+00
    1.041249e+01    2.845704e+02    9.059930e-01    2.278017e+08    6.590865e-09    7.631850e-12    6.058405e-09   -2.235647e+00
    1.063568e+01    2.921388e+02    8.595540e-01    2.216024e+08    6.565745e-09    7.378535e-12    6.025750e-09   -2.230647e+00
    1.086478e+01    2.998715e+02    8.145735e-01    2.153774e+08    6.539900e-09    7.133100e-12    5.992165e-09   -2.225647e+00
    1.109974e+01    3.077635e+02    7.710520e-01    2.091294e+08    6.513310e-09    6.895305e-12    5.957635e-09   -2.220647e+00
    1.134049e+01    3.158077e+02    7.289885e-01    2.028608e+08    6.485965e-09    6.664910e-12    5.922135e-09   -2.215647e+00
    1.158693e+01    3.239960e+02    6.883805e-01    1.965755e+08    6.457845e-09    6.441690e-12    5.885645e-09   -2.210647e+00
    1.183888e+01    3.323181e+02    6.492250e-01    1.902772e+08    6.428940e-09    6.225420e-12    5.848145e-09   -2.205647e+00
    1.209614e+01    3.407616e+02    6.115180e-01    1.839704e+08    6.399235e-09    6.015890e-12    5.809620e-09   -2.200647e+00
    1.235844e+01    3.493122e+02    5.752530e-01    1.776606e+08    6.368710e-09    5.812890e-12    5.770050e-09   -2.195647e+00
    1.262548e+01    3.579535e+02    5.404225e-01    1.713536e+08    6.337360e-09    5.616225e-12    5.729415e-09   -2.190647e+00
    1.289685e+01    3.666662e+02    5.070185e-01    1.650559e+08    6.305165e-09    5.425700e-12    5.687705e-09   -2.185647e+00
    1.317209e+01    3.754287e+02    4.750295e-01    1.587744e+08    6.272125e-09    5.241130e-12    5.644900e-09   -2.180647e+00
    1.345068e+01    3.842169e+02    4.444427e-01    1.525174e+08    6.238220e-09    5.062340e-12    5.600990e-09   -2.175647e+00
    1.373202e+01    3.930045e+02    4.152437e-01    1.462934e+08    6.203445e-09    4.889147e-12    5.555960e-09   -2.170647e+00
    1.401545e+01    4.017622e+02    3.874153e-01    1.401116e+08    6.167795e-09    4.721390e-12    5.509795e-09   -2.165647e+00
    1.430017e+01    4.104579e+02    3.609390e-01    1.339818e+08    6.131255e-09    4.558905e-12    5.462490e-09   -2.160647e+00
    1.458538e+01    4.190579e+02    3.357930e-01    1.279144e+08    6.093825e-09    4.401533e-12    5.414035e-09   -2.155647e+00
    1.487016e+01    4.275264e+02    3.119540e-01    1.219202e+08    6.055505e-09    4.249124e-12    5.364425e-09   -2.150647e+00
    1.515352e+01    4.358252e+02    2.893959e-01    1.160106e+08    6.016285e-09    4.101529e-12    5.313655e-09   -2.145647e+00
    1.543443e+01    4.439151e+02    2.680905e-01    1.101969e+08    5.976165e-09    3.958607e-12    5.261720e-09   -2.140647e+00
    1.571178e+01    4.517564e+02    2.480071e-01    1.044908e+08    5.935150e-09    3.820219e-12    5.208625e-09   -2.135647e+00
    1.598443e+01    4.593082e+02    2.291129e-01    9.890365e+07    5.893245e-09    3.686231e-12    5.154370e-09   -2.130647e+00
    1.625121e+01    4.665305e+02    2.113726e-01    9.344708e+07    5.850445e-09    3.556514e-12    5.098955e-09   -2.125647e+00
    1.651091e+01    4.733839e+02    1.947496e-01    8.813196e+07    5.806765e-09    3.430943e-12    5.042390e-09   -2.120647e+00
    1.676236e+01    4.798308e+02    1.792045e-01    8.296877e+07    5.762215e-09    3.309397e-12    4.984685e-09   -2.115647e+00
    1.700437e+01    4.858357e+02    1.646969e-01    7.796738e+07    5.716800e-09    3.191755e-12    4.925852e-09   -2.110647e+00
    1.723583e+01    4.913676e+02    1.511846e-01    7.313669e+07    5.670540e-09    3.077906e-12    4.865906e-09   -2.105647e+00
    1.745566e+01    4.963979e+02    1.386243e-01    6.848467e+07    5.623445e-09    2.967738e-12    4.804864e-09   -2.100647e+00
    1.766289e+01    5.009035e+02    1.269719e-01    6.401814e+07    5.575535e-09    2.861143e-12    4.742748e-09   -2.095647e+00
    1.785665e+01    5.048663e+02    1.161824e-01    5.974262e+07    5.526830e-09    2.758017e-12    4.679582e-09   -2.090647e+00
    1.803619e+01    5.082745e+02    1.062105e-01    5.566235e+07    5.477355e-09    2.658259e-12    4.615392e-09   -2.085647e+00
