# sky130 pfet_01v8 gm/ID Processed Lookup Table
# Corner: tt
# Temperature: 0C
# W = 2.0 um
# L = 0.54 um (540 nm)
# Columns: gm/id [1/V]  gm/gds [V/V]  id/W [A/m]  ft [Hz]  Cgg/W [F/m]  Cgd/W [F/m]  Cgs/W [F/m]  Vov [V]
#         gm/id          gm/gds            id/W              ft           Cgg/W           Cgd/W           Cgs/W             Vov
    1.956541e+00    3.673553e+00    3.629962e+01    3.345858e+09    3.378343e-09    1.413002e-10    3.201860e-09   -2.809341e+00
    1.977492e+00    3.780164e+00    3.594436e+01    3.352068e+09    3.374838e-09    1.367911e-10    3.201739e-09   -2.804341e+00
    1.998728e+00    3.891666e+00    3.558883e+01    3.357983e+09    3.371391e-09    1.324011e-10    3.201564e-09   -2.799341e+00
    2.020249e+00    4.008322e+00    3.523305e+01    3.363590e+09    3.368002e-09    1.281285e-10    3.201335e-09   -2.794341e+00
    2.042057e+00    4.130401e+00    3.487705e+01    3.368879e+09    3.364668e-09    1.239717e-10    3.201054e-09   -2.789341e+00
    2.064148e+00    4.258185e+00    3.452085e+01    3.373833e+09    3.361390e-09    1.199288e-10    3.200721e-09   -2.784341e+00
    2.086523e+00    4.391961e+00    3.416450e+01    3.378439e+09    3.358166e-09    1.159980e-10    3.200337e-09   -2.779341e+00
    2.109178e+00    4.532030e+00    3.380801e+01    3.382680e+09    3.354995e-09    1.121773e-10    3.199903e-09   -2.774341e+00
    2.132112e+00    4.678702e+00    3.345144e+01    3.386544e+09    3.351878e-09    1.084648e-10    3.199419e-09   -2.769341e+00
    2.155322e+00    4.832292e+00    3.309480e+01    3.390014e+09    3.348811e-09    1.048584e-10    3.198887e-09   -2.764341e+00
    2.178805e+00    4.993124e+00    3.273815e+01    3.393076e+09    3.345793e-09    1.013560e-10    3.198307e-09   -2.759341e+00
    2.202558e+00    5.161524e+00    3.238152e+01    3.395713e+09    3.342825e-09    9.795555e-11    3.197680e-09   -2.754341e+00
    2.226576e+00    5.337825e+00    3.202494e+01    3.397910e+09    3.339904e-09    9.465490e-11    3.197006e-09   -2.749341e+00
    2.250854e+00    5.522355e+00    3.166847e+01    3.399652e+09    3.337029e-09    9.145190e-11    3.196287e-09   -2.744341e+00
    2.275390e+00    5.715455e+00    3.131214e+01    3.400926e+09    3.334201e-09    8.834435e-11    3.195523e-09   -2.739341e+00
    2.300179e+00    5.917443e+00    3.095601e+01    3.401715e+09    3.331414e-09    8.533015e-11    3.194715e-09   -2.734341e+00
    2.325213e+00    6.128646e+00    3.060012e+01    3.402007e+09    3.328671e-09    8.240700e-11    3.193864e-09   -2.729341e+00
    2.350491e+00    6.349373e+00    3.024451e+01    3.401787e+09    3.325969e-09    7.957275e-11    3.192970e-09   -2.724341e+00
    2.376007e+00    6.579933e+00    2.988924e+01    3.401045e+09    3.323306e-09    7.682525e-11    3.192033e-09   -2.719341e+00
    2.401756e+00    6.820602e+00    2.953436e+01    3.399767e+09    3.320682e-09    7.416225e-11    3.191056e-09   -2.714341e+00
    2.427732e+00    7.071650e+00    2.917992e+01    3.397943e+09    3.318094e-09    7.158165e-11    3.190036e-09   -2.709341e+00
    2.453932e+00    7.333328e+00    2.882597e+01    3.395564e+09    3.315542e-09    6.908130e-11    3.188978e-09   -2.704341e+00
    2.480353e+00    7.605851e+00    2.847256e+01    3.392623e+09    3.313024e-09    6.665900e-11    3.187878e-09   -2.699341e+00
    2.506991e+00    7.889417e+00    2.811977e+01    3.389112e+09    3.310539e-09    6.431275e-11    3.186741e-09   -2.694341e+00
    2.533843e+00    8.184192e+00    2.776762e+01    3.385025e+09    3.308085e-09    6.204035e-11    3.185564e-09   -2.689341e+00
    2.560908e+00    8.490303e+00    2.741620e+01    3.380360e+09    3.305661e-09    5.983980e-11    3.184348e-09   -2.684341e+00
    2.588186e+00    8.807863e+00    2.706554e+01    3.375117e+09    3.303266e-09    5.770905e-11    3.183095e-09   -2.679341e+00
    2.615673e+00    9.136911e+00    2.671570e+01    3.369289e+09    3.300897e-09    5.564615e-11    3.181804e-09   -2.674341e+00
    2.643374e+00    9.477506e+00    2.636676e+01    3.362884e+09    3.298554e-09    5.364910e-11    3.180476e-09   -2.669341e+00
    2.671285e+00    9.829610e+00    2.601875e+01    3.355897e+09    3.296236e-09    5.171600e-11    3.179111e-09   -2.664341e+00
    2.699415e+00    1.019322e+01    2.567175e+01    3.348340e+09    3.293940e-09    4.984496e-11    3.177709e-09   -2.659341e+00
    2.727763e+00    1.056822e+01    2.532578e+01    3.340213e+09    3.291665e-09    4.803409e-11    3.176271e-09   -2.654341e+00
    2.756336e+00    1.095453e+01    2.498093e+01    3.331524e+09    3.289410e-09    4.628159e-11    3.174797e-09   -2.649341e+00
    2.785137e+00    1.135199e+01    2.463725e+01    3.322279e+09    3.287175e-09    4.458570e-11    3.173287e-09   -2.644341e+00
    2.814178e+00    1.176045e+01    2.429477e+01    3.312492e+09    3.284956e-09    4.294467e-11    3.171740e-09   -2.639341e+00
    2.843460e+00    1.217972e+01    2.395357e+01    3.302168e+09    3.282753e-09    4.135681e-11    3.170158e-09   -2.634341e+00
    2.872996e+00    1.260959e+01    2.361368e+01    3.291321e+09    3.280565e-09    3.982047e-11    3.168540e-09   -2.629341e+00
    2.902794e+00    1.304983e+01    2.327516e+01    3.279960e+09    3.278389e-09    3.833402e-11    3.166886e-09   -2.624341e+00
    2.932865e+00    1.350020e+01    2.293807e+01    3.268099e+09    3.276226e-09    3.689590e-11    3.165196e-09   -2.619341e+00
    2.963221e+00    1.396045e+01    2.260244e+01    3.255751e+09    3.274072e-09    3.550457e-11    3.163471e-09   -2.614341e+00
    2.993872e+00    1.443034e+01    2.226832e+01    3.242927e+09    3.271927e-09    3.415855e-11    3.161709e-09   -2.609341e+00
    3.024832e+00    1.490960e+01    2.193576e+01    3.229642e+09    3.269789e-09    3.285637e-11    3.159911e-09   -2.604341e+00
    3.056115e+00    1.539800e+01    2.160482e+01    3.215909e+09    3.267658e-09    3.159663e-11    3.158076e-09   -2.599341e+00
    3.087736e+00    1.589528e+01    2.127551e+01    3.201743e+09    3.265531e-09    3.037796e-11    3.156205e-09   -2.594341e+00
    3.119707e+00    1.640121e+01    2.094789e+01    3.187154e+09    3.263408e-09    2.919902e-11    3.154296e-09   -2.589341e+00
    3.152045e+00    1.691556e+01    2.062201e+01    3.172157e+09    3.261286e-09    2.805852e-11    3.152350e-09   -2.584341e+00
    3.184766e+00    1.743815e+01    2.029790e+01    3.156766e+09    3.259165e-09    2.695519e-11    3.150367e-09   -2.579341e+00
    3.217887e+00    1.796875e+01    1.997558e+01    3.140992e+09    3.257043e-09    2.588783e-11    3.148345e-09   -2.574341e+00
    3.251423e+00    1.850722e+01    1.965511e+01    3.124850e+09    3.254918e-09    2.485525e-11    3.146284e-09   -2.569341e+00
    3.285394e+00    1.905338e+01    1.933652e+01    3.108351e+09    3.252790e-09    2.385631e-11    3.144184e-09   -2.564341e+00
    3.319817e+00    1.960713e+01    1.901985e+01    3.091507e+09    3.250655e-09    2.288989e-11    3.142044e-09   -2.559341e+00
    3.354709e+00    2.016833e+01    1.870511e+01    3.074329e+09    3.248515e-09    2.195492e-11    3.139863e-09   -2.554341e+00
    3.390088e+00    2.073690e+01    1.839236e+01    3.056828e+09    3.246366e-09    2.105036e-11    3.137642e-09   -2.549341e+00
    3.425976e+00    2.131278e+01    1.808160e+01    3.039015e+09    3.244207e-09    2.017520e-11    3.135378e-09   -2.544341e+00
    3.462394e+00    2.189593e+01    1.777289e+01    3.020902e+09    3.242038e-09    1.932847e-11    3.133072e-09   -2.539341e+00
    3.499358e+00    2.248632e+01    1.746625e+01    3.002496e+09    3.239856e-09    1.850920e-11    3.130723e-09   -2.534341e+00
    3.536891e+00    2.308395e+01    1.716169e+01    2.983808e+09    3.237659e-09    1.771651e-11    3.128328e-09   -2.529341e+00
    3.575014e+00    2.368884e+01    1.685927e+01    2.964847e+09    3.235447e-09    1.694950e-11    3.125888e-09   -2.524341e+00
    3.613749e+00    2.430104e+01    1.655898e+01    2.945621e+09    3.233217e-09    1.620733e-11    3.123401e-09   -2.519341e+00
    3.653119e+00    2.492061e+01    1.626087e+01    2.926140e+09    3.230968e-09    1.548915e-11    3.120867e-09   -2.514341e+00
    3.693144e+00    2.554761e+01    1.596496e+01    2.906409e+09    3.228699e-09    1.479418e-11    3.118283e-09   -2.509341e+00
    3.733849e+00    2.618214e+01    1.567127e+01    2.886436e+09    3.226407e-09    1.412164e-11    3.115651e-09   -2.504341e+00
    3.775258e+00    2.682433e+01    1.537983e+01    2.866229e+09    3.224090e-09    1.347080e-11    3.112966e-09   -2.499341e+00
    3.817397e+00    2.747433e+01    1.509065e+01    2.845796e+09    3.221749e-09    1.284092e-11    3.110229e-09   -2.494341e+00
    3.860292e+00    2.813226e+01    1.480377e+01    2.825141e+09    3.219380e-09    1.223131e-11    3.107438e-09   -2.489341e+00
    3.903964e+00    2.879827e+01    1.451919e+01    2.804270e+09    3.216982e-09    1.164131e-11    3.104591e-09   -2.484341e+00
    3.948449e+00    2.947258e+01    1.423695e+01    2.783191e+09    3.214552e-09    1.107027e-11    3.101686e-09   -2.479341e+00
    3.993765e+00    3.015533e+01    1.395706e+01    2.761905e+09    3.212090e-09    1.051756e-11    3.098724e-09   -2.474341e+00
    4.039946e+00    3.084676e+01    1.367954e+01    2.740421e+09    3.209592e-09    9.982570e-12    3.095700e-09   -2.469341e+00
    4.087023e+00    3.154709e+01    1.340442e+01    2.718744e+09    3.207058e-09    9.464730e-12    3.092614e-09   -2.464341e+00
    4.135027e+00    3.225655e+01    1.313171e+01    2.696879e+09    3.204484e-09    8.963475e-12    3.089464e-09   -2.459341e+00
    4.183984e+00    3.297536e+01    1.286143e+01    2.674827e+09    3.201869e-09    8.478255e-12    3.086248e-09   -2.454341e+00
    4.233932e+00    3.370377e+01    1.259359e+01    2.652593e+09    3.199212e-09    8.008555e-12    3.082962e-09   -2.449341e+00
    4.284903e+00    3.444207e+01    1.232822e+01    2.630183e+09    3.196508e-09    7.553865e-12    3.079608e-09   -2.444341e+00
    4.336934e+00    3.519053e+01    1.206535e+01    2.607598e+09    3.193758e-09    7.113700e-12    3.076179e-09   -2.439341e+00
    4.390060e+00    3.594943e+01    1.180497e+01    2.584844e+09    3.190957e-09    6.687590e-12    3.072676e-09   -2.434341e+00
    4.444317e+00    3.671905e+01    1.154711e+01    2.561922e+09    3.188103e-09    6.275080e-12    3.069096e-09   -2.429341e+00
    4.499751e+00    3.749973e+01    1.129178e+01    2.538838e+09    3.185195e-09    5.875740e-12    3.065436e-09   -2.424341e+00
    4.556396e+00    3.829174e+01    1.103901e+01    2.515592e+09    3.182230e-09    5.489145e-12    3.061692e-09   -2.419341e+00
    4.614296e+00    3.909542e+01    1.078880e+01    2.492186e+09    3.179205e-09    5.114890e-12    3.057864e-09   -2.414341e+00
    4.673496e+00    3.991112e+01    1.054119e+01    2.468625e+09    3.176117e-09    4.752580e-12    3.053947e-09   -2.409341e+00
    4.734040e+00    4.073917e+01    1.029617e+01    2.444909e+09    3.172964e-09    4.401843e-12    3.049938e-09   -2.404341e+00
    4.795978e+00    4.157991e+01    1.005377e+01    2.421041e+09    3.169742e-09    4.062312e-12    3.045835e-09   -2.399341e+00
    4.859355e+00    4.243370e+01    9.814000e+00    2.397023e+09    3.166450e-09    3.733638e-12    3.041635e-09   -2.394341e+00
    4.924228e+00    4.330093e+01    9.576875e+00    2.372857e+09    3.163083e-09    3.415484e-12    3.037333e-09   -2.389341e+00
    4.990646e+00    4.418196e+01    9.342415e+00    2.348544e+09    3.159639e-09    3.107524e-12    3.032927e-09   -2.384341e+00
    5.058665e+00    4.507718e+01    9.110635e+00    2.324085e+09    3.156114e-09    2.809446e-12    3.028413e-09   -2.379341e+00
    5.128344e+00    4.598695e+01    8.881545e+00    2.299481e+09    3.152506e-09    2.520948e-12    3.023787e-09   -2.374341e+00
    5.199743e+00    4.691174e+01    8.655160e+00    2.274734e+09    3.148811e-09    2.241738e-12    3.019046e-09   -2.369341e+00
    5.272920e+00    4.785187e+01    8.431505e+00    2.249844e+09    3.145025e-09    1.971538e-12    3.014184e-09   -2.364341e+00
    5.347947e+00    4.880783e+01    8.210580e+00    2.224811e+09    3.141144e-09    1.710077e-12    3.009199e-09   -2.359341e+00
    5.424886e+00    4.977997e+01    7.992410e+00    2.199637e+09    3.137166e-09    1.457096e-12    3.004085e-09   -2.354341e+00
    5.503810e+00    5.076881e+01    7.777005e+00    2.174321e+09    3.133085e-09    1.212346e-12    2.998839e-09   -2.349341e+00
    5.584787e+00    5.177469e+01    7.564385e+00    2.148863e+09    3.128900e-09    9.755865e-13    2.993455e-09   -2.344341e+00
    5.667901e+00    5.279810e+01    7.354555e+00    2.123263e+09    3.124604e-09    7.465860e-13    2.987930e-09   -2.339341e+00
    5.753223e+00    5.383945e+01    7.147540e+00    2.097521e+09    3.120194e-09    5.251225e-13    2.982257e-09   -2.334341e+00
    5.840842e+00    5.489921e+01    6.943345e+00    2.071636e+09    3.115666e-09    3.109814e-13    2.976432e-09   -2.329341e+00
    5.930835e+00    5.597782e+01    6.741995e+00    2.045607e+09    3.111015e-09    1.039572e-13    2.970450e-09   -2.324341e+00
    6.023298e+00    5.707573e+01    6.543495e+00    2.019434e+09    3.106236e-09    9.614795e-14    2.964304e-09   -2.319341e+00
    6.118318e+00    5.819337e+01    6.347865e+00    1.993115e+09    3.101326e-09    2.895243e-13    2.957990e-09   -2.314341e+00
    6.215988e+00    5.933118e+01    6.155120e+00    1.966649e+09    3.096279e-09    4.763547e-13    2.951502e-09   -2.309341e+00
    6.316415e+00    6.048964e+01    5.965270e+00    1.940034e+09    3.091089e-09    6.568150e-13    2.944833e-09   -2.304341e+00
    6.419698e+00    6.166920e+01    5.778330e+00    1.913269e+09    3.085752e-09    8.310735e-13    2.937978e-09   -2.299341e+00
    6.525939e+00    6.287020e+01    5.594320e+00    1.886351e+09    3.080264e-09    9.992925e-13    2.930929e-09   -2.294341e+00
    6.635244e+00    6.409319e+01    5.413255e+00    1.859279e+09    3.074617e-09    1.161628e-12    2.923682e-09   -2.289341e+00
    6.747734e+00    6.533845e+01    5.235145e+00    1.832049e+09    3.068808e-09    1.318229e-12    2.916228e-09   -2.284341e+00
    6.863524e+00    6.660644e+01    5.060005e+00    1.804660e+09    3.062830e-09    1.469238e-12    2.908561e-09   -2.279341e+00
    6.982728e+00    6.789753e+01    4.887855e+00    1.777109e+09    3.056677e-09    1.614794e-12    2.900674e-09   -2.274341e+00
    7.105474e+00    6.921205e+01    4.718706e+00    1.749393e+09    3.050343e-09    1.755028e-12    2.892560e-09   -2.269341e+00
    7.231887e+00    7.055034e+01    4.552574e+00    1.721509e+09    3.043823e-09    1.890066e-12    2.884211e-09   -2.264341e+00
    7.362095e+00    7.191268e+01    4.389474e+00    1.693454e+09    3.037110e-09    2.020029e-12    2.875619e-09   -2.259341e+00
    7.496229e+00    7.329932e+01    4.229421e+00    1.665225e+09    3.030198e-09    2.145034e-12    2.866778e-09   -2.254341e+00
    7.634426e+00    7.471049e+01    4.072431e+00    1.636819e+09    3.023080e-09    2.265192e-12    2.857678e-09   -2.249341e+00
    7.776820e+00    7.614633e+01    3.918519e+00    1.608233e+09    3.015750e-09    2.380609e-12    2.848311e-09   -2.244341e+00
    7.923548e+00    7.760695e+01    3.767701e+00    1.579462e+09    3.008202e-09    2.491387e-12    2.838670e-09   -2.239341e+00
    8.074751e+00    7.909241e+01    3.619989e+00    1.550506e+09    3.000427e-09    2.597622e-12    2.828746e-09   -2.234341e+00
    8.230565e+00    8.060267e+01    3.475400e+00    1.521360e+09    2.992420e-09    2.699409e-12    2.818530e-09   -2.229341e+00
    8.391127e+00    8.213762e+01    3.333949e+00    1.492023e+09    2.984173e-09    2.796837e-12    2.808014e-09   -2.224341e+00
    8.556576e+00    8.369709e+01    3.195649e+00    1.462490e+09    2.975680e-09    2.889990e-12    2.797188e-09   -2.219341e+00
    8.727041e+00    8.528075e+01    3.060516e+00    1.432762e+09    2.966932e-09    2.978950e-12    2.786045e-09   -2.214341e+00
    8.902657e+00    8.688824e+01    2.928561e+00    1.402836e+09    2.957925e-09    3.063795e-12    2.774573e-09   -2.209341e+00
    9.083542e+00    8.851901e+01    2.799800e+00    1.372712e+09    2.948648e-09    3.144600e-12    2.762766e-09   -2.204341e+00
    9.269816e+00    9.017245e+01    2.674244e+00    1.342390e+09    2.939095e-09    3.221434e-12    2.750612e-09   -2.199341e+00
    9.461581e+00    9.184773e+01    2.551906e+00    1.311870e+09    2.929260e-09    3.294367e-12    2.738105e-09   -2.194341e+00
    9.658938e+00    9.354393e+01    2.432797e+00    1.281154e+09    2.919133e-09    3.363464e-12    2.725232e-09   -2.189341e+00
    9.861964e+00    9.525992e+01    2.316927e+00    1.250246e+09    2.908710e-09    3.428786e-12    2.711985e-09   -2.184341e+00
    1.007073e+01    9.699443e+01    2.204305e+00    1.219150e+09    2.897981e-09    3.490393e-12    2.698355e-09   -2.179341e+00
    1.028527e+01    9.874596e+01    2.094940e+00    1.187872e+09    2.886940e-09    3.548343e-12    2.684334e-09   -2.174341e+00
    1.050561e+01    1.005128e+02    1.988837e+00    1.156419e+09    2.875579e-09    3.602689e-12    2.669911e-09   -2.169341e+00
    1.073175e+01    1.022932e+02    1.886002e+00    1.124803e+09    2.863891e-09    3.653485e-12    2.655077e-09   -2.164341e+00
    1.096366e+01    1.040848e+02    1.786437e+00    1.093034e+09    2.851869e-09    3.700780e-12    2.639824e-09   -2.159341e+00
    1.120126e+01    1.058854e+02    1.690143e+00    1.061127e+09    2.839507e-09    3.744624e-12    2.624142e-09   -2.154341e+00
    1.144445e+01    1.076924e+02    1.597118e+00    1.029100e+09    2.826797e-09    3.785063e-12    2.608023e-09   -2.149341e+00
    1.169307e+01    1.095029e+02    1.507359e+00    9.969711e+08    2.813733e-09    3.822144e-12    2.591458e-09   -2.144341e+00
    1.194693e+01    1.113137e+02    1.420859e+00    9.647645e+08    2.800310e-09    3.855909e-12    2.574440e-09   -2.139341e+00
    1.220578e+01    1.131216e+02    1.337607e+00    9.325061e+08    2.786521e-09    3.886403e-12    2.556960e-09   -2.134341e+00
    1.246931e+01    1.149229e+02    1.257588e+00    9.002254e+08    2.772360e-09    3.913667e-12    2.539011e-09   -2.129341e+00
    1.273714e+01    1.167136e+02    1.180788e+00    8.679554e+08    2.757823e-09    3.937742e-12    2.520586e-09   -2.124341e+00
    1.300884e+01    1.184899e+02    1.107182e+00    8.357327e+08    2.742903e-09    3.958670e-12    2.501680e-09   -2.119341e+00
    1.328392e+01    1.202471e+02    1.036747e+00    8.035977e+08    2.727598e-09    3.976489e-12    2.482284e-09   -2.114341e+00
    1.356178e+01    1.219810e+02    9.694510e-01    7.715935e+08    2.711903e-09    3.991240e-12    2.462394e-09   -2.109341e+00
    1.384178e+01    1.236865e+02    9.052595e-01    7.397675e+08    2.695814e-09    4.002962e-12    2.442005e-09   -2.104341e+00
    1.412319e+01    1.253590e+02    8.441325e-01    7.081705e+08    2.679328e-09    4.011698e-12    2.421113e-09   -2.099341e+00
    1.440521e+01    1.269934e+02    7.860250e-01    6.768552e+08    2.662443e-09    4.017484e-12    2.399714e-09   -2.094341e+00
    1.468695e+01    1.285846e+02    7.308865e-01    6.458775e+08    2.645158e-09    4.020363e-12    2.377805e-09   -2.089341e+00
    1.496749e+01    1.301276e+02    6.786605e-01    6.152954e+08    2.627471e-09    4.020377e-12    2.355384e-09   -2.084341e+00
    1.524581e+01    1.316172e+02    6.292865e-01    5.851687e+08    2.609383e-09    4.017566e-12    2.332452e-09   -2.079341e+00
    1.552082e+01    1.330485e+02    5.826980e-01    5.555571e+08    2.590894e-09    4.011976e-12    2.309006e-09   -2.074341e+00
    1.579144e+01    1.344165e+02    5.388225e-01    5.265214e+08    2.572004e-09    4.003649e-12    2.285049e-09   -2.069341e+00
    1.605653e+01    1.357167e+02    4.975835e-01    4.981215e+08    2.552716e-09    3.992632e-12    2.260582e-09   -2.064341e+00
    1.631490e+01    1.369446e+02    4.588998e-01    4.704152e+08    2.533035e-09    3.978973e-12    2.235608e-09   -2.059341e+00
    1.656541e+01    1.380963e+02    4.226851e-01    4.434587e+08    2.512962e-09    3.962719e-12    2.210131e-09   -2.054341e+00
