# sky130 pfet_01v8 gm/ID Processed Lookup Table
# Corner: tt
# Temperature: 0C
# W = 2.0 um
# L = 1.08 um (1080 nm)
# Columns: gm/id [1/V]  gm/gds [V/V]  id/W [A/m]  ft [Hz]  Cgg/W [F/m]  Cgd/W [F/m]  Cgs/W [F/m]  Vov [V]
#         gm/id          gm/gds            id/W              ft           Cgg/W           Cgd/W           Cgs/W             Vov
    2.121696e+00    4.868017e+00    1.807499e+01    9.161443e+08    6.662200e-09    3.613243e-10    6.252540e-09   -2.834405e+00
    2.144827e+00    5.040303e+00    1.788322e+01    9.174989e+08    6.653540e-09    3.500440e-10    6.252340e-09   -2.829405e+00
    2.168236e+00    5.221877e+00    1.769144e+01    9.187403e+08    6.645030e-09    3.390506e-10    6.252025e-09   -2.824405e+00
    2.191919e+00    5.413294e+00    1.749964e+01    9.198644e+08    6.636665e-09    3.283421e-10    6.251590e-09   -2.819405e+00
    2.215871e+00    5.615132e+00    1.730786e+01    9.208660e+08    6.628445e-09    3.179160e-10    6.251040e-09   -2.814405e+00
    2.240088e+00    5.828007e+00    1.711613e+01    9.217404e+08    6.620370e-09    3.077693e-10    6.250370e-09   -2.809405e+00
    2.264566e+00    6.052538e+00    1.692446e+01    9.224830e+08    6.612435e-09    2.978989e-10    6.249590e-09   -2.804405e+00
    2.289297e+00    6.289387e+00    1.673287e+01    9.230884e+08    6.604645e-09    2.883014e-10    6.248695e-09   -2.799405e+00
    2.314277e+00    6.539219e+00    1.654140e+01    9.235523e+08    6.596995e-09    2.789731e-10    6.247690e-09   -2.794405e+00
    2.339499e+00    6.802740e+00    1.635007e+01    9.238702e+08    6.589485e-09    2.699099e-10    6.246580e-09   -2.789405e+00
    2.364956e+00    7.080656e+00    1.615890e+01    9.240386e+08    6.582105e-09    2.611080e-10    6.245360e-09   -2.784405e+00
    2.390642e+00    7.373683e+00    1.596792e+01    9.240526e+08    6.574860e-09    2.525628e-10    6.244035e-09   -2.779405e+00
    2.416551e+00    7.682561e+00    1.577718e+01    9.239086e+08    6.567745e-09    2.442699e-10    6.242605e-09   -2.774405e+00
    2.442677e+00    8.008024e+00    1.558667e+01    9.236029e+08    6.560760e-09    2.362245e-10    6.241075e-09   -2.769405e+00
    2.469012e+00    8.350812e+00    1.539645e+01    9.231328e+08    6.553900e-09    2.284218e-10    6.239440e-09   -2.764405e+00
    2.495553e+00    8.711659e+00    1.520654e+01    9.224956e+08    6.547160e-09    2.208571e-10    6.237710e-09   -2.759405e+00
    2.522291e+00    9.091290e+00    1.501698e+01    9.216886e+08    6.540540e-09    2.135251e-10    6.235885e-09   -2.754405e+00
    2.549225e+00    9.490413e+00    1.482778e+01    9.207103e+08    6.534035e-09    2.064209e-10    6.233960e-09   -2.749405e+00
    2.576350e+00    9.909719e+00    1.463899e+01    9.195595e+08    6.527640e-09    1.995392e-10    6.231940e-09   -2.744405e+00
    2.603661e+00    1.034987e+01    1.445064e+01    9.182342e+08    6.521360e-09    1.928748e-10    6.229830e-09   -2.739405e+00
    2.631158e+00    1.081150e+01    1.426276e+01    9.167355e+08    6.515180e-09    1.864225e-10    6.227630e-09   -2.734405e+00
    2.658838e+00    1.129520e+01    1.407538e+01    9.150615e+08    6.509110e-09    1.801770e-10    6.225340e-09   -2.729405e+00
    2.686701e+00    1.180152e+01    1.388852e+01    9.132147e+08    6.503135e-09    1.741330e-10    6.222960e-09   -2.724405e+00
    2.714749e+00    1.233098e+01    1.370225e+01    9.111955e+08    6.497255e-09    1.682853e-10    6.220490e-09   -2.719405e+00
    2.742983e+00    1.288402e+01    1.351656e+01    9.090050e+08    6.491470e-09    1.626287e-10    6.217940e-09   -2.714405e+00
    2.771407e+00    1.346105e+01    1.333150e+01    9.066459e+08    6.485770e-09    1.571579e-10    6.215300e-09   -2.709405e+00
    2.800024e+00    1.406242e+01    1.314710e+01    9.041203e+08    6.480155e-09    1.518678e-10    6.212580e-09   -2.704405e+00
    2.828839e+00    1.468843e+01    1.296339e+01    9.014305e+08    6.474625e-09    1.467533e-10    6.209775e-09   -2.699405e+00
    2.857862e+00    1.533930e+01    1.278039e+01    8.985804e+08    6.469170e-09    1.418092e-10    6.206885e-09   -2.694405e+00
    2.887096e+00    1.601521e+01    1.259815e+01    8.955721e+08    6.463795e-09    1.370306e-10    6.203920e-09   -2.689405e+00
    2.916554e+00    1.671630e+01    1.241668e+01    8.924111e+08    6.458485e-09    1.324125e-10    6.200870e-09   -2.684405e+00
    2.946242e+00    1.744263e+01    1.223602e+01    8.891000e+08    6.453245e-09    1.279503e-10    6.197740e-09   -2.679405e+00
    2.976175e+00    1.819425e+01    1.205619e+01    8.856439e+08    6.448065e-09    1.236389e-10    6.194535e-09   -2.674405e+00
    3.006360e+00    1.897111e+01    1.187721e+01    8.820463e+08    6.442945e-09    1.194738e-10    6.191245e-09   -2.669405e+00
    3.036814e+00    1.977316e+01    1.169913e+01    8.783113e+08    6.437885e-09    1.154504e-10    6.187880e-09   -2.664405e+00
    3.067548e+00    2.060032e+01    1.152194e+01    8.744439e+08    6.432875e-09    1.115643e-10    6.184435e-09   -2.659405e+00
    3.098575e+00    2.145246e+01    1.134569e+01    8.704488e+08    6.427910e-09    1.078109e-10    6.180915e-09   -2.654405e+00
    3.129911e+00    2.232942e+01    1.117040e+01    8.663294e+08    6.422995e-09    1.041860e-10    6.177315e-09   -2.649405e+00
    3.161571e+00    2.323106e+01    1.099607e+01    8.620907e+08    6.418120e-09    1.006854e-10    6.173640e-09   -2.644405e+00
    3.193573e+00    2.415719e+01    1.082275e+01    8.577368e+08    6.413285e-09    9.730510e-11    6.169885e-09   -2.639405e+00
    3.225929e+00    2.510763e+01    1.065045e+01    8.532720e+08    6.408485e-09    9.404100e-11    6.166050e-09   -2.634405e+00
    3.258659e+00    2.608221e+01    1.047919e+01    8.487007e+08    6.403715e-09    9.088930e-11    6.162135e-09   -2.629405e+00
    3.291781e+00    2.708075e+01    1.030898e+01    8.440272e+08    6.398970e-09    8.784615e-11    6.158145e-09   -2.624405e+00
    3.325311e+00    2.810308e+01    1.013984e+01    8.392549e+08    6.394250e-09    8.490795e-11    6.154075e-09   -2.619405e+00
    3.359267e+00    2.914906e+01    9.971800e+00    8.343877e+08    6.389550e-09    8.207105e-11    6.149920e-09   -2.614405e+00
    3.393670e+00    3.021855e+01    9.804865e+00    8.294291e+08    6.384870e-09    7.933205e-11    6.145690e-09   -2.609405e+00
    3.428536e+00    3.131147e+01    9.639060e+00    8.243834e+08    6.380200e-09    7.668755e-11    6.141375e-09   -2.604405e+00
    3.463888e+00    3.242773e+01    9.474390e+00    8.192534e+08    6.375540e-09    7.413430e-11    6.136975e-09   -2.599405e+00
    3.499743e+00    3.356728e+01    9.310880e+00    8.140428e+08    6.370885e-09    7.166910e-11    6.132495e-09   -2.594405e+00
    3.536121e+00    3.473010e+01    9.148540e+00    8.087539e+08    6.366235e-09    6.928895e-11    6.127930e-09   -2.589405e+00
    3.573046e+00    3.591625e+01    8.987380e+00    8.033909e+08    6.361580e-09    6.699080e-11    6.123275e-09   -2.584405e+00
    3.610536e+00    3.712575e+01    8.827420e+00    7.979558e+08    6.356920e-09    6.477185e-11    6.118535e-09   -2.579405e+00
    3.648613e+00    3.835872e+01    8.668670e+00    7.924512e+08    6.352255e-09    6.262930e-11    6.113705e-09   -2.574405e+00
    3.687301e+00    3.961529e+01    8.511140e+00    7.868802e+08    6.347575e-09    6.056040e-11    6.108780e-09   -2.569405e+00
    3.726623e+00    4.089566e+01    8.354840e+00    7.812450e+08    6.342880e-09    5.856260e-11    6.103765e-09   -2.564405e+00
    3.766599e+00    4.220006e+01    8.199790e+00    7.755480e+08    6.338165e-09    5.663340e-11    6.098655e-09   -2.559405e+00
    3.807257e+00    4.352876e+01    8.045990e+00    7.697910e+08    6.333430e-09    5.477035e-11    6.093445e-09   -2.554405e+00
    3.848617e+00    4.488204e+01    7.893460e+00    7.639767e+08    6.328665e-09    5.297105e-11    6.088140e-09   -2.549405e+00
    3.890707e+00    4.626031e+01    7.742205e+00    7.581069e+08    6.323870e-09    5.123335e-11    6.082730e-09   -2.544405e+00
    3.933551e+00    4.766390e+01    7.592240e+00    7.521833e+08    6.319040e-09    4.955492e-11    6.077215e-09   -2.539405e+00
    3.977179e+00    4.909334e+01    7.443565e+00    7.462081e+08    6.314170e-09    4.793375e-11    6.071595e-09   -2.534405e+00
    4.021616e+00    5.054911e+01    7.296195e+00    7.401830e+08    6.309255e-09    4.636776e-11    6.065865e-09   -2.529405e+00
    4.066887e+00    5.203171e+01    7.150145e+00    7.341090e+08    6.304295e-09    4.485500e-11    6.060020e-09   -2.524405e+00
    4.113028e+00    5.354172e+01    7.005410e+00    7.279879e+08    6.299285e-09    4.339356e-11    6.054060e-09   -2.519405e+00
    4.160064e+00    5.507980e+01    6.862010e+00    7.218211e+08    6.294220e-09    4.198161e-11    6.047980e-09   -2.514405e+00
    4.208027e+00    5.664667e+01    6.719950e+00    7.156102e+08    6.289095e-09    4.061739e-11    6.041780e-09   -2.509405e+00
    4.256950e+00    5.824299e+01    6.579235e+00    7.093564e+08    6.283905e-09    3.929920e-11    6.035450e-09   -2.504405e+00
    4.306863e+00    5.986956e+01    6.439880e+00    7.030605e+08    6.278650e-09    3.802539e-11    6.028995e-09   -2.499405e+00
    4.357808e+00    6.152719e+01    6.301880e+00    6.967241e+08    6.273320e-09    3.679439e-11    6.022400e-09   -2.494405e+00
    4.409812e+00    6.321676e+01    6.165255e+00    6.903487e+08    6.267910e-09    3.560468e-11    6.015670e-09   -2.489405e+00
    4.462913e+00    6.493919e+01    6.030010e+00    6.839343e+08    6.262420e-09    3.445478e-11    6.008795e-09   -2.484405e+00
    4.517155e+00    6.669543e+01    5.896145e+00    6.774827e+08    6.256840e-09    3.334329e-11    6.001775e-09   -2.479405e+00
    4.572570e+00    6.848652e+01    5.763675e+00    6.709941e+08    6.251170e-09    3.226883e-11    5.994600e-09   -2.474405e+00
    4.629208e+00    7.031353e+01    5.632600e+00    6.644696e+08    6.245405e-09    3.123010e-11    5.987270e-09   -2.469405e+00
    4.687105e+00    7.217756e+01    5.502930e+00    6.579101e+08    6.239535e-09    3.022584e-11    5.979775e-09   -2.464405e+00
    4.746306e+00    7.407983e+01    5.374675e+00    6.513167e+08    6.233555e-09    2.925482e-11    5.972115e-09   -2.459405e+00
    4.806859e+00    7.602154e+01    5.247835e+00    6.446892e+08    6.227465e-09    2.831588e-11    5.964280e-09   -2.454405e+00
    4.868811e+00    7.800399e+01    5.122420e+00    6.380287e+08    6.221255e-09    2.740788e-11    5.956265e-09   -2.449405e+00
    4.932214e+00    8.002855e+01    4.998435e+00    6.313360e+08    6.214920e-09    2.652973e-11    5.948065e-09   -2.444405e+00
    4.997116e+00    8.209660e+01    4.875888e+00    6.246116e+08    6.208450e-09    2.568040e-11    5.939675e-09   -2.439405e+00
    5.063572e+00    8.420960e+01    4.754783e+00    6.178550e+08    6.201850e-09    2.485886e-11    5.931085e-09   -2.434405e+00
    5.131638e+00    8.636912e+01    4.635128e+00    6.110680e+08    6.195100e-09    2.406415e-11    5.922285e-09   -2.429405e+00
    5.201375e+00    8.857675e+01    4.516927e+00    6.042500e+08    6.188205e-09    2.329534e-11    5.913280e-09   -2.424405e+00
    5.272840e+00    9.083415e+01    4.400188e+00    5.974019e+08    6.181150e-09    2.255152e-11    5.904050e-09   -2.419405e+00
    5.346099e+00    9.314305e+01    4.284915e+00    5.905240e+08    6.173930e-09    2.183181e-11    5.894595e-09   -2.414405e+00
    5.421215e+00    9.550527e+01    4.171114e+00    5.836161e+08    6.166540e-09    2.113540e-11    5.884900e-09   -2.409405e+00
    5.498259e+00    9.792268e+01    4.058791e+00    5.766783e+08    6.158975e-09    2.046148e-11    5.874965e-09   -2.404405e+00
    5.577302e+00    1.003973e+02    3.947953e+00    5.697110e+08    6.151225e-09    1.980926e-11    5.864775e-09   -2.399405e+00
    5.658415e+00    1.029309e+02    3.838604e+00    5.627147e+08    6.143275e-09    1.917800e-11    5.854320e-09   -2.394405e+00
    5.741680e+00    1.055260e+02    3.730751e+00    5.556887e+08    6.135130e-09    1.856699e-11    5.843595e-09   -2.389405e+00
    5.827173e+00    1.081845e+02    3.624398e+00    5.486336e+08    6.126770e-09    1.797553e-11    5.832595e-09   -2.384405e+00
    5.914979e+00    1.109087e+02    3.519553e+00    5.415487e+08    6.118195e-09    1.740295e-11    5.821300e-09   -2.379405e+00
    6.005186e+00    1.137010e+02    3.416219e+00    5.344340e+08    6.109395e-09    1.684862e-11    5.809705e-09   -2.374405e+00
    6.097881e+00    1.165639e+02    3.314404e+00    5.272894e+08    6.100360e-09    1.631191e-11    5.797795e-09   -2.369405e+00
    6.193161e+00    1.194998e+02    3.214113e+00    5.201153e+08    6.091075e-09    1.579222e-11    5.785565e-09   -2.364405e+00
    6.291120e+00    1.225114e+02    3.115350e+00    5.129104e+08    6.081540e-09    1.528899e-11    5.773000e-09   -2.359405e+00
    6.391861e+00    1.256014e+02    3.018124e+00    5.056753e+08    6.071735e-09    1.480167e-11    5.760090e-09   -2.354405e+00
    6.495488e+00    1.287725e+02    2.922439e+00    4.984088e+08    6.061660e-09    1.432971e-11    5.746825e-09   -2.349405e+00
    6.602108e+00    1.320276e+02    2.828299e+00    4.911108e+08    6.051300e-09    1.387260e-11    5.733185e-09   -2.344405e+00
    6.711837e+00    1.353697e+02    2.735713e+00    4.837809e+08    6.040645e-09    1.342986e-11    5.719165e-09   -2.339405e+00
    6.824788e+00    1.388017e+02    2.644684e+00    4.764184e+08    6.029685e-09    1.300099e-11    5.704750e-09   -2.334405e+00
    6.941078e+00    1.423268e+02    2.555220e+00    4.690229e+08    6.018405e-09    1.258556e-11    5.689925e-09   -2.329405e+00
    7.060833e+00    1.459481e+02    2.467327e+00    4.615935e+08    6.006800e-09    1.218311e-11    5.674675e-09   -2.324405e+00
    7.184181e+00    1.496690e+02    2.381009e+00    4.541295e+08    5.994855e-09    1.179320e-11    5.658985e-09   -2.319405e+00
    7.311252e+00    1.534925e+02    2.296273e+00    4.466308e+08    5.982555e-09    1.141545e-11    5.642845e-09   -2.314405e+00
    7.442180e+00    1.574223e+02    2.213125e+00    4.390959e+08    5.969895e-09    1.104944e-11    5.626240e-09   -2.309405e+00
    7.577098e+00    1.614613e+02    2.131570e+00    4.315247e+08    5.956855e-09    1.069479e-11    5.609145e-09   -2.304405e+00
    7.716149e+00    1.656133e+02    2.051616e+00    4.239157e+08    5.943430e-09    1.035114e-11    5.591555e-09   -2.299405e+00
    7.859471e+00    1.698814e+02    1.973267e+00    4.162687e+08    5.929600e-09    1.001814e-11    5.573450e-09   -2.294405e+00
    8.007215e+00    1.742692e+02    1.896529e+00    4.085830e+08    5.915355e-09    9.695425e-12    5.554815e-09   -2.289405e+00
    8.159518e+00    1.787798e+02    1.821409e+00    4.008575e+08    5.900680e-09    9.382685e-12    5.535630e-09   -2.284405e+00
    8.316527e+00    1.834165e+02    1.747913e+00    3.930916e+08    5.885565e-09    9.079590e-12    5.515880e-09   -2.279405e+00
    8.478392e+00    1.881825e+02    1.676046e+00    3.852849e+08    5.869990e-09    8.785840e-12    5.495545e-09   -2.274405e+00
    8.645250e+00    1.930807e+02    1.605813e+00    3.774366e+08    5.853945e-09    8.501135e-12    5.474610e-09   -2.269405e+00
    8.817248e+00    1.981139e+02    1.537220e+00    3.695459e+08    5.837420e-09    8.225190e-12    5.453055e-09   -2.264405e+00
    8.994521e+00    2.032848e+02    1.470274e+00    3.616133e+08    5.820390e-09    7.957730e-12    5.430865e-09   -2.259405e+00
    9.177201e+00    2.085955e+02    1.404979e+00    3.536378e+08    5.802850e-09    7.698485e-12    5.408020e-09   -2.254405e+00
    9.365417e+00    2.140482e+02    1.341338e+00    3.456198e+08    5.784780e-09    7.447205e-12    5.384500e-09   -2.249405e+00
    9.559283e+00    2.196440e+02    1.279358e+00    3.375596e+08    5.766165e-09    7.203630e-12    5.360290e-09   -2.244405e+00
    9.758905e+00    2.253843e+02    1.219042e+00    3.294572e+08    5.746995e-09    6.967530e-12    5.335370e-09   -2.239405e+00
    9.964374e+00    2.312694e+02    1.160394e+00    3.213139e+08    5.727250e-09    6.738675e-12    5.309715e-09   -2.234405e+00
    1.017576e+01    2.372988e+02    1.103417e+00    3.131302e+08    5.706920e-09    6.516835e-12    5.283315e-09   -2.229405e+00
    1.039313e+01    2.434719e+02    1.048114e+00    3.049081e+08    5.685990e-09    6.301800e-12    5.256140e-09   -2.224405e+00
    1.061651e+01    2.497865e+02    9.944855e-01    2.966495e+08    5.664440e-09    6.093355e-12    5.228185e-09   -2.219405e+00
    1.084591e+01    2.562397e+02    9.425340e-01    2.883567e+08    5.642260e-09    5.891310e-12    5.199420e-09   -2.214405e+00
    1.108131e+01    2.628278e+02    8.922590e-01    2.800333e+08    5.619430e-09    5.695460e-12    5.169835e-09   -2.209405e+00
    1.132262e+01    2.695450e+02    8.436595e-01    2.716821e+08    5.595945e-09    5.505625e-12    5.139410e-09   -2.204405e+00
    1.156978e+01    2.763850e+02    7.967335e-01    2.633077e+08    5.571790e-09    5.321620e-12    5.108120e-09   -2.199405e+00
    1.182262e+01    2.833396e+02    7.514780e-01    2.549156e+08    5.546945e-09    5.143270e-12    5.075955e-09   -2.194405e+00
    1.208095e+01    2.903986e+02    7.078875e-01    2.465110e+08    5.521400e-09    4.970407e-12    5.042895e-09   -2.189405e+00
    1.234454e+01    2.975510e+02    6.659560e-01    2.381011e+08    5.495145e-09    4.802866e-12    5.008925e-09   -2.184405e+00
    1.261306e+01    3.047825e+02    6.256750e-01    2.296928e+08    5.468170e-09    4.640490e-12    4.974030e-09   -2.179405e+00
    1.288614e+01    3.120782e+02    5.870355e-01    2.212952e+08    5.440455e-09    4.483124e-12    4.938194e-09   -2.174405e+00
    1.316335e+01    3.194202e+02    5.500245e-01    2.129172e+08    5.412000e-09    4.330623e-12    4.901403e-09   -2.169405e+00
    1.344417e+01    3.267888e+02    5.146285e-01    2.045694e+08    5.382790e-09    4.182841e-12    4.863645e-09   -2.164405e+00
    1.372800e+01    3.341617e+02    4.808312e-01    1.962627e+08    5.352815e-09    4.039641e-12    4.824908e-09   -2.159405e+00
    1.401418e+01    3.415152e+02    4.486135e-01    1.880094e+08    5.322070e-09    3.900888e-12    4.785180e-09   -2.154405e+00
    1.430196e+01    3.488228e+02    4.179542e-01    1.798223e+08    5.290550e-09    3.766454e-12    4.744453e-09   -2.149405e+00
    1.459051e+01    3.560562e+02    3.888295e-01    1.717151e+08    5.258250e-09    3.636211e-12    4.702718e-09   -2.144405e+00
    1.487890e+01    3.631853e+02    3.612128e-01    1.637022e+08    5.225160e-09    3.510039e-12    4.659969e-09   -2.139405e+00
    1.516618e+01    3.701784e+02    3.350748e-01    1.557986e+08    5.191280e-09    3.387819e-12    4.616202e-09   -2.134405e+00
    1.545127e+01    3.770024e+02    3.103836e-01    1.480193e+08    5.156615e-09    3.269438e-12    4.571413e-09   -2.129405e+00
    1.573307e+01    3.836236e+02    2.871046e-01    1.403802e+08    5.121155e-09    3.154784e-12    4.525600e-09   -2.124405e+00
    1.601041e+01    3.900078e+02    2.652004e-01    1.328966e+08    5.084905e-09    3.043751e-12    4.478766e-09   -2.119405e+00
    1.628209e+01    3.961205e+02    2.446312e-01    1.255837e+08    5.047875e-09    2.936235e-12    4.430912e-09   -2.114405e+00
    1.654688e+01    4.019280e+02    2.253549e-01    1.184569e+08    5.010060e-09    2.832134e-12    4.382043e-09   -2.109405e+00
    1.680356e+01    4.073983e+02    2.073269e-01    1.115300e+08    4.971477e-09    2.731351e-12    4.332168e-09   -2.104405e+00
    1.705093e+01    4.125010e+02    1.905008e-01    1.048167e+08    4.932128e-09    2.633791e-12    4.281296e-09   -2.099405e+00
    1.728780e+01    4.172082e+02    1.748284e-01    9.832933e+07    4.892025e-09    2.539362e-12    4.229438e-09   -2.094405e+00
    1.751307e+01    4.214952e+02    1.602600e-01    9.207881e+07    4.851184e-09    2.447974e-12    4.176610e-09   -2.089405e+00
    1.772570e+01    4.253417e+02    1.467448e-01    8.607472e+07    4.809618e-09    2.359540e-12    4.122830e-09   -2.084405e+00
    1.792477e+01    4.287309e+02    1.342311e-01    8.032492e+07    4.767345e-09    2.273976e-12    4.068117e-09   -2.079405e+00
