# sky130 pfet_01v8 gm/ID Processed Lookup Table
# Corner: tt
# Temperature: 0C
# W = 2.0 um
# L = 4.86 um (4860 nm)
# Columns: gm/id [1/V]  gm/gds [V/V]  id/W [A/m]  ft [Hz]  Cgg/W [F/m]  Cgd/W [F/m]  Cgs/W [F/m]  Vov [V]
#         gm/id          gm/gds            id/W              ft           Cgg/W           Cgd/W           Cgs/W             Vov
    2.316980e+00    7.878221e+00    3.931252e+00    4.922324e+07    2.945120e-08    2.138889e-09    2.738718e-08   -2.861470e+00
    2.341236e+00    8.245541e+00    3.885736e+00    4.925163e+07    2.939801e-08    2.071000e-09    2.738672e-08   -2.856470e+00
    2.365695e+00    8.637031e+00    3.840280e+00    4.927176e+07    2.934564e-08    2.004644e-09    2.738566e-08   -2.851470e+00
    2.390352e+00    9.054392e+00    3.794889e+00    4.928342e+07    2.929411e-08    1.939831e-09    2.738398e-08   -2.846470e+00
    2.415197e+00    9.499396e+00    3.749571e+00    4.928631e+07    2.924340e-08    1.876566e-09    2.738171e-08   -2.841470e+00
    2.440224e+00    9.973933e+00    3.704332e+00    4.928027e+07    2.919354e-08    1.814855e-09    2.737883e-08   -2.836470e+00
    2.465428e+00    1.047999e+01    3.659179e+00    4.926508e+07    2.914451e-08    1.754697e-09    2.737535e-08   -2.831470e+00
    2.490799e+00    1.101964e+01    3.614120e+00    4.924055e+07    2.909634e-08    1.696090e-09    2.737129e-08   -2.826470e+00
    2.516335e+00    1.159509e+01    3.569161e+00    4.920658e+07    2.904902e-08    1.639030e-09    2.736664e-08   -2.821470e+00
    2.542030e+00    1.220859e+01    3.524310e+00    4.916303e+07    2.900255e-08    1.583509e-09    2.736141e-08   -2.816470e+00
    2.567879e+00    1.286254e+01    3.479574e+00    4.910983e+07    2.895692e-08    1.529517e-09    2.735561e-08   -2.811470e+00
    2.593880e+00    1.355940e+01    3.434961e+00    4.904692e+07    2.891213e-08    1.477042e-09    2.734925e-08   -2.806470e+00
    2.620027e+00    1.430175e+01    3.390478e+00    4.897424e+07    2.886817e-08    1.426070e-09    2.734234e-08   -2.801470e+00
    2.646324e+00    1.509222e+01    3.346132e+00    4.889185e+07    2.882503e-08    1.376585e-09    2.733487e-08   -2.796470e+00
    2.672769e+00    1.593357e+01    3.301931e+00    4.879980e+07    2.878270e-08    1.328567e-09    2.732686e-08   -2.791470e+00
    2.699362e+00    1.682857e+01    3.257882e+00    4.869808e+07    2.874119e-08    1.281998e-09    2.731831e-08   -2.786470e+00
    2.726106e+00    1.778016e+01    3.213991e+00    4.858685e+07    2.870046e-08    1.236855e-09    2.730924e-08   -2.781470e+00
    2.753003e+00    1.879124e+01    3.170267e+00    4.846619e+07    2.866050e-08    1.193116e-09    2.729964e-08   -2.776470e+00
    2.780057e+00    1.986481e+01    3.126716e+00    4.833624e+07    2.862131e-08    1.150755e-09    2.728954e-08   -2.771470e+00
    2.807278e+00    2.100397e+01    3.083344e+00    4.819722e+07    2.858286e-08    1.109748e-09    2.727893e-08   -2.766470e+00
    2.834668e+00    2.221179e+01    3.040160e+00    4.804927e+07    2.854513e-08    1.070067e-09    2.726783e-08   -2.761470e+00
    2.862238e+00    2.349143e+01    2.997168e+00    4.789262e+07    2.850812e-08    1.031685e-09    2.725623e-08   -2.756470e+00
    2.889994e+00    2.484602e+01    2.954376e+00    4.772744e+07    2.847179e-08    9.945730e-10    2.724415e-08   -2.751470e+00
    2.917950e+00    2.627880e+01    2.911789e+00    4.755403e+07    2.843614e-08    9.587030e-10    2.723160e-08   -2.746470e+00
    2.946113e+00    2.779295e+01    2.869413e+00    4.737257e+07    2.840113e-08    9.240450e-10    2.721858e-08   -2.741470e+00
    2.974496e+00    2.939169e+01    2.827255e+00    4.718337e+07    2.836676e-08    8.905690e-10    2.720509e-08   -2.736470e+00
    3.003113e+00    3.107823e+01    2.785319e+00    4.698662e+07    2.833299e-08    8.582445e-10    2.719114e-08   -2.731470e+00
    3.031974e+00    3.285579e+01    2.743610e+00    4.678262e+07    2.829981e-08    8.270415e-10    2.717674e-08   -2.726470e+00
    3.061094e+00    3.472758e+01    2.702135e+00    4.657162e+07    2.826719e-08    7.969295e-10    2.716189e-08   -2.721470e+00
    3.090490e+00    3.669680e+01    2.660897e+00    4.635388e+07    2.823511e-08    7.678775e-10    2.714660e-08   -2.716470e+00
    3.120175e+00    3.876662e+01    2.619902e+00    4.612966e+07    2.820355e-08    7.398555e-10    2.713086e-08   -2.711470e+00
    3.150162e+00    4.094017e+01    2.579153e+00    4.589920e+07    2.817248e-08    7.128330e-10    2.711469e-08   -2.706470e+00
    3.180473e+00    4.322064e+01    2.538655e+00    4.566280e+07    2.814188e-08    6.867800e-10    2.709809e-08   -2.701470e+00
    3.211120e+00    4.561110e+01    2.498413e+00    4.542066e+07    2.811173e-08    6.616670e-10    2.708106e-08   -2.696470e+00
    3.242121e+00    4.811460e+01    2.458429e+00    4.517302e+07    2.808200e-08    6.374640e-10    2.706359e-08   -2.691470e+00
    3.273492e+00    5.073422e+01    2.418709e+00    4.492012e+07    2.805267e-08    6.141425e-10    2.704571e-08   -2.686470e+00
    3.305252e+00    5.347296e+01    2.379255e+00    4.466217e+07    2.802372e-08    5.916740e-10    2.702739e-08   -2.681470e+00
    3.337420e+00    5.633385e+01    2.340070e+00    4.439945e+07    2.799511e-08    5.700300e-10    2.700865e-08   -2.676470e+00
    3.370011e+00    5.931980e+01    2.301157e+00    4.413208e+07    2.796684e-08    5.491830e-10    2.698947e-08   -2.671470e+00
    3.403044e+00    6.243377e+01    2.262522e+00    4.386031e+07    2.793886e-08    5.291065e-10    2.696988e-08   -2.666470e+00
    3.436541e+00    6.567866e+01    2.224164e+00    4.358434e+07    2.791117e-08    5.097740e-10    2.694985e-08   -2.661470e+00
    3.470519e+00    6.905740e+01    2.186088e+00    4.330433e+07    2.788373e-08    4.911595e-10    2.692939e-08   -2.656470e+00
    3.504996e+00    7.257281e+01    2.148296e+00    4.302045e+07    2.785652e-08    4.732380e-10    2.690850e-08   -2.651470e+00
    3.539995e+00    7.622778e+01    2.110791e+00    4.273289e+07    2.782953e-08    4.559848e-10    2.688717e-08   -2.646470e+00
    3.575535e+00    8.002513e+01    2.073575e+00    4.244180e+07    2.780271e-08    4.393762e-10    2.686539e-08   -2.641470e+00
    3.611636e+00    8.396773e+01    2.036650e+00    4.214733e+07    2.777606e-08    4.233889e-10    2.684318e-08   -2.636470e+00
    3.648319e+00    8.805842e+01    2.000020e+00    4.184961e+07    2.774954e-08    4.080005e-10    2.682051e-08   -2.631470e+00
    3.685608e+00    9.230003e+01    1.963684e+00    4.154881e+07    2.772314e-08    3.931888e-10    2.679738e-08   -2.626470e+00
    3.723520e+00    9.669531e+01    1.927647e+00    4.124500e+07    2.769682e-08    3.789328e-10    2.677380e-08   -2.621470e+00
    3.762082e+00    1.012473e+02    1.891908e+00    4.093835e+07    2.767058e-08    3.652118e-10    2.674973e-08   -2.616470e+00
    3.801315e+00    1.059589e+02    1.856472e+00    4.062897e+07    2.764436e-08    3.520058e-10    2.672520e-08   -2.611470e+00
    3.841244e+00    1.108328e+02    1.821338e+00    4.031694e+07    2.761818e-08    3.392957e-10    2.670017e-08   -2.606470e+00
    3.881892e+00    1.158722e+02    1.786511e+00    4.000240e+07    2.759199e-08    3.270626e-10    2.667465e-08   -2.601470e+00
    3.923285e+00    1.210800e+02    1.751988e+00    3.968543e+07    2.756577e-08    3.152886e-10    2.664861e-08   -2.596470e+00
    3.965448e+00    1.264592e+02    1.717776e+00    3.936614e+07    2.753950e-08    3.039562e-10    2.662206e-08   -2.591470e+00
    4.008407e+00    1.320130e+02    1.683872e+00    3.904458e+07    2.751315e-08    2.930487e-10    2.659498e-08   -2.586470e+00
    4.052189e+00    1.377444e+02    1.650280e+00    3.872083e+07    2.748671e-08    2.825498e-10    2.656736e-08   -2.581470e+00
    4.096824e+00    1.436568e+02    1.617000e+00    3.839502e+07    2.746013e-08    2.724437e-10    2.653919e-08   -2.576470e+00
    4.142338e+00    1.497533e+02    1.584034e+00    3.806715e+07    2.743342e-08    2.627154e-10    2.651045e-08   -2.571470e+00
    4.188763e+00    1.560374e+02    1.551384e+00    3.773734e+07    2.740652e-08    2.533505e-10    2.648113e-08   -2.566470e+00
    4.236128e+00    1.625127e+02    1.519051e+00    3.740564e+07    2.737943e-08    2.443348e-10    2.645120e-08   -2.561470e+00
    4.284467e+00    1.691825e+02    1.487035e+00    3.707210e+07    2.735213e-08    2.356549e-10    2.642067e-08   -2.556470e+00
    4.333810e+00    1.760506e+02    1.455340e+00    3.673677e+07    2.732457e-08    2.272977e-10    2.638949e-08   -2.551470e+00
    4.384193e+00    1.831210e+02    1.423965e+00    3.639973e+07    2.729674e-08    2.192507e-10    2.635767e-08   -2.546470e+00
    4.435653e+00    1.903974e+02    1.392911e+00    3.606101e+07    2.726862e-08    2.115021e-10    2.632519e-08   -2.541470e+00
    4.488221e+00    1.978837e+02    1.362180e+00    3.572063e+07    2.724017e-08    2.040401e-10    2.629200e-08   -2.536470e+00
    4.541940e+00    2.055843e+02    1.331773e+00    3.537866e+07    2.721138e-08    1.968537e-10    2.625812e-08   -2.531470e+00
    4.596848e+00    2.135036e+02    1.301692e+00    3.503514e+07    2.718221e-08    1.899321e-10    2.622351e-08   -2.526470e+00
    4.652986e+00    2.216459e+02    1.271937e+00    3.469010e+07    2.715263e-08    1.832652e-10    2.618814e-08   -2.521470e+00
    4.710395e+00    2.300158e+02    1.242509e+00    3.434357e+07    2.712263e-08    1.768429e-10    2.615199e-08   -2.516470e+00
    4.769116e+00    2.386181e+02    1.213411e+00    3.399555e+07    2.709216e-08    1.706559e-10    2.611504e-08   -2.511470e+00
    4.829197e+00    2.474577e+02    1.184641e+00    3.364609e+07    2.706121e-08    1.646950e-10    2.607727e-08   -2.506470e+00
    4.890694e+00    2.565402e+02    1.156202e+00    3.329525e+07    2.702975e-08    1.589515e-10    2.603865e-08   -2.501470e+00
    4.953639e+00    2.658701e+02    1.128095e+00    3.294297e+07    2.699774e-08    1.534170e-10    2.599914e-08   -2.496470e+00
    5.018097e+00    2.754536e+02    1.100321e+00    3.258933e+07    2.696516e-08    1.480832e-10    2.595872e-08   -2.491470e+00
    5.084115e+00    2.852962e+02    1.072880e+00    3.223433e+07    2.693197e-08    1.429427e-10    2.591737e-08   -2.486470e+00
    5.151751e+00    2.954039e+02    1.045775e+00    3.187798e+07    2.689814e-08    1.379879e-10    2.587504e-08   -2.481470e+00
    5.221054e+00    3.057823e+02    1.019005e+00    3.152025e+07    2.686365e-08    1.332116e-10    2.583171e-08   -2.476470e+00
    5.292095e+00    3.164383e+02    9.925720e-01    3.116120e+07    2.682845e-08    1.286070e-10    2.578735e-08   -2.471470e+00
    5.364926e+00    3.273782e+02    9.664775e-01    3.080080e+07    2.679252e-08    1.241676e-10    2.574191e-08   -2.466470e+00
    5.439623e+00    3.386089e+02    9.407215e-01    3.043909e+07    2.675582e-08    1.198869e-10    2.569538e-08   -2.461470e+00
    5.516237e+00    3.501371e+02    9.153060e-01    3.007601e+07    2.671832e-08    1.157589e-10    2.564770e-08   -2.456470e+00
    5.594850e+00    3.619703e+02    8.902315e-01    2.971160e+07    2.667998e-08    1.117779e-10    2.559884e-08   -2.451470e+00
    5.675529e+00    3.741155e+02    8.654990e-01    2.934583e+07    2.664077e-08    1.079383e-10    2.554876e-08   -2.446470e+00
    5.758347e+00    3.865806e+02    8.411100e-01    2.897869e+07    2.660064e-08    1.042346e-10    2.549741e-08   -2.441470e+00
    5.843382e+00    3.993733e+02    8.170655e-01    2.861017e+07    2.655956e-08    1.006617e-10    2.544477e-08   -2.436470e+00
    5.930719e+00    4.125018e+02    7.933660e-01    2.824026e+07    2.651749e-08    9.721460e-11    2.539077e-08   -2.431470e+00
    6.020435e+00    4.259741e+02    7.700135e-01    2.786894e+07    2.647438e-08    9.388875e-11    2.533539e-08   -2.426470e+00
    6.112619e+00    4.397986e+02    7.470085e-01    2.749618e+07    2.643021e-08    9.067945e-11    2.527856e-08   -2.421470e+00
    6.207363e+00    4.539839e+02    7.243520e-01    2.712196e+07    2.638493e-08    8.758240e-11    2.522025e-08   -2.416470e+00
    6.304757e+00    4.685389e+02    7.020455e-01    2.674625e+07    2.633849e-08    8.459335e-11    2.516041e-08   -2.411470e+00
    6.404896e+00    4.834722e+02    6.800900e-01    2.636902e+07    2.629085e-08    8.170835e-11    2.509898e-08   -2.406470e+00
    6.507876e+00    4.987926e+02    6.584870e-01    2.599024e+07    2.624196e-08    7.892345e-11    2.503591e-08   -2.401470e+00
    6.613808e+00    5.145095e+02    6.372370e-01    2.560987e+07    2.619180e-08    7.623500e-11    2.497116e-08   -2.396470e+00
    6.722785e+00    5.306319e+02    6.163420e-01    2.522788e+07    2.614028e-08    7.363945e-11    2.490465e-08   -2.391470e+00
    6.834931e+00    5.471684e+02    5.958020e-01    2.484423e+07    2.608740e-08    7.113330e-11    2.483635e-08   -2.386470e+00
    6.950342e+00    5.641283e+02    5.756195e-01    2.445887e+07    2.603307e-08    6.871335e-11    2.476619e-08   -2.381470e+00
    7.069141e+00    5.815204e+02    5.557950e-01    2.407177e+07    2.597727e-08    6.637645e-11    2.469410e-08   -2.376470e+00
    7.191439e+00    5.993532e+02    5.363300e-01    2.368287e+07    2.591992e-08    6.411950e-11    2.462005e-08   -2.371470e+00
    7.317363e+00    6.176352e+02    5.172255e-01    2.329213e+07    2.586101e-08    6.193965e-11    2.454395e-08   -2.366470e+00
    7.447024e+00    6.363748e+02    4.984832e-01    2.289950e+07    2.580045e-08    5.983410e-11    2.446574e-08   -2.361470e+00
    7.580554e+00    6.555790e+02    4.801039e-01    2.250495e+07    2.573821e-08    5.780020e-11    2.438538e-08   -2.356470e+00
    7.718075e+00    6.752546e+02    4.620891e-01    2.210842e+07    2.567422e-08    5.583525e-11    2.430277e-08   -2.351470e+00
    7.859712e+00    6.954087e+02    4.444400e-01    2.170985e+07    2.560843e-08    5.393690e-11    2.421787e-08   -2.346470e+00
    8.005594e+00    7.160459e+02    4.271578e-01    2.130922e+07    2.554080e-08    5.210275e-11    2.413060e-08   -2.341470e+00
    8.155844e+00    7.371713e+02    4.102439e-01    2.090648e+07    2.547125e-08    5.033045e-11    2.404090e-08   -2.336470e+00
    8.310590e+00    7.587881e+02    3.936994e-01    2.050158e+07    2.539974e-08    4.861787e-11    2.394868e-08   -2.331470e+00
    8.469954e+00    7.808977e+02    3.775255e-01    2.009450e+07    2.532621e-08    4.696286e-11    2.385389e-08   -2.326470e+00
    8.634056e+00    8.035009e+02    3.617235e-01    1.968521e+07    2.525060e-08    4.536341e-11    2.375646e-08   -2.321470e+00
    8.803014e+00    8.265959e+02    3.462945e-01    1.927369e+07    2.517285e-08    4.381756e-11    2.365630e-08   -2.316470e+00
    8.976937e+00    8.501791e+02    3.312395e-01    1.885991e+07    2.509290e-08    4.232344e-11    2.355335e-08   -2.311470e+00
    9.155930e+00    8.742445e+02    3.165596e-01    1.844388e+07    2.501070e-08    4.087924e-11    2.344754e-08   -2.306470e+00
    9.340087e+00    8.987832e+02    3.022558e-01    1.802561e+07    2.492619e-08    3.948322e-11    2.333878e-08   -2.301470e+00
    9.529492e+00    9.237836e+02    2.883290e-01    1.760511e+07    2.483930e-08    3.813372e-11    2.322702e-08   -2.296470e+00
    9.724219e+00    9.492305e+02    2.747798e-01    1.718243e+07    2.474999e-08    3.682914e-11    2.311217e-08   -2.291470e+00
    9.924320e+00    9.751051e+02    2.616090e-01    1.675762e+07    2.465819e-08    3.556792e-11    2.299416e-08   -2.286470e+00
    1.012984e+01    1.001385e+03    2.488170e-01    1.633076e+07    2.456384e-08    3.434859e-11    2.287292e-08   -2.281470e+00
    1.034078e+01    1.028041e+03    2.364043e-01    1.590194e+07    2.446689e-08    3.316970e-11    2.274838e-08   -2.276470e+00
    1.055716e+01    1.055043e+03    2.243710e-01    1.547129e+07    2.436730e-08    3.202990e-11    2.262046e-08   -2.271470e+00
    1.077892e+01    1.082351e+03    2.127171e-01    1.503896e+07    2.426499e-08    3.092785e-11    2.248910e-08   -2.266470e+00
    1.100602e+01    1.109923e+03    2.014422e-01    1.460513e+07    2.415992e-08    2.986227e-11    2.235423e-08   -2.261470e+00
    1.123834e+01    1.137709e+03    1.905460e-01    1.417002e+07    2.405203e-08    2.883194e-11    2.221577e-08   -2.256470e+00
    1.147574e+01    1.165654e+03    1.800278e-01    1.373387e+07    2.394128e-08    2.783568e-11    2.207368e-08   -2.251470e+00
    1.171806e+01    1.193694e+03    1.698862e-01    1.329699e+07    2.382762e-08    2.687234e-11    2.192788e-08   -2.246470e+00
    1.196506e+01    1.221760e+03    1.601199e-01    1.285969e+07    2.371100e-08    2.594083e-11    2.177832e-08   -2.241470e+00
    1.221647e+01    1.249776e+03    1.507270e-01    1.242235e+07    2.359139e-08    2.504010e-11    2.162493e-08   -2.236470e+00
    1.247195e+01    1.277656e+03    1.417055e-01    1.198538e+07    2.346873e-08    2.416913e-11    2.146768e-08   -2.231470e+00
    1.273111e+01    1.305311e+03    1.330526e-01    1.154924e+07    2.334300e-08    2.332692e-11    2.130650e-08   -2.226470e+00
    1.299352e+01    1.332644e+03    1.247653e-01    1.111444e+07    2.321417e-08    2.251254e-11    2.114134e-08   -2.221470e+00
    1.325863e+01    1.359548e+03    1.168399e-01    1.068152e+07    2.308220e-08    2.172508e-11    2.097218e-08   -2.216470e+00
    1.352588e+01    1.385914e+03    1.092725e-01    1.025108e+07    2.294707e-08    2.096366e-11    2.079897e-08   -2.211470e+00
    1.379463e+01    1.411626e+03    1.020583e-01    9.823737e+06    2.280875e-08    2.022742e-11    2.062169e-08   -2.206470e+00
    1.406415e+01    1.436565e+03    9.519210e-02    9.400171e+06    2.266724e-08    1.951555e-11    2.044031e-08   -2.201470e+00
    1.433366e+01    1.460608e+03    8.866830e-02    8.981078e+06    2.252253e-08    1.882725e-11    2.025481e-08   -2.196470e+00
    1.460232e+01    1.483631e+03    8.248050e-02    8.567188e+06    2.237459e-08    1.816178e-11    2.006518e-08   -2.191470e+00
    1.486925e+01    1.505508e+03    7.662180e-02    8.159249e+06    2.222345e-08    1.751838e-11    1.987141e-08   -2.186470e+00
    1.513347e+01    1.526116e+03    7.108480e-02    7.758017e+06    2.206910e-08    1.689637e-11    1.967349e-08   -2.181470e+00
    1.539399e+01    1.545340e+03    6.586145e-02    7.364265e+06    2.191156e-08    1.629504e-11    1.947146e-08   -2.176470e+00
    1.564978e+01    1.563062e+03    6.094315e-02    6.978744e+06    2.175084e-08    1.571374e-11    1.926533e-08   -2.171470e+00
    1.589980e+01    1.579180e+03    5.632085e-02    6.602206e+06    2.158698e-08    1.515182e-11    1.905512e-08   -2.166470e+00
    1.614295e+01    1.593599e+03    5.198500e-02    6.235363e+06    2.142000e-08    1.460867e-11    1.884085e-08   -2.161470e+00
    1.637823e+01    1.606238e+03    4.792555e-02    5.878900e+06    2.124996e-08    1.408369e-11    1.862259e-08   -2.156470e+00
    1.660457e+01    1.617029e+03    4.413212e-02    5.533453e+06    2.107689e-08    1.357631e-11    1.840038e-08   -2.151470e+00
    1.682099e+01    1.625920e+03    4.059398e-02    5.199594e+06    2.090085e-08    1.308596e-11    1.817429e-08   -2.146470e+00
    1.702656e+01    1.632879e+03    3.730011e-02    4.877836e+06    2.072192e-08    1.261212e-11    1.794440e-08   -2.141470e+00
    1.722043e+01    1.637893e+03    3.423928e-02    4.568620e+06    2.054015e-08    1.215424e-11    1.771078e-08   -2.136470e+00
    1.740183e+01    1.640969e+03    3.140015e-02    4.272301e+06    2.035564e-08    1.171185e-11    1.747353e-08   -2.131470e+00
    1.757012e+01    1.642133e+03    2.877127e-02    3.989152e+06    2.016848e-08    1.128443e-11    1.723276e-08   -2.126470e+00
    1.772478e+01    1.641432e+03    2.634120e-02    3.719358e+06    1.997876e-08    1.087153e-11    1.698858e-08   -2.121470e+00
    1.786540e+01    1.638933e+03    2.409858e-02    3.463009e+06    1.978658e-08    1.047268e-11    1.674112e-08   -2.116470e+00
    1.799177e+01    1.634721e+03    2.203218e-02    3.220112e+06    1.959207e-08    1.008744e-11    1.649051e-08   -2.111470e+00
    1.810378e+01    1.628898e+03    2.013096e-02    2.990586e+06    1.939535e-08    9.715380e-12    1.623690e-08   -2.106470e+00
