# sky130 pfet_01v8 gm/ID Processed Lookup Table
# Corner: tt
# Temperature: 0C
# W = 2.0 um
# L = 0.18 um (180 nm)
# Columns: gm/id [1/V]  gm/gds [V/V]  id/W [A/m]  ft [Hz]  Cgg/W [F/m]  Cgd/W [F/m]  Cgs/W [F/m]  Vov [V]
#         gm/id          gm/gds            id/W              ft           Cgg/W           Cgd/W           Cgs/W             Vov
    1.333418e+00    1.663448e+00    1.097562e+02    1.905371e+10    1.222463e-09    1.838208e-11    9.591155e-10   -2.649747e+00
    1.347182e+00    1.692046e+00    1.090231e+02    1.913424e+10    1.221669e-09    1.709872e-11    9.593285e-10   -2.644747e+00
    1.361104e+00    1.721320e+00    1.082874e+02    1.921384e+10    1.220886e-09    1.584356e-11    9.595265e-10   -2.639747e+00
    1.375188e+00    1.751285e+00    1.075491e+02    1.929249e+10    1.220115e-09    1.461630e-11    9.597095e-10   -2.634747e+00
    1.389434e+00    1.781964e+00    1.068084e+02    1.937015e+10    1.219356e-09    1.341661e-11    9.598775e-10   -2.629747e+00
    1.403846e+00    1.813373e+00    1.060652e+02    1.944679e+10    1.218609e-09    1.224416e-11    9.600310e-10   -2.624747e+00
    1.418423e+00    1.845530e+00    1.053195e+02    1.952237e+10    1.217873e-09    1.109861e-11    9.601700e-10   -2.619747e+00
    1.433169e+00    1.878454e+00    1.045713e+02    1.959685e+10    1.217149e-09    9.979610e-12    9.602950e-10   -2.614747e+00
    1.448085e+00    1.912165e+00    1.038208e+02    1.967022e+10    1.216436e-09    8.886780e-12    9.604060e-10   -2.609747e+00
    1.463172e+00    1.946681e+00    1.030679e+02    1.974242e+10    1.215734e-09    7.819745e-12    9.605035e-10   -2.604747e+00
    1.478431e+00    1.982020e+00    1.023127e+02    1.981341e+10    1.215043e-09    6.778115e-12    9.605875e-10   -2.599747e+00
    1.493865e+00    2.018203e+00    1.015553e+02    1.988317e+10    1.214363e-09    5.761500e-12    9.606580e-10   -2.594747e+00
    1.509474e+00    2.055244e+00    1.007957e+02    1.995165e+10    1.213692e-09    4.769497e-12    9.607155e-10   -2.589747e+00
    1.525261e+00    2.093169e+00    1.000338e+02    2.001882e+10    1.213033e-09    3.801700e-12    9.607600e-10   -2.584747e+00
    1.541225e+00    2.131988e+00    9.926985e+01    2.008461e+10    1.212384e-09    2.857697e-12    9.607915e-10   -2.579747e+00
    1.557370e+00    2.171726e+00    9.850385e+01    2.014902e+10    1.211744e-09    1.937071e-12    9.608110e-10   -2.574747e+00
    1.573695e+00    2.212396e+00    9.773580e+01    2.021199e+10    1.211115e-09    1.039401e-12    9.608180e-10   -2.569747e+00
    1.590202e+00    2.254016e+00    9.696580e+01    2.027346e+10    1.210496e-09    1.642648e-13    9.608135e-10   -2.564747e+00
    1.606892e+00    2.296605e+00    9.619390e+01    2.033341e+10    1.209885e-09    6.887615e-13    9.607965e-10   -2.559747e+00
    1.623767e+00    2.340176e+00    9.542010e+01    2.039180e+10    1.209284e-09    1.520104e-12    9.607680e-10   -2.554747e+00
    1.640828e+00    2.384747e+00    9.464450e+01    2.044858e+10    1.208691e-09    2.330189e-12    9.607280e-10   -2.549747e+00
    1.658074e+00    2.430328e+00    9.386715e+01    2.050370e+10    1.208108e-09    3.119442e-12    9.606770e-10   -2.544747e+00
    1.675508e+00    2.476940e+00    9.308815e+01    2.055712e+10    1.207533e-09    3.888290e-12    9.606150e-10   -2.539747e+00
    1.693131e+00    2.524590e+00    9.230750e+01    2.060879e+10    1.206966e-09    4.637155e-12    9.605420e-10   -2.534747e+00
    1.710944e+00    2.573291e+00    9.152525e+01    2.065869e+10    1.206408e-09    5.366460e-12    9.604580e-10   -2.529747e+00
    1.728947e+00    2.623058e+00    9.074155e+01    2.070676e+10    1.205857e-09    6.076625e-12    9.603640e-10   -2.524747e+00
    1.747141e+00    2.673896e+00    8.995640e+01    2.075295e+10    1.205314e-09    6.768070e-12    9.602595e-10   -2.519747e+00
    1.765528e+00    2.725818e+00    8.916990e+01    2.079724e+10    1.204779e-09    7.441200e-12    9.601445e-10   -2.514747e+00
    1.784107e+00    2.778826e+00    8.838215e+01    2.083958e+10    1.204250e-09    8.096435e-12    9.600200e-10   -2.509747e+00
    1.802883e+00    2.832933e+00    8.759310e+01    2.087993e+10    1.203729e-09    8.734180e-12    9.598855e-10   -2.504747e+00
    1.821854e+00    2.888138e+00    8.680295e+01    2.091824e+10    1.203215e-09    9.354830e-12    9.597415e-10   -2.499747e+00
    1.841022e+00    2.944449e+00    8.601170e+01    2.095448e+10    1.202706e-09    9.958785e-12    9.595880e-10   -2.494747e+00
    1.860386e+00    3.001867e+00    8.521950e+01    2.098861e+10    1.202205e-09    1.054644e-11    9.594250e-10   -2.489747e+00
    1.879952e+00    3.060395e+00    8.442635e+01    2.102060e+10    1.201710e-09    1.111818e-11    9.592530e-10   -2.484747e+00
    1.899718e+00    3.120030e+00    8.363235e+01    2.105042e+10    1.201221e-09    1.167438e-11    9.590715e-10   -2.479747e+00
    1.919686e+00    3.180774e+00    8.283760e+01    2.107802e+10    1.200737e-09    1.221542e-11    9.588815e-10   -2.474747e+00
    1.939858e+00    3.242621e+00    8.204215e+01    2.110339e+10    1.200259e-09    1.274167e-11    9.586825e-10   -2.469747e+00
    1.960236e+00    3.305571e+00    8.124610e+01    2.112649e+10    1.199786e-09    1.325349e-11    9.584750e-10   -2.464747e+00
    1.980821e+00    3.369616e+00    8.044955e+01    2.114728e+10    1.199318e-09    1.375124e-11    9.582590e-10   -2.459747e+00
    2.001616e+00    3.434752e+00    7.965255e+01    2.116576e+10    1.198855e-09    1.423528e-11    9.580345e-10   -2.454747e+00
    2.022621e+00    3.500971e+00    7.885525e+01    2.118189e+10    1.198397e-09    1.470594e-11    9.578015e-10   -2.449747e+00
    2.043842e+00    3.568266e+00    7.805765e+01    2.119566e+10    1.197943e-09    1.516357e-11    9.575605e-10   -2.444747e+00
    2.065278e+00    3.636626e+00    7.725990e+01    2.120703e+10    1.197493e-09    1.560849e-11    9.573110e-10   -2.439747e+00
    2.086935e+00    3.706044e+00    7.646205e+01    2.121601e+10    1.197047e-09    1.604103e-11    9.570540e-10   -2.434747e+00
    2.108813e+00    3.776508e+00    7.566420e+01    2.122256e+10    1.196605e-09    1.646150e-11    9.567885e-10   -2.429747e+00
    2.130917e+00    3.848009e+00    7.486645e+01    2.122669e+10    1.196166e-09    1.687022e-11    9.565155e-10   -2.424747e+00
    2.153249e+00    3.920532e+00    7.406890e+01    2.122837e+10    1.195732e-09    1.726750e-11    9.562340e-10   -2.419747e+00
    2.175814e+00    3.994066e+00    7.327160e+01    2.122759e+10    1.195300e-09    1.765363e-11    9.559450e-10   -2.414747e+00
    2.198613e+00    4.068599e+00    7.247470e+01    2.122436e+10    1.194870e-09    1.802889e-11    9.556485e-10   -2.409747e+00
    2.221655e+00    4.144120e+00    7.167820e+01    2.121867e+10    1.194444e-09    1.839359e-11    9.553440e-10   -2.404747e+00
    2.244941e+00    4.220613e+00    7.088225e+01    2.121050e+10    1.194020e-09    1.874798e-11    9.550320e-10   -2.399747e+00
    2.268474e+00    4.298066e+00    7.008695e+01    2.119986e+10    1.193599e-09    1.909236e-11    9.547125e-10   -2.394747e+00
    2.292261e+00    4.376467e+00    6.929240e+01    2.118675e+10    1.193179e-09    1.942696e-11    9.543850e-10   -2.389747e+00
    2.316307e+00    4.455800e+00    6.849865e+01    2.117116e+10    1.192761e-09    1.975207e-11    9.540505e-10   -2.384747e+00
    2.340617e+00    4.536055e+00    6.770580e+01    2.115312e+10    1.192345e-09    2.006792e-11    9.537080e-10   -2.379747e+00
    2.365196e+00    4.617217e+00    6.691395e+01    2.113260e+10    1.191930e-09    2.037477e-11    9.533580e-10   -2.374747e+00
    2.390052e+00    4.699274e+00    6.612315e+01    2.110964e+10    1.191517e-09    2.067285e-11    9.530000e-10   -2.369747e+00
    2.415185e+00    4.782213e+00    6.533360e+01    2.108421e+10    1.191104e-09    2.096240e-11    9.526350e-10   -2.364747e+00
    2.440609e+00    4.866022e+00    6.454525e+01    2.105634e+10    1.190693e-09    2.124363e-11    9.522620e-10   -2.359747e+00
    2.466326e+00    4.950689e+00    6.375830e+01    2.102604e+10    1.190282e-09    2.151678e-11    9.518815e-10   -2.354747e+00
    2.492343e+00    5.036202e+00    6.297280e+01    2.099331e+10    1.189871e-09    2.178206e-11    9.514935e-10   -2.349747e+00
    2.518666e+00    5.122548e+00    6.218885e+01    2.095816e+10    1.189460e-09    2.203966e-11    9.510975e-10   -2.344747e+00
    2.545306e+00    5.209720e+00    6.140650e+01    2.092062e+10    1.189049e-09    2.228982e-11    9.506935e-10   -2.339747e+00
    2.572268e+00    5.297706e+00    6.062590e+01    2.088068e+10    1.188639e-09    2.253270e-11    9.502820e-10   -2.334747e+00
    2.599560e+00    5.386494e+00    5.984710e+01    2.083836e+10    1.188227e-09    2.276851e-11    9.498625e-10   -2.329747e+00
    2.627192e+00    5.476076e+00    5.907015e+01    2.079368e+10    1.187815e-09    2.299743e-11    9.494350e-10   -2.324747e+00
    2.655170e+00    5.566442e+00    5.829520e+01    2.074664e+10    1.187401e-09    2.321965e-11    9.489995e-10   -2.319747e+00
    2.683502e+00    5.657582e+00    5.752235e+01    2.069726e+10    1.186987e-09    2.343534e-11    9.485560e-10   -2.314747e+00
    2.712200e+00    5.749490e+00    5.675165e+01    2.064557e+10    1.186570e-09    2.364467e-11    9.481040e-10   -2.309747e+00
    2.741273e+00    5.842157e+00    5.598315e+01    2.059157e+10    1.186152e-09    2.384780e-11    9.476435e-10   -2.304747e+00
    2.770728e+00    5.935572e+00    5.521700e+01    2.053526e+10    1.185732e-09    2.404489e-11    9.471745e-10   -2.299747e+00
    2.800576e+00    6.029732e+00    5.445330e+01    2.047668e+10    1.185311e-09    2.423611e-11    9.466970e-10   -2.294747e+00
    2.830829e+00    6.124626e+00    5.369205e+01    2.041584e+10    1.184886e-09    2.442160e-11    9.462105e-10   -2.289747e+00
    2.861495e+00    6.220250e+00    5.293340e+01    2.035275e+10    1.184458e-09    2.460150e-11    9.457155e-10   -2.284747e+00
    2.892588e+00    6.316596e+00    5.217740e+01    2.028743e+10    1.184028e-09    2.477596e-11    9.452110e-10   -2.279747e+00
    2.924115e+00    6.413656e+00    5.142415e+01    2.021989e+10    1.183595e-09    2.494512e-11    9.446975e-10   -2.274747e+00
    2.956094e+00    6.511426e+00    5.067370e+01    2.015015e+10    1.183157e-09    2.510911e-11    9.441745e-10   -2.269747e+00
    2.988530e+00    6.609902e+00    4.992620e+01    2.007823e+10    1.182717e-09    2.526804e-11    9.436415e-10   -2.264747e+00
    3.021439e+00    6.709073e+00    4.918168e+01    2.000414e+10    1.182272e-09    2.542206e-11    9.430990e-10   -2.259747e+00
    3.054834e+00    6.808938e+00    4.844022e+01    1.992790e+10    1.181823e-09    2.557128e-11    9.425465e-10   -2.254747e+00
    3.088727e+00    6.909489e+00    4.770193e+01    1.984952e+10    1.181369e-09    2.571581e-11    9.419835e-10   -2.249747e+00
    3.123131e+00    7.010719e+00    4.696687e+01    1.976902e+10    1.180910e-09    2.585577e-11    9.414095e-10   -2.244747e+00
    3.158063e+00    7.112628e+00    4.623512e+01    1.968642e+10    1.180446e-09    2.599126e-11    9.408255e-10   -2.239747e+00
    3.193534e+00    7.215205e+00    4.550676e+01    1.960172e+10    1.179977e-09    2.612238e-11    9.402300e-10   -2.234747e+00
    3.229563e+00    7.318452e+00    4.478187e+01    1.951496e+10    1.179501e-09    2.624925e-11    9.396230e-10   -2.229747e+00
    3.266160e+00    7.422356e+00    4.406053e+01    1.942614e+10    1.179019e-09    2.637194e-11    9.390045e-10   -2.224747e+00
    3.303347e+00    7.526918e+00    4.334281e+01    1.933529e+10    1.178531e-09    2.649057e-11    9.383745e-10   -2.219747e+00
    3.341136e+00    7.632128e+00    4.262879e+01    1.924239e+10    1.178036e-09    2.660521e-11    9.377315e-10   -2.214747e+00
    3.379547e+00    7.737982e+00    4.191855e+01    1.914749e+10    1.177533e-09    2.671595e-11    9.370765e-10   -2.209747e+00
    3.418595e+00    7.844476e+00    4.121216e+01    1.905059e+10    1.177023e-09    2.682288e-11    9.364080e-10   -2.204747e+00
    3.458302e+00    7.951605e+00    4.050970e+01    1.895171e+10    1.176505e-09    2.692607e-11    9.357265e-10   -2.199747e+00
    3.498684e+00    8.059365e+00    3.981124e+01    1.885087e+10    1.175978e-09    2.702560e-11    9.350310e-10   -2.194747e+00
    3.539761e+00    8.167744e+00    3.911685e+01    1.874807e+10    1.175442e-09    2.712154e-11    9.343220e-10   -2.189747e+00
    3.581554e+00    8.276743e+00    3.842662e+01    1.864334e+10    1.174898e-09    2.721397e-11    9.335980e-10   -2.184747e+00
    3.624083e+00    8.386351e+00    3.774061e+01    1.853668e+10    1.174343e-09    2.730294e-11    9.328590e-10   -2.179747e+00
    3.667371e+00    8.496564e+00    3.705889e+01    1.842811e+10    1.173780e-09    2.738853e-11    9.321045e-10   -2.174747e+00
    3.711439e+00    8.607375e+00    3.638155e+01    1.831766e+10    1.173205e-09    2.747078e-11    9.313340e-10   -2.169747e+00
    3.756313e+00    8.718780e+00    3.570864e+01    1.820531e+10    1.172619e-09    2.754977e-11    9.305470e-10   -2.164747e+00
    3.802013e+00    8.830766e+00    3.504024e+01    1.809111e+10    1.172022e-09    2.762554e-11    9.297435e-10   -2.159747e+00
    3.848568e+00    8.943332e+00    3.437643e+01    1.797505e+10    1.171412e-09    2.769814e-11    9.289225e-10   -2.154747e+00
    3.896000e+00    9.056463e+00    3.371727e+01    1.785714e+10    1.170791e-09    2.776763e-11    9.280830e-10   -2.149747e+00
    3.944339e+00    9.170163e+00    3.306283e+01    1.773743e+10    1.170156e-09    2.783406e-11    9.272250e-10   -2.144747e+00
    3.993612e+00    9.284413e+00    3.241318e+01    1.761588e+10    1.169508e-09    2.789745e-11    9.263480e-10   -2.139747e+00
    4.043848e+00    9.399209e+00    3.176839e+01    1.749254e+10    1.168846e-09    2.795786e-11    9.254515e-10   -2.134747e+00
    4.095075e+00    9.514539e+00    3.112854e+01    1.736741e+10    1.168169e-09    2.801532e-11    9.245340e-10   -2.129747e+00
    4.147327e+00    9.630398e+00    3.049368e+01    1.724050e+10    1.167477e-09    2.806987e-11    9.235955e-10   -2.124747e+00
    4.200634e+00    9.746769e+00    2.986388e+01    1.711182e+10    1.166769e-09    2.812155e-11    9.226350e-10   -2.119747e+00
    4.255031e+00    9.863649e+00    2.923923e+01    1.698140e+10    1.166045e-09    2.817037e-11    9.216520e-10   -2.114747e+00
    4.310550e+00    9.981024e+00    2.861977e+01    1.684922e+10    1.165303e-09    2.821637e-11    9.206455e-10   -2.109747e+00
    4.367230e+00    1.009888e+01    2.800558e+01    1.671532e+10    1.164544e-09    2.825957e-11    9.196150e-10   -2.104747e+00
    4.425108e+00    1.021722e+01    2.739672e+01    1.657970e+10    1.163767e-09    2.830000e-11    9.185600e-10   -2.099747e+00
    4.484220e+00    1.033600e+01    2.679327e+01    1.644236e+10    1.162970e-09    2.833768e-11    9.174785e-10   -2.094747e+00
    4.544608e+00    1.045524e+01    2.619528e+01    1.630332e+10    1.162154e-09    2.837261e-11    9.163710e-10   -2.089747e+00
    4.606314e+00    1.057491e+01    2.560281e+01    1.616258e+10    1.161316e-09    2.840482e-11    9.152355e-10   -2.084747e+00
    4.669381e+00    1.069499e+01    2.501595e+01    1.602017e+10    1.160458e-09    2.843433e-11    9.140715e-10   -2.079747e+00
    4.733853e+00    1.081548e+01    2.443475e+01    1.587608e+10    1.159577e-09    2.846114e-11    9.128780e-10   -2.074747e+00
    4.799779e+00    1.093636e+01    2.385927e+01    1.573032e+10    1.158673e-09    2.848525e-11    9.116545e-10   -2.069747e+00
    4.867203e+00    1.105760e+01    2.328957e+01    1.558290e+10    1.157745e-09    2.850668e-11    9.103990e-10   -2.064747e+00
    4.936179e+00    1.117919e+01    2.272574e+01    1.543382e+10    1.156793e-09    2.852542e-11    9.091115e-10   -2.059747e+00
    5.006756e+00    1.130112e+01    2.216782e+01    1.528310e+10    1.155814e-09    2.854148e-11    9.077900e-10   -2.054747e+00
    5.078993e+00    1.142337e+01    2.161587e+01    1.513074e+10    1.154810e-09    2.855485e-11    9.064335e-10   -2.049747e+00
    5.152939e+00    1.154590e+01    2.106997e+01    1.497673e+10    1.153778e-09    2.856553e-11    9.050415e-10   -2.044747e+00
    5.228657e+00    1.166870e+01    2.053017e+01    1.482109e+10    1.152717e-09    2.857352e-11    9.036120e-10   -2.039747e+00
    5.306207e+00    1.179176e+01    1.999654e+01    1.466384e+10    1.151626e-09    2.857880e-11    9.021445e-10   -2.034747e+00
    5.385646e+00    1.191503e+01    1.946913e+01    1.450494e+10    1.150506e-09    2.858136e-11    9.006370e-10   -2.029747e+00
    5.467045e+00    1.203851e+01    1.894802e+01    1.434443e+10    1.149352e-09    2.858119e-11    8.990885e-10   -2.024747e+00
    5.550468e+00    1.216217e+01    1.843325e+01    1.418230e+10    1.148168e-09    2.857828e-11    8.974975e-10   -2.019747e+00
    5.635982e+00    1.228597e+01    1.792490e+01    1.401854e+10    1.146948e-09    2.857259e-11    8.958625e-10   -2.014747e+00
    5.723663e+00    1.240989e+01    1.742303e+01    1.385317e+10    1.145694e-09    2.856412e-11    8.941825e-10   -2.009747e+00
    5.813578e+00    1.253390e+01    1.692769e+01    1.368618e+10    1.144403e-09    2.855283e-11    8.924560e-10   -2.004747e+00
    5.905811e+00    1.265796e+01    1.643895e+01    1.351757e+10    1.143076e-09    2.853872e-11    8.906805e-10   -1.999747e+00
    6.000434e+00    1.278204e+01    1.595686e+01    1.334734e+10    1.141709e-09    2.852174e-11    8.888555e-10   -1.994747e+00
    6.097529e+00    1.290611e+01    1.548149e+01    1.317549e+10    1.140302e-09    2.850187e-11    8.869790e-10   -1.989747e+00
    6.197178e+00    1.303013e+01    1.501289e+01    1.300200e+10    1.138855e-09    2.847907e-11    8.850490e-10   -1.984747e+00
    6.299473e+00    1.315408e+01    1.455113e+01    1.282690e+10    1.137364e-09    2.845332e-11    8.830645e-10   -1.979747e+00
    6.404494e+00    1.327788e+01    1.409627e+01    1.265016e+10    1.135829e-09    2.842456e-11    8.810230e-10   -1.974747e+00
    6.512338e+00    1.340152e+01    1.364836e+01    1.247180e+10    1.134249e-09    2.839277e-11    8.789235e-10   -1.969747e+00
    6.623093e+00    1.352494e+01    1.320746e+01    1.229178e+10    1.132623e-09    2.835791e-11    8.767635e-10   -1.964747e+00
    6.736848e+00    1.364810e+01    1.277363e+01    1.211013e+10    1.130947e-09    2.831993e-11    8.745410e-10   -1.959747e+00
    6.853705e+00    1.377096e+01    1.234694e+01    1.192684e+10    1.129222e-09    2.827879e-11    8.722550e-10   -1.954747e+00
    6.973761e+00    1.389345e+01    1.192743e+01    1.174190e+10    1.127446e-09    2.823444e-11    8.699025e-10   -1.949747e+00
    7.097115e+00    1.401554e+01    1.151517e+01    1.155531e+10    1.125617e-09    2.818683e-11    8.674820e-10   -1.944747e+00
    7.223859e+00    1.413714e+01    1.111021e+01    1.136707e+10    1.123732e-09    2.813591e-11    8.649920e-10   -1.939747e+00
    7.354102e+00    1.425823e+01    1.071260e+01    1.117718e+10    1.121793e-09    2.808164e-11    8.624290e-10   -1.934747e+00
    7.487945e+00    1.437873e+01    1.032240e+01    1.098563e+10    1.119795e-09    2.802395e-11    8.597925e-10   -1.929747e+00
    7.625477e+00    1.449858e+01    9.939680e+00    1.079244e+10    1.117738e-09    2.796278e-11    8.570790e-10   -1.924747e+00
    7.766809e+00    1.461771e+01    9.564475e+00    1.059760e+10    1.115620e-09    2.789809e-11    8.542875e-10   -1.919747e+00
    7.912029e+00    1.473606e+01    9.196845e+00    1.040113e+10    1.113439e-09    2.782981e-11    8.514145e-10   -1.914747e+00
    8.061235e+00    1.485354e+01    8.836835e+00    1.020302e+10    1.111194e-09    2.775789e-11    8.484590e-10   -1.909747e+00
    8.214521e+00    1.497010e+01    8.484500e+00    1.000330e+10    1.108882e-09    2.768227e-11    8.454180e-10   -1.904747e+00
    8.371968e+00    1.508564e+01    8.139890e+00    9.801981e+09    1.106503e-09    2.760288e-11    8.422895e-10   -1.899747e+00
    8.533669e+00    1.520009e+01    7.803045e+00    9.599086e+09    1.104054e-09    2.751965e-11    8.390710e-10   -1.894747e+00
