# sky130 pfet_01v8 gm/ID Processed Lookup Table
# Corner: tt
# Temperature: 0C
# W = 2.0 um
# L = 5.04 um (5040 nm)
# Columns: gm/id [1/V]  gm/gds [V/V]  id/W [A/m]  ft [Hz]  Cgg/W [F/m]  Cgd/W [F/m]  Cgs/W [F/m]  Vov [V]
#         gm/id          gm/gds            id/W              ft           Cgg/W           Cgd/W           Cgs/W             Vov
    2.319673e+00    7.950738e+00    3.786605e+00    4.578378e+07    3.053411e-08    2.231476e-09    2.839393e-08   -2.861709e+00
    2.343938e+00    8.323551e+00    3.742714e+00    4.580973e+07    3.047862e-08    2.160670e-09    2.839349e-08   -2.856709e+00
    2.368406e+00    8.721040e+00    3.698880e+00    4.582798e+07    3.042397e-08    2.091455e-09    2.839241e-08   -2.851709e+00
    2.393068e+00    9.144926e+00    3.655111e+00    4.583829e+07    3.037018e-08    2.023844e-09    2.839070e-08   -2.846709e+00
    2.417919e+00    9.597064e+00    3.611413e+00    4.584047e+07    3.031727e-08    1.957842e-09    2.838837e-08   -2.841709e+00
    2.442950e+00    1.007938e+01    3.567792e+00    4.583428e+07    3.026523e-08    1.893457e-09    2.838541e-08   -2.836709e+00
    2.468156e+00    1.059392e+01    3.524256e+00    4.581958e+07    3.021406e-08    1.830687e-09    2.838183e-08   -2.831709e+00
    2.493530e+00    1.114284e+01    3.480811e+00    4.579618e+07    3.016379e-08    1.769530e-09    2.837764e-08   -2.826709e+00
    2.519065e+00    1.172839e+01    3.437464e+00    4.576395e+07    3.011440e-08    1.709984e-09    2.837284e-08   -2.821709e+00
    2.544759e+00    1.235293e+01    3.394221e+00    4.572281e+07    3.006588e-08    1.652040e-09    2.836745e-08   -2.816709e+00
    2.570606e+00    1.301891e+01    3.351091e+00    4.567268e+07    3.001825e-08    1.595689e-09    2.836146e-08   -2.811709e+00
    2.596603e+00    1.372890e+01    3.308080e+00    4.561349e+07    2.997149e-08    1.540918e-09    2.835488e-08   -2.806709e+00
    2.622748e+00    1.448557e+01    3.265195e+00    4.554524e+07    2.992561e-08    1.487714e-09    2.834772e-08   -2.801709e+00
    2.649040e+00    1.529167e+01    3.222444e+00    4.546793e+07    2.988058e-08    1.436058e-09    2.833999e-08   -2.796709e+00
    2.675479e+00    1.615005e+01    3.179834e+00    4.538160e+07    2.983640e-08    1.385933e-09    2.833170e-08   -2.791709e+00
    2.702066e+00    1.706362e+01    3.137371e+00    4.528632e+07    2.979305e-08    1.337318e-09    2.832286e-08   -2.786709e+00
    2.728803e+00    1.803539e+01    3.095063e+00    4.518216e+07    2.975053e-08    1.290191e-09    2.831346e-08   -2.781709e+00
    2.755693e+00    1.906845e+01    3.052915e+00    4.506923e+07    2.970882e-08    1.244527e-09    2.830353e-08   -2.776709e+00
    2.782741e+00    2.016595e+01    3.010935e+00    4.494770e+07    2.966791e-08    1.200302e-09    2.829306e-08   -2.771709e+00
    2.809954e+00    2.133110e+01    2.969131e+00    4.481770e+07    2.962778e-08    1.157489e-09    2.828207e-08   -2.766709e+00
    2.837336e+00    2.256714e+01    2.927507e+00    4.467940e+07    2.958840e-08    1.116060e-09    2.827056e-08   -2.761709e+00
    2.864898e+00    2.387740e+01    2.886070e+00    4.453301e+07    2.954977e-08    1.075987e-09    2.825854e-08   -2.756709e+00
    2.892648e+00    2.526522e+01    2.844826e+00    4.437874e+07    2.951185e-08    1.037240e-09    2.824602e-08   -2.751709e+00
    2.920596e+00    2.673397e+01    2.803781e+00    4.421678e+07    2.947464e-08    9.997895e-10    2.823300e-08   -2.746709e+00
    2.948752e+00    2.828705e+01    2.762941e+00    4.404737e+07    2.943810e-08    9.636040e-10    2.821949e-08   -2.741709e+00
    2.977127e+00    2.992787e+01    2.722311e+00    4.387074e+07    2.940223e-08    9.286530e-10    2.820550e-08   -2.736709e+00
    3.005738e+00    3.165987e+01    2.681895e+00    4.368714e+07    2.936699e-08    8.949050e-10    2.819104e-08   -2.731709e+00
    3.034594e+00    3.348648e+01    2.641701e+00    4.349679e+07    2.933237e-08    8.623280e-10    2.817611e-08   -2.726709e+00
    3.063709e+00    3.541112e+01    2.601732e+00    4.329994e+07    2.929834e-08    8.308900e-10    2.816071e-08   -2.721709e+00
    3.093100e+00    3.743724e+01    2.561993e+00    4.309685e+07    2.926486e-08    8.005600e-10    2.814484e-08   -2.716709e+00
    3.122781e+00    3.956825e+01    2.522489e+00    4.288776e+07    2.923193e-08    7.713055e-10    2.812852e-08   -2.711709e+00
    3.152768e+00    4.180754e+01    2.483223e+00    4.267289e+07    2.919952e-08    7.430950e-10    2.811175e-08   -2.706709e+00
    3.183077e+00    4.415852e+01    2.444200e+00    4.245249e+07    2.916761e-08    7.158980e-10    2.809452e-08   -2.701709e+00
    3.213721e+00    4.662450e+01    2.405423e+00    4.222675e+07    2.913616e-08    6.896825e-10    2.807685e-08   -2.696709e+00
    3.244722e+00    4.920885e+01    2.366897e+00    4.199594e+07    2.910515e-08    6.644180e-10    2.805873e-08   -2.691709e+00
    3.276096e+00    5.191493e+01    2.328625e+00    4.176026e+07    2.907456e-08    6.400745e-10    2.804016e-08   -2.686709e+00
    3.307858e+00    5.474595e+01    2.290611e+00    4.151991e+07    2.904436e-08    6.166220e-10    2.802115e-08   -2.681709e+00
    3.340027e+00    5.770520e+01    2.252856e+00    4.127508e+07    2.901453e-08    5.940310e-10    2.800170e-08   -2.676709e+00
    3.372624e+00    6.079601e+01    2.215366e+00    4.102601e+07    2.898505e-08    5.722735e-10    2.798181e-08   -2.671709e+00
    3.405663e+00    6.402148e+01    2.178141e+00    4.077284e+07    2.895589e-08    5.513205e-10    2.796147e-08   -2.666709e+00
    3.439166e+00    6.738486e+01    2.141186e+00    4.051576e+07    2.892702e-08    5.311450e-10    2.794068e-08   -2.661709e+00
    3.473153e+00    7.088939e+01    2.104503e+00    4.025497e+07    2.889841e-08    5.117195e-10    2.791945e-08   -2.656709e+00
    3.507640e+00    7.453810e+01    2.068095e+00    3.999059e+07    2.887006e-08    4.930185e-10    2.789776e-08   -2.651709e+00
    3.542649e+00    7.833425e+01    2.031963e+00    3.972279e+07    2.884192e-08    4.750157e-10    2.787562e-08   -2.646709e+00
    3.578200e+00    8.228095e+01    1.996110e+00    3.945172e+07    2.881398e-08    4.576864e-10    2.785301e-08   -2.641709e+00
    3.614313e+00    8.638129e+01    1.960539e+00    3.917752e+07    2.878620e-08    4.410062e-10    2.782996e-08   -2.636709e+00
    3.651011e+00    9.063843e+01    1.925251e+00    3.890032e+07    2.875857e-08    4.249515e-10    2.780642e-08   -2.631709e+00
    3.688312e+00    9.505554e+01    1.890248e+00    3.862025e+07    2.873106e-08    4.094997e-10    2.778242e-08   -2.626709e+00
    3.726242e+00    9.963571e+01    1.855533e+00    3.833742e+07    2.870364e-08    3.946283e-10    2.775793e-08   -2.621709e+00
    3.764823e+00    1.043823e+02    1.821107e+00    3.805196e+07    2.867630e-08    3.803158e-10    2.773294e-08   -2.616709e+00
    3.804075e+00    1.092981e+02    1.786972e+00    3.776395e+07    2.864900e-08    3.665414e-10    2.770747e-08   -2.611709e+00
    3.844025e+00    1.143867e+02    1.753130e+00    3.747354e+07    2.862172e-08    3.532849e-10    2.768149e-08   -2.606709e+00
    3.884694e+00    1.196511e+02    1.719582e+00    3.718076e+07    2.859444e-08    3.405268e-10    2.765499e-08   -2.601709e+00
    3.926109e+00    1.250946e+02    1.686330e+00    3.688573e+07    2.856714e-08    3.282482e-10    2.762796e-08   -2.596709e+00
    3.968298e+00    1.307208e+02    1.653375e+00    3.658855e+07    2.853978e-08    3.164310e-10    2.760039e-08   -2.591709e+00
    4.011283e+00    1.365328e+02    1.620720e+00    3.628929e+07    2.851234e-08    3.050574e-10    2.757228e-08   -2.586709e+00
    4.055094e+00    1.425341e+02    1.588364e+00    3.598802e+07    2.848480e-08    2.941105e-10    2.754360e-08   -2.581709e+00
    4.099757e+00    1.487283e+02    1.556311e+00    3.568481e+07    2.845713e-08    2.835740e-10    2.751434e-08   -2.576709e+00
    4.145302e+00    1.551189e+02    1.524560e+00    3.537971e+07    2.842932e-08    2.734320e-10    2.748449e-08   -2.571709e+00
    4.191759e+00    1.617095e+02    1.493113e+00    3.507282e+07    2.840132e-08    2.636694e-10    2.745404e-08   -2.566709e+00
    4.239161e+00    1.685042e+02    1.461972e+00    3.476419e+07    2.837312e-08    2.542714e-10    2.742297e-08   -2.561709e+00
    4.287536e+00    1.755064e+02    1.431138e+00    3.445384e+07    2.834469e-08    2.452241e-10    2.739125e-08   -2.556709e+00
    4.336915e+00    1.827202e+02    1.400612e+00    3.414184e+07    2.831601e-08    2.365137e-10    2.735889e-08   -2.551709e+00
    4.387337e+00    1.901498e+02    1.370395e+00    3.382824e+07    2.828704e-08    2.281273e-10    2.732584e-08   -2.546709e+00
    4.438837e+00    1.977993e+02    1.340488e+00    3.351310e+07    2.825777e-08    2.200522e-10    2.729210e-08   -2.541709e+00
    4.491452e+00    2.056732e+02    1.310893e+00    3.319646e+07    2.822816e-08    2.122763e-10    2.725764e-08   -2.536709e+00
    4.545213e+00    2.137756e+02    1.281611e+00    3.287830e+07    2.819819e-08    2.047881e-10    2.722245e-08   -2.531709e+00
    4.600169e+00    2.221114e+02    1.252642e+00    3.255873e+07    2.816783e-08    1.975764e-10    2.718650e-08   -2.526709e+00
    4.656355e+00    2.306851e+02    1.223988e+00    3.223774e+07    2.813705e-08    1.906304e-10    2.714975e-08   -2.521709e+00
    4.713812e+00    2.395017e+02    1.195649e+00    3.191536e+07    2.810583e-08    1.839397e-10    2.711222e-08   -2.516709e+00
    4.772590e+00    2.485664e+02    1.167627e+00    3.159164e+07    2.807413e-08    1.774946e-10    2.707384e-08   -2.511709e+00
    4.832728e+00    2.578844e+02    1.139924e+00    3.126658e+07    2.804192e-08    1.712854e-10    2.703461e-08   -2.506709e+00
    4.894282e+00    2.674611e+02    1.112538e+00    3.094023e+07    2.800918e-08    1.653030e-10    2.699449e-08   -2.501709e+00
    4.957291e+00    2.773020e+02    1.085473e+00    3.061257e+07    2.797588e-08    1.595386e-10    2.695344e-08   -2.496709e+00
    5.021807e+00    2.874126e+02    1.058728e+00    3.028361e+07    2.794198e-08    1.539838e-10    2.691147e-08   -2.491709e+00
    5.087891e+00    2.977996e+02    1.032306e+00    2.995342e+07    2.790744e-08    1.486305e-10    2.686851e-08   -2.486709e+00
    5.155594e+00    3.084688e+02    1.006206e+00    2.962196e+07    2.787225e-08    1.434709e-10    2.682454e-08   -2.481709e+00
    5.224970e+00    3.194264e+02    9.804305e-01    2.928925e+07    2.783636e-08    1.384976e-10    2.677953e-08   -2.476709e+00
    5.296082e+00    3.306793e+02    9.549795e-01    2.895530e+07    2.779975e-08    1.337033e-10    2.673345e-08   -2.471709e+00
    5.368994e+00    3.422341e+02    9.298540e-01    2.862011e+07    2.776237e-08    1.290812e-10    2.668625e-08   -2.466709e+00
    5.443763e+00    3.540980e+02    9.050560e-01    2.828369e+07    2.772419e-08    1.246248e-10    2.663790e-08   -2.461709e+00
    5.520463e+00    3.662781e+02    8.805855e-01    2.794601e+07    2.768518e-08    1.203277e-10    2.658837e-08   -2.456709e+00
    5.599158e+00    3.787819e+02    8.564440e-01    2.760709e+07    2.764529e-08    1.161837e-10    2.653761e-08   -2.451709e+00
    5.679926e+00    3.916172e+02    8.326320e-01    2.726692e+07    2.760449e-08    1.121870e-10    2.648558e-08   -2.446709e+00
    5.762834e+00    4.047916e+02    8.091515e-01    2.692548e+07    2.756275e-08    1.083322e-10    2.643225e-08   -2.441709e+00
    5.847965e+00    4.183132e+02    7.860025e-01    2.658276e+07    2.752002e-08    1.046138e-10    2.637755e-08   -2.436709e+00
    5.935400e+00    4.321907e+02    7.631865e-01    2.623875e+07    2.747626e-08    1.010265e-10    2.632146e-08   -2.431709e+00
    6.025219e+00    4.464320e+02    7.407045e-01    2.589343e+07    2.743142e-08    9.756550e-11    2.626391e-08   -2.426709e+00
    6.117511e+00    4.610460e+02    7.185575e-01    2.554677e+07    2.738548e-08    9.422610e-11    2.620488e-08   -2.421709e+00
    6.212362e+00    4.760414e+02    6.967470e-01    2.519876e+07    2.733839e-08    9.100360e-11    2.614430e-08   -2.416709e+00
    6.309868e+00    4.914271e+02    6.752735e-01    2.484936e+07    2.729008e-08    8.789370e-11    2.608213e-08   -2.411709e+00
    6.410123e+00    5.072125e+02    6.541385e-01    2.449856e+07    2.724054e-08    8.489220e-11    2.601831e-08   -2.406709e+00
    6.513225e+00    5.234059e+02    6.333430e-01    2.414631e+07    2.718970e-08    8.199505e-11    2.595278e-08   -2.401709e+00
    6.619279e+00    5.400172e+02    6.128880e-01    2.379260e+07    2.713752e-08    7.919840e-11    2.588550e-08   -2.396709e+00
    6.728391e+00    5.570549e+02    5.927745e-01    2.343737e+07    2.708395e-08    7.649850e-11    2.581641e-08   -2.391709e+00
    6.840665e+00    5.745288e+02    5.730040e-01    2.308060e+07    2.702894e-08    7.389180e-11    2.574545e-08   -2.386709e+00
    6.956216e+00    5.924474e+02    5.535775e-01    2.272225e+07    2.697245e-08    7.137490e-11    2.567255e-08   -2.381709e+00
    7.075152e+00    6.108199e+02    5.344965e-01    2.236227e+07    2.691441e-08    6.894445e-11    2.559766e-08   -2.376709e+00
    7.197599e+00    6.296540e+02    5.157615e-01    2.200063e+07    2.685479e-08    6.659735e-11    2.552071e-08   -2.371709e+00
    7.323668e+00    6.489592e+02    4.973744e-01    2.163727e+07    2.679352e-08    6.433050e-11    2.544165e-08   -2.366709e+00
    7.453485e+00    6.687425e+02    4.793360e-01    2.127217e+07    2.673055e-08    6.214105e-11    2.536041e-08   -2.361709e+00
    7.587171e+00    6.890113e+02    4.616476e-01    2.090526e+07    2.666582e-08    6.002620e-11    2.527691e-08   -2.356709e+00
    7.724854e+00    7.097730e+02    4.443104e-01    2.053652e+07    2.659929e-08    5.798325e-11    2.519109e-08   -2.351709e+00
    7.866657e+00    7.310326e+02    4.273257e-01    2.016590e+07    2.653089e-08    5.600955e-11    2.510288e-08   -2.346709e+00
    8.012707e+00    7.527953e+02    4.106946e-01    1.979335e+07    2.646056e-08    5.410270e-11    2.501222e-08   -2.341709e+00
    8.163130e+00    7.750649e+02    3.944183e-01    1.941884e+07    2.638826e-08    5.226030e-11    2.491902e-08   -2.336709e+00
    8.318051e+00    7.978438e+02    3.784980e-01    1.904233e+07    2.631391e-08    5.048005e-11    2.482322e-08   -2.331709e+00
    8.477592e+00    8.211334e+02    3.629350e-01    1.866379e+07    2.623746e-08    4.875976e-11    2.472474e-08   -2.326709e+00
    8.641876e+00    8.449325e+02    3.477303e-01    1.828320e+07    2.615884e-08    4.709729e-11    2.462353e-08   -2.321709e+00
    8.811014e+00    8.692382e+02    3.328850e-01    1.790052e+07    2.607801e-08    4.549061e-11    2.451947e-08   -2.316709e+00
    8.985121e+00    8.940460e+02    3.184001e-01    1.751576e+07    2.599490e-08    4.393777e-11    2.441253e-08   -2.311709e+00
    9.164297e+00    9.193476e+02    3.042766e-01    1.712891e+07    2.590946e-08    4.243690e-11    2.430260e-08   -2.306709e+00
    9.348639e+00    9.451331e+02    2.905156e-01    1.673997e+07    2.582160e-08    4.098617e-11    2.418963e-08   -2.301709e+00
    9.538227e+00    9.713881e+02    2.771176e-01    1.634897e+07    2.573129e-08    3.958385e-11    2.407353e-08   -2.296709e+00
    9.733136e+00    9.980957e+02    2.640837e-01    1.595595e+07    2.563845e-08    3.822827e-11    2.395423e-08   -2.291709e+00
    9.933415e+00    1.025234e+03    2.514142e-01    1.556095e+07    2.554303e-08    3.691783e-11    2.383164e-08   -2.286709e+00
    1.013910e+01    1.052778e+03    2.391098e-01    1.516405e+07    2.544497e-08    3.565095e-11    2.370571e-08   -2.281709e+00
    1.035022e+01    1.080696e+03    2.271707e-01    1.476534e+07    2.534421e-08    3.442617e-11    2.357634e-08   -2.276709e+00
    1.056676e+01    1.108953e+03    2.155972e-01    1.436493e+07    2.524069e-08    3.324204e-11    2.344348e-08   -2.271709e+00
    1.078867e+01    1.137507e+03    2.043890e-01    1.396297e+07    2.513436e-08    3.209719e-11    2.330704e-08   -2.266709e+00
    1.101591e+01    1.166310e+03    1.935462e-01    1.355963e+07    2.502517e-08    3.099028e-11    2.316695e-08   -2.261709e+00
    1.124836e+01    1.195310e+03    1.830680e-01    1.315511e+07    2.491306e-08    2.992003e-11    2.302315e-08   -2.256709e+00
    1.148588e+01    1.224445e+03    1.729537e-01    1.274965e+07    2.479797e-08    2.888523e-11    2.287558e-08   -2.251709e+00
    1.172830e+01    1.253648e+03    1.632023e-01    1.234351e+07    2.467986e-08    2.788467e-11    2.272416e-08   -2.246709e+00
    1.197537e+01    1.282844e+03    1.538124e-01    1.193700e+07    2.455869e-08    2.691721e-11    2.256883e-08   -2.241709e+00
    1.222684e+01    1.311951e+03    1.447820e-01    1.153048e+07    2.443440e-08    2.598176e-11    2.240954e-08   -2.236709e+00
    1.248236e+01    1.340878e+03    1.361093e-01    1.112432e+07    2.430697e-08    2.507725e-11    2.224623e-08   -2.231709e+00
    1.274153e+01    1.369531e+03    1.277915e-01    1.071896e+07    2.417634e-08    2.420266e-11    2.207886e-08   -2.226709e+00
    1.300389e+01    1.397803e+03    1.198256e-01    1.031487e+07    2.404249e-08    2.335700e-11    2.190736e-08   -2.221709e+00
    1.326895e+01    1.425586e+03    1.122083e-01    9.912555e+06    2.390539e-08    2.253933e-11    2.173172e-08   -2.216709e+00
    1.353611e+01    1.452763e+03    1.049354e-01    9.512567e+06    2.376502e-08    2.174873e-11    2.155187e-08   -2.211709e+00
    1.380472e+01    1.479212e+03    9.800250e-02    9.115499e+06    2.362134e-08    2.098430e-11    2.136780e-08   -2.206709e+00
    1.407407e+01    1.504808e+03    9.140460e-02    8.721965e+06    2.347434e-08    2.024522e-11    2.117948e-08   -2.201709e+00
    1.434336e+01    1.529423e+03    8.513620e-02    8.332625e+06    2.332403e-08    1.953065e-11    2.098689e-08   -2.196709e+00
    1.461177e+01    1.552926e+03    7.919110e-02    7.948150e+06    2.317039e-08    1.883979e-11    2.079002e-08   -2.191709e+00
    1.487838e+01    1.575191e+03    7.356265e-02    7.569238e+06    2.301341e-08    1.817189e-11    2.058886e-08   -2.186709e+00
    1.514224e+01    1.596089e+03    6.824365e-02    7.196599e+06    2.285311e-08    1.752620e-11    2.038342e-08   -2.181709e+00
    1.540236e+01    1.615499e+03    6.322635e-02    6.830940e+06    2.268951e-08    1.690201e-11    2.017370e-08   -2.176709e+00
    1.565770e+01    1.633307e+03    5.850245e-02    6.472969e+06    2.252261e-08    1.629863e-11    1.995973e-08   -2.171709e+00
    1.590721e+01    1.649403e+03    5.406320e-02    6.123370e+06    2.235246e-08    1.571540e-11    1.974154e-08   -2.166709e+00
    1.614982e+01    1.663697e+03    4.989938e-02    5.782816e+06    2.217909e-08    1.515167e-11    1.951915e-08   -2.161709e+00
    1.638450e+01    1.676106e+03    4.600128e-02    5.451935e+06    2.200253e-08    1.460682e-11    1.929262e-08   -2.156709e+00
    1.661022e+01    1.686565e+03    4.235890e-02    5.131316e+06    2.182285e-08    1.408025e-11    1.906202e-08   -2.151709e+00
    1.682597e+01    1.695026e+03    3.896187e-02    4.821488e+06    2.164009e-08    1.357139e-11    1.882739e-08   -2.146709e+00
    1.703084e+01    1.701460e+03    3.579960e-02    4.522926e+06    2.145434e-08    1.307967e-11    1.858882e-08   -2.141709e+00
    1.722398e+01    1.705859e+03    3.286127e-02    4.236033e+06    2.126566e-08    1.260454e-11    1.834641e-08   -2.136709e+00
    1.740465e+01    1.708236e+03    3.013592e-02    3.961139e+06    2.107413e-08    1.214549e-11    1.810023e-08   -2.131709e+00
    1.757217e+01    1.708624e+03    2.761255e-02    3.698488e+06    2.087987e-08    1.170200e-11    1.785042e-08   -2.126709e+00
    1.772605e+01    1.707079e+03    2.528013e-02    3.448253e+06    2.068295e-08    1.127358e-11    1.759707e-08   -2.121709e+00
    1.786591e+01    1.703674e+03    2.312775e-02    3.210512e+06    2.048351e-08    1.085975e-11    1.734034e-08   -2.116709e+00
    1.799152e+01    1.698505e+03    2.114458e-02    2.985270e+06    2.028165e-08    1.046007e-11    1.708036e-08   -2.111709e+00
    1.810278e+01    1.691681e+03    1.932002e-02    2.772447e+06    2.007751e-08    1.007407e-11    1.681727e-08   -2.106709e+00
