# sky130 pfet_01v8 gm/ID Processed Lookup Table
# Corner: tt
# Temperature: 0C
# W = 2.0 um
# L = 1.62 um (1620 nm)
# Columns: gm/id [1/V]  gm/gds [V/V]  id/W [A/m]  ft [Hz]  Cgg/W [F/m]  Cgd/W [F/m]  Cgs/W [F/m]  Vov [V]
#         gm/id          gm/gds            id/W              ft           Cgg/W           Cgd/W           Cgs/W             Vov
    2.190592e+00    5.565958e+00    1.207907e+01    4.242160e+08    9.927235e-09    6.298405e-10    9.159150e-09   -2.849007e+00
    2.214142e+00    5.775991e+00    1.194679e+01    4.247324e+08    9.912005e-09    6.099890e-10    9.159000e-09   -2.844007e+00
    2.237954e+00    5.997757e+00    1.181456e+01    4.251911e+08    9.897025e-09    5.906150e-10    9.158655e-09   -2.839007e+00
    2.262024e+00    6.231957e+00    1.168239e+01    4.255897e+08    9.882300e-09    5.717180e-10    9.158120e-09   -2.834007e+00
    2.286346e+00    6.479324e+00    1.155031e+01    4.259260e+08    9.867825e-09    5.532965e-10    9.157395e-09   -2.829007e+00
    2.310915e+00    6.740622e+00    1.141831e+01    4.261976e+08    9.853605e-09    5.353485e-10    9.156480e-09   -2.824007e+00
    2.335725e+00    7.016644e+00    1.128645e+01    4.264027e+08    9.839635e-09    5.178715e-10    9.155385e-09   -2.819007e+00
    2.360770e+00    7.308210e+00    1.115471e+01    4.265391e+08    9.825915e-09    5.008620e-10    9.154100e-09   -2.814007e+00
    2.386044e+00    7.616167e+00    1.102312e+01    4.266048e+08    9.812445e-09    4.843165e-10    9.152640e-09   -2.809007e+00
    2.411542e+00    7.941385e+00    1.089170e+01    4.265980e+08    9.799220e-09    4.682299e-10    9.150995e-09   -2.804007e+00
    2.437257e+00    8.284759e+00    1.076046e+01    4.265169e+08    9.786245e-09    4.525972e-10    9.149175e-09   -2.799007e+00
    2.463183e+00    8.647194e+00    1.062944e+01    4.263605e+08    9.773505e-09    4.374129e-10    9.147185e-09   -2.794007e+00
    2.489317e+00    9.029616e+00    1.049864e+01    4.261270e+08    9.761005e-09    4.226706e-10    9.145020e-09   -2.789007e+00
    2.515652e+00    9.432961e+00    1.036810e+01    4.258152e+08    9.748745e-09    4.083641e-10    9.142685e-09   -2.784007e+00
    2.542184e+00    9.858171e+00    1.023783e+01    4.254247e+08    9.736710e-09    3.944862e-10    9.140190e-09   -2.779007e+00
    2.568912e+00    1.030620e+01    1.010785e+01    4.249548e+08    9.724900e-09    3.810295e-10    9.137525e-09   -2.774007e+00
    2.595830e+00    1.077797e+01    9.978175e+00    4.244045e+08    9.713315e-09    3.679865e-10    9.134700e-09   -2.769007e+00
    2.622939e+00    1.127444e+01    9.848835e+00    4.237739e+08    9.701950e-09    3.553492e-10    9.131720e-09   -2.764007e+00
    2.650236e+00    1.179652e+01    9.719850e+00    4.230629e+08    9.690795e-09    3.431096e-10    9.128580e-09   -2.759007e+00
    2.677722e+00    1.234514e+01    9.591245e+00    4.222719e+08    9.679845e-09    3.312590e-10    9.125290e-09   -2.754007e+00
    2.705399e+00    1.292119e+01    9.463030e+00    4.214011e+08    9.669100e-09    3.197890e-10    9.121850e-09   -2.749007e+00
    2.733268e+00    1.352553e+01    9.335235e+00    4.204514e+08    9.658545e-09    3.086910e-10    9.118255e-09   -2.744007e+00
    2.761331e+00    1.415902e+01    9.207880e+00    4.194234e+08    9.648185e-09    2.979560e-10    9.114520e-09   -2.739007e+00
    2.789593e+00    1.482247e+01    9.080985e+00    4.183183e+08    9.638005e-09    2.875751e-10    9.110635e-09   -2.734007e+00
    2.818062e+00    1.551667e+01    8.954565e+00    4.171372e+08    9.628005e-09    2.775394e-10    9.106610e-09   -2.729007e+00
    2.846741e+00    1.624237e+01    8.828645e+00    4.158812e+08    9.618180e-09    2.678400e-10    9.102445e-09   -2.724007e+00
    2.875639e+00    1.700030e+01    8.703245e+00    4.145525e+08    9.608515e-09    2.584677e-10    9.098145e-09   -2.719007e+00
    2.904765e+00    1.779111e+01    8.578380e+00    4.131519e+08    9.599015e-09    2.494138e-10    9.093700e-09   -2.714007e+00
    2.934129e+00    1.861548e+01    8.454065e+00    4.116817e+08    9.589665e-09    2.406691e-10    9.089125e-09   -2.709007e+00
    2.963739e+00    1.947401e+01    8.330330e+00    4.101435e+08    9.580460e-09    2.322249e-10    9.084415e-09   -2.704007e+00
    2.993606e+00    2.036726e+01    8.207185e+00    4.085392e+08    9.571395e-09    2.240723e-10    9.079575e-09   -2.699007e+00
    3.023744e+00    2.129578e+01    8.084645e+00    4.068706e+08    9.562465e-09    2.162027e-10    9.074600e-09   -2.694007e+00
    3.054166e+00    2.226010e+01    7.962730e+00    4.051399e+08    9.553660e-09    2.086075e-10    9.069495e-09   -2.689007e+00
    3.084884e+00    2.326067e+01    7.841455e+00    4.033489e+08    9.544975e-09    2.012782e-10    9.064260e-09   -2.684007e+00
    3.115912e+00    2.429796e+01    7.720835e+00    4.014994e+08    9.536405e-09    1.942065e-10    9.058895e-09   -2.679007e+00
    3.147266e+00    2.537238e+01    7.600885e+00    3.995938e+08    9.527940e-09    1.873842e-10    9.053405e-09   -2.674007e+00
    3.178961e+00    2.648439e+01    7.481620e+00    3.976337e+08    9.519580e-09    1.808033e-10    9.047785e-09   -2.669007e+00
    3.211013e+00    2.763432e+01    7.363050e+00    3.956213e+08    9.511310e-09    1.744558e-10    9.042035e-09   -2.664007e+00
    3.243437e+00    2.882261e+01    7.245195e+00    3.935584e+08    9.503125e-09    1.683342e-10    9.036160e-09   -2.659007e+00
    3.276249e+00    3.004958e+01    7.128065e+00    3.914466e+08    9.495025e-09    1.624308e-10    9.030160e-09   -2.654007e+00
    3.309472e+00    3.131563e+01    7.011665e+00    3.892883e+08    9.486995e-09    1.567383e-10    9.024025e-09   -2.649007e+00
    3.343116e+00    3.262108e+01    6.896020e+00    3.870847e+08    9.479035e-09    1.512495e-10    9.017765e-09   -2.644007e+00
    3.377206e+00    3.396635e+01    6.781130e+00    3.848378e+08    9.471135e-09    1.459575e-10    9.011375e-09   -2.639007e+00
    3.411757e+00    3.535177e+01    6.667010e+00    3.825490e+08    9.463290e-09    1.408554e-10    9.004850e-09   -2.634007e+00
    3.446789e+00    3.677772e+01    6.553670e+00    3.802201e+08    9.455495e-09    1.359367e-10    8.998200e-09   -2.629007e+00
    3.482321e+00    3.824462e+01    6.441120e+00    3.778526e+08    9.447740e-09    1.311948e-10    8.991415e-09   -2.624007e+00
    3.518375e+00    3.975290e+01    6.329370e+00    3.754481e+08    9.440020e-09    1.266236e-10    8.984495e-09   -2.619007e+00
    3.554966e+00    4.130290e+01    6.218435e+00    3.730076e+08    9.432330e-09    1.222168e-10    8.977440e-09   -2.614007e+00
    3.592124e+00    4.289518e+01    6.108310e+00    3.705329e+08    9.424660e-09    1.179689e-10    8.970245e-09   -2.609007e+00
    3.629860e+00    4.453015e+01    5.999020e+00    3.680251e+08    9.417005e-09    1.138738e-10    8.962915e-09   -2.604007e+00
    3.668203e+00    4.620833e+01    5.890560e+00    3.654854e+08    9.409360e-09    1.099263e-10    8.955440e-09   -2.599007e+00
    3.707173e+00    4.793028e+01    5.782945e+00    3.629151e+08    9.401715e-09    1.061208e-10    8.947820e-09   -2.594007e+00
    3.746798e+00    4.969657e+01    5.676175e+00    3.603150e+08    9.394070e-09    1.024522e-10    8.940055e-09   -2.589007e+00
    3.787092e+00    5.150781e+01    5.570270e+00    3.576866e+08    9.386410e-09    9.891570e-11    8.932140e-09   -2.584007e+00
    3.828085e+00    5.336465e+01    5.465230e+00    3.550305e+08    9.378740e-09    9.550625e-11    8.924070e-09   -2.579007e+00
    3.869802e+00    5.526778e+01    5.361060e+00    3.523479e+08    9.371040e-09    9.221925e-11    8.915850e-09   -2.574007e+00
    3.912268e+00    5.721798e+01    5.257770e+00    3.496398e+08    9.363310e-09    8.905015e-11    8.907465e-09   -2.569007e+00
    3.955509e+00    5.921599e+01    5.155365e+00    3.469069e+08    9.355545e-09    8.599465e-11    8.898915e-09   -2.564007e+00
    3.999555e+00    6.126268e+01    5.053850e+00    3.441500e+08    9.347735e-09    8.304855e-11    8.890200e-09   -2.559007e+00
    4.044430e+00    6.335892e+01    4.953234e+00    3.413699e+08    9.339875e-09    8.020780e-11    8.881315e-09   -2.554007e+00
    4.090164e+00    6.550567e+01    4.853522e+00    3.385674e+08    9.331955e-09    7.746845e-11    8.872255e-09   -2.549007e+00
    4.136787e+00    6.770393e+01    4.754719e+00    3.357431e+08    9.323975e-09    7.482675e-11    8.863010e-09   -2.544007e+00
    4.184331e+00    6.995473e+01    4.656831e+00    3.328977e+08    9.315920e-09    7.227910e-11    8.853580e-09   -2.539007e+00
    4.232826e+00    7.225923e+01    4.559863e+00    3.300319e+08    9.307785e-09    6.982200e-11    8.843960e-09   -2.534007e+00
    4.282307e+00    7.461860e+01    4.463821e+00    3.271463e+08    9.299565e-09    6.745205e-11    8.834145e-09   -2.529007e+00
    4.332805e+00    7.703407e+01    4.368710e+00    3.242413e+08    9.291250e-09    6.516605e-11    8.824130e-09   -2.524007e+00
    4.384358e+00    7.950696e+01    4.274535e+00    3.213173e+08    9.282840e-09    6.296080e-11    8.813900e-09   -2.519007e+00
    4.437002e+00    8.203868e+01    4.181301e+00    3.183753e+08    9.274315e-09    6.083340e-11    8.803460e-09   -2.514007e+00
    4.490774e+00    8.463066e+01    4.089012e+00    3.154152e+08    9.265675e-09    5.878085e-11    8.792795e-09   -2.509007e+00
    4.545713e+00    8.728442e+01    3.997674e+00    3.124378e+08    9.256910e-09    5.680045e-11    8.781905e-09   -2.504007e+00
    4.601862e+00    9.000164e+01    3.907291e+00    3.094432e+08    9.248015e-09    5.488950e-11    8.770780e-09   -2.499007e+00
    4.659261e+00    9.278389e+01    3.817867e+00    3.064321e+08    9.238975e-09    5.304540e-11    8.759410e-09   -2.494007e+00
    4.717955e+00    9.563307e+01    3.729408e+00    3.034045e+08    9.229790e-09    5.126565e-11    8.747790e-09   -2.489007e+00
    4.777989e+00    9.855093e+01    3.641918e+00    3.003609e+08    9.220445e-09    4.954793e-11    8.735910e-09   -2.484007e+00
    4.839410e+00    1.015395e+02    3.555399e+00    2.973016e+08    9.210935e-09    4.788990e-11    8.723765e-09   -2.479007e+00
    4.902268e+00    1.046008e+02    3.469858e+00    2.942267e+08    9.201250e-09    4.628936e-11    8.711340e-09   -2.474007e+00
    4.966613e+00    1.077368e+02    3.385299e+00    2.911367e+08    9.191375e-09    4.474419e-11    8.698630e-09   -2.469007e+00
    5.032501e+00    1.109501e+02    3.301725e+00    2.880317e+08    9.181310e-09    4.325236e-11    8.685625e-09   -2.464007e+00
    5.099983e+00    1.142426e+02    3.219141e+00    2.849117e+08    9.171040e-09    4.181190e-11    8.672315e-09   -2.459007e+00
    5.169122e+00    1.176171e+02    3.137551e+00    2.817770e+08    9.160560e-09    4.042091e-11    8.658685e-09   -2.454007e+00
    5.239971e+00    1.210759e+02    3.056958e+00    2.786279e+08    9.149850e-09    3.907760e-11    8.644730e-09   -2.449007e+00
    5.312596e+00    1.246217e+02    2.977369e+00    2.754641e+08    9.138910e-09    3.778021e-11    8.630440e-09   -2.444007e+00
    5.387061e+00    1.282573e+02    2.898785e+00    2.722862e+08    9.127720e-09    3.652708e-11    8.615795e-09   -2.439007e+00
    5.463435e+00    1.319856e+02    2.821211e+00    2.690938e+08    9.116280e-09    3.531658e-11    8.600790e-09   -2.434007e+00
    5.541786e+00    1.358096e+02    2.744651e+00    2.658872e+08    9.104570e-09    3.414717e-11    8.585415e-09   -2.429007e+00
    5.622185e+00    1.397324e+02    2.669109e+00    2.626664e+08    9.092580e-09    3.301736e-11    8.569645e-09   -2.424007e+00
    5.704712e+00    1.437573e+02    2.594590e+00    2.594314e+08    9.080295e-09    3.192572e-11    8.553480e-09   -2.419007e+00
    5.789441e+00    1.478876e+02    2.521097e+00    2.561819e+08    9.067715e-09    3.087086e-11    8.536895e-09   -2.414007e+00
    5.876455e+00    1.521269e+02    2.448634e+00    2.529180e+08    9.054815e-09    2.985148e-11    8.519885e-09   -2.409007e+00
    5.965840e+00    1.564787e+02    2.377205e+00    2.496398e+08    9.041585e-09    2.886628e-11    8.502430e-09   -2.404007e+00
    6.057681e+00    1.609470e+02    2.306815e+00    2.463469e+08    9.028015e-09    2.791405e-11    8.484515e-09   -2.399007e+00
    6.152073e+00    1.655355e+02    2.237467e+00    2.430392e+08    9.014090e-09    2.699362e-11    8.466125e-09   -2.394007e+00
    6.249108e+00    1.702484e+02    2.169166e+00    2.397165e+08    8.999800e-09    2.610384e-11    8.447245e-09   -2.389007e+00
    6.348887e+00    1.750899e+02    2.101915e+00    2.363790e+08    8.985120e-09    2.524364e-11    8.427855e-09   -2.384007e+00
    6.451508e+00    1.800643e+02    2.035719e+00    2.330261e+08    8.970045e-09    2.441196e-11    8.407940e-09   -2.379007e+00
    6.557075e+00    1.851758e+02    1.970582e+00    2.296574e+08    8.954560e-09    2.360779e-11    8.387485e-09   -2.374007e+00
    6.665702e+00    1.904294e+02    1.906508e+00    2.262730e+08    8.938645e-09    2.283019e-11    8.366465e-09   -2.369007e+00
    6.777493e+00    1.958295e+02    1.843501e+00    2.228725e+08    8.922285e-09    2.207820e-11    8.344860e-09   -2.364007e+00
    6.892571e+00    2.013812e+02    1.781566e+00    2.194556e+08    8.905465e-09    2.135093e-11    8.322660e-09   -2.359007e+00
    7.011053e+00    2.070891e+02    1.720707e+00    2.160219e+08    8.888170e-09    2.064753e-11    8.299840e-09   -2.354007e+00
    7.133060e+00    2.129586e+02    1.660928e+00    2.125711e+08    8.870385e-09    1.996716e-11    8.276380e-09   -2.349007e+00
    7.258716e+00    2.189946e+02    1.602233e+00    2.091029e+08    8.852085e-09    1.930902e-11    8.252255e-09   -2.344007e+00
    7.388150e+00    2.252022e+02    1.544628e+00    2.056168e+08    8.833260e-09    1.867235e-11    8.227450e-09   -2.339007e+00
    7.521495e+00    2.315869e+02    1.488115e+00    2.021125e+08    8.813890e-09    1.805641e-11    8.201940e-09   -2.334007e+00
    7.658883e+00    2.381538e+02    1.432700e+00    1.985897e+08    8.793955e-09    1.746050e-11    8.175705e-09   -2.329007e+00
    7.800445e+00    2.449081e+02    1.378388e+00    1.950478e+08    8.773440e-09    1.688391e-11    8.148720e-09   -2.324007e+00
    7.946323e+00    2.518550e+02    1.325182e+00    1.914865e+08    8.752325e-09    1.632600e-11    8.120960e-09   -2.319007e+00
    8.096649e+00    2.589997e+02    1.273086e+00    1.879056e+08    8.730585e-09    1.578613e-11    8.092400e-09   -2.314007e+00
    8.251567e+00    2.663474e+02    1.222106e+00    1.843047e+08    8.708210e-09    1.526371e-11    8.063025e-09   -2.309007e+00
    8.411206e+00    2.739025e+02    1.172245e+00    1.806833e+08    8.685175e-09    1.475812e-11    8.032800e-09   -2.304007e+00
    8.575710e+00    2.816701e+02    1.123507e+00    1.770413e+08    8.661465e-09    1.426881e-11    8.001705e-09   -2.299007e+00
    8.745196e+00    2.896540e+02    1.075897e+00    1.733784e+08    8.637055e-09    1.379524e-11    7.969715e-09   -2.294007e+00
    8.919813e+00    2.978585e+02    1.029419e+00    1.696945e+08    8.611925e-09    1.333687e-11    7.936805e-09   -2.289007e+00
    9.099663e+00    3.062868e+02    9.840765e-01    1.659895e+08    8.586055e-09    1.289321e-11    7.902945e-09   -2.284007e+00
    9.284876e+00    3.149418e+02    9.398725e-01    1.622634e+08    8.559425e-09    1.246377e-11    7.868115e-09   -2.279007e+00
    9.475548e+00    3.238259e+02    8.968115e-01    1.585163e+08    8.532015e-09    1.204808e-11    7.832285e-09   -2.274007e+00
    9.671779e+00    3.329405e+02    8.548960e-01    1.547485e+08    8.503805e-09    1.164568e-11    7.795430e-09   -2.269007e+00
    9.873656e+00    3.422860e+02    8.141285e-01    1.509604e+08    8.474775e-09    1.125614e-11    7.757525e-09   -2.264007e+00
    1.008123e+01    3.518619e+02    7.745125e-01    1.471524e+08    8.444900e-09    1.087906e-11    7.718540e-09   -2.259007e+00
    1.029455e+01    3.616662e+02    7.360490e-01    1.433254e+08    8.414165e-09    1.051400e-11    7.678450e-09   -2.254007e+00
    1.051364e+01    3.716961e+02    6.987400e-01    1.394802e+08    8.382550e-09    1.016059e-11    7.637235e-09   -2.249007e+00
    1.073850e+01    3.819465e+02    6.625860e-01    1.356182e+08    8.350030e-09    9.818445e-12    7.594860e-09   -2.244007e+00
    1.096909e+01    3.924111e+02    6.275880e-01    1.317407e+08    8.316590e-09    9.487215e-12    7.551310e-09   -2.239007e+00
    1.120535e+01    4.030812e+02    5.937450e-01    1.278496e+08    8.282210e-09    9.166540e-12    7.506550e-09   -2.234007e+00
    1.144716e+01    4.139466e+02    5.610565e-01    1.239468e+08    8.246870e-09    8.856085e-12    7.460565e-09   -2.229007e+00
    1.169441e+01    4.249939e+02    5.295190e-01    1.200349e+08    8.210550e-09    8.555530e-12    7.413325e-09   -2.224007e+00
    1.194685e+01    4.362081e+02    4.991309e-01    1.161165e+08    8.173240e-09    8.264550e-12    7.364805e-09   -2.219007e+00
    1.220428e+01    4.475703e+02    4.698872e-01    1.121948e+08    8.134920e-09    7.982855e-12    7.314995e-09   -2.214007e+00
    1.246637e+01    4.590594e+02    4.417826e-01    1.082732e+08    8.095575e-09    7.710140e-12    7.263860e-09   -2.209007e+00
    1.273277e+01    4.706512e+02    4.148105e-01    1.043559e+08    8.055185e-09    7.446130e-12    7.211390e-09   -2.204007e+00
    1.300304e+01    4.823180e+02    3.889629e-01    1.004472e+08    8.013740e-09    7.190550e-12    7.157560e-09   -2.199007e+00
    1.327669e+01    4.940293e+02    3.642301e-01    9.655183e+07    7.971230e-09    6.943140e-12    7.102360e-09   -2.194007e+00
    1.355316e+01    5.057504e+02    3.406012e-01    9.267501e+07    7.927645e-09    6.703640e-12    7.045765e-09   -2.189007e+00
    1.383180e+01    5.174442e+02    3.180634e-01    8.882247e+07    7.882965e-09    6.471810e-12    6.987770e-09   -2.184007e+00
    1.411190e+01    5.290702e+02    2.966022e-01    8.500006e+07    7.837195e-09    6.247410e-12    6.928360e-09   -2.179007e+00
    1.439266e+01    5.405841e+02    2.762015e-01    8.121420e+07    7.790320e-09    6.030210e-12    6.867525e-09   -2.174007e+00
    1.467324e+01    5.519394e+02    2.568431e-01    7.747145e+07    7.742340e-09    5.819990e-12    6.805255e-09   -2.169007e+00
    1.495269e+01    5.630874e+02    2.385073e-01    7.377878e+07    7.693245e-09    5.616535e-12    6.741545e-09   -2.164007e+00
    1.523002e+01    5.739770e+02    2.211723e-01    7.014314e+07    7.643040e-09    5.419640e-12    6.676395e-09   -2.159007e+00
    1.550419e+01    5.845561e+02    2.048146e-01    6.657165e+07    7.591730e-09    5.229100e-12    6.609800e-09   -2.154007e+00
    1.577410e+01    5.947717e+02    1.894087e-01    6.307150e+07    7.539310e-09    5.044725e-12    6.541770e-09   -2.149007e+00
    1.603863e+01    6.045708e+02    1.749278e-01    5.964972e+07    7.485790e-09    4.866323e-12    6.472300e-09   -2.144007e+00
    1.629662e+01    6.139020e+02    1.613429e-01    5.631314e+07    7.431180e-09    4.693719e-12    6.401405e-09   -2.139007e+00
    1.654693e+01    6.227153e+02    1.486240e-01    5.306840e+07    7.375485e-09    4.526733e-12    6.329095e-09   -2.134007e+00
    1.678843e+01    6.309636e+02    1.367395e-01    4.992161e+07    7.318725e-09    4.365197e-12    6.255385e-09   -2.129007e+00
    1.702001e+01    6.386038e+02    1.256565e-01    4.687850e+07    7.260910e-09    4.208944e-12    6.180295e-09   -2.124007e+00
    1.724062e+01    6.455976e+02    1.153413e-01    4.394411e+07    7.202065e-09    4.057818e-12    6.103840e-09   -2.119007e+00
    1.744930e+01    6.519126e+02    1.057592e-01    4.112291e+07    7.142210e-09    3.911660e-12    6.026055e-09   -2.114007e+00
    1.764516e+01    6.575231e+02    9.687525e-02    3.841857e+07    7.081370e-09    3.770324e-12    5.946955e-09   -2.109007e+00
    1.782745e+01    6.624103e+02    8.865360e-02    3.583399e+07    7.019570e-09    3.633661e-12    5.866590e-09   -2.104007e+00
    1.799554e+01    6.665635e+02    8.105865e-02    3.337121e+07    6.956845e-09    3.501535e-12    5.784980e-09   -2.099007e+00
    1.814894e+01    6.699803e+02    7.405480e-02    3.103145e+07    6.893225e-09    3.373804e-12    5.702180e-09   -2.094007e+00
