# sky130 pfet_01v8 gm/ID Processed Lookup Table
# Corner: tt
# Temperature: 0C
# W = 2.0 um
# L = 1.98 um (1980 nm)
# Columns: gm/id [1/V]  gm/gds [V/V]  id/W [A/m]  ft [Hz]  Cgg/W [F/m]  Cgd/W [F/m]  Cgs/W [F/m]  Vov [V]
#         gm/id          gm/gds            id/W              ft           Cgg/W           Cgd/W           Cgs/W             Vov
    2.217050e+00    6.013009e+00    9.836605e+00    2.867153e+08    1.210570e-08    8.239085e-10    1.108288e-08   -2.854366e+00
    2.240638e+00    6.247189e+00    9.727590e+00    2.870274e+08    1.208575e-08    7.979300e-10    1.108277e-08   -2.849366e+00
    2.264474e+00    6.494562e+00    9.618645e+00    2.872985e+08    1.206613e-08    7.725545e-10    1.108243e-08   -2.844366e+00
    2.288552e+00    6.755905e+00    9.509785e+00    2.875271e+08    1.204683e-08    7.477835e-10    1.108184e-08   -2.839366e+00
    2.312868e+00    7.032026e+00    9.401015e+00    2.877118e+08    1.202785e-08    7.236180e-10    1.108103e-08   -2.834366e+00
    2.337416e+00    7.323765e+00    9.292355e+00    2.878510e+08    1.200920e-08    7.000565e-10    1.107997e-08   -2.829366e+00
    2.362189e+00    7.631995e+00    9.183820e+00    2.879436e+08    1.199087e-08    6.770985e-10    1.107867e-08   -2.824366e+00
    2.387184e+00    7.957617e+00    9.075420e+00    2.879881e+08    1.197287e-08    6.547405e-10    1.107715e-08   -2.819366e+00
    2.412395e+00    8.301563e+00    8.967175e+00    2.879835e+08    1.195519e-08    6.329800e-10    1.107539e-08   -2.814366e+00
    2.437815e+00    8.664785e+00    8.859105e+00    2.879287e+08    1.193784e-08    6.118125e-10    1.107341e-08   -2.809366e+00
    2.463443e+00    9.048261e+00    8.751215e+00    2.878228e+08    1.192081e-08    5.912325e-10    1.107120e-08   -2.804366e+00
    2.489271e+00    9.452991e+00    8.643525e+00    2.876649e+08    1.190410e-08    5.712340e-10    1.106878e-08   -2.799366e+00
    2.515297e+00    9.879990e+00    8.536060e+00    2.874545e+08    1.188770e-08    5.518105e-10    1.106614e-08   -2.794366e+00
    2.541518e+00    1.033029e+01    8.428825e+00    2.871911e+08    1.187161e-08    5.329550e-10    1.106328e-08   -2.789366e+00
    2.567931e+00    1.080493e+01    8.321845e+00    2.868740e+08    1.185583e-08    5.146595e-10    1.106022e-08   -2.784366e+00
    2.594535e+00    1.130497e+01    8.215130e+00    2.865034e+08    1.184034e-08    4.969153e-10    1.105694e-08   -2.779366e+00
    2.621328e+00    1.183144e+01    8.108705e+00    2.860790e+08    1.182516e-08    4.797132e-10    1.105346e-08   -2.774366e+00
    2.648312e+00    1.238543e+01    8.002580e+00    2.856010e+08    1.181027e-08    4.630439e-10    1.104978e-08   -2.769366e+00
    2.675485e+00    1.296797e+01    7.896780e+00    2.850693e+08    1.179566e-08    4.468974e-10    1.104589e-08   -2.764366e+00
    2.702854e+00    1.358010e+01    7.791310e+00    2.844846e+08    1.178133e-08    4.312633e-10    1.104181e-08   -2.759366e+00
    2.730418e+00    1.422289e+01    7.686195e+00    2.838474e+08    1.176727e-08    4.161312e-10    1.103754e-08   -2.754366e+00
    2.758182e+00    1.489734e+01    7.581450e+00    2.831581e+08    1.175348e-08    4.014900e-10    1.103309e-08   -2.749366e+00
    2.786151e+00    1.560447e+01    7.477090e+00    2.824175e+08    1.173994e-08    3.873288e-10    1.102845e-08   -2.744366e+00
    2.814331e+00    1.634528e+01    7.373135e+00    2.816264e+08    1.172666e-08    3.736363e-10    1.102362e-08   -2.739366e+00
    2.842732e+00    1.712075e+01    7.269590e+00    2.807858e+08    1.171361e-08    3.604009e-10    1.101861e-08   -2.734366e+00
    2.871356e+00    1.793184e+01    7.166485e+00    2.798967e+08    1.170080e-08    3.476112e-10    1.101342e-08   -2.729366e+00
    2.900218e+00    1.877948e+01    7.063820e+00    2.789602e+08    1.168822e-08    3.352556e-10    1.100805e-08   -2.724366e+00
    2.929324e+00    1.966459e+01    6.961620e+00    2.779774e+08    1.167585e-08    3.233225e-10    1.100252e-08   -2.719366e+00
    2.958686e+00    2.058807e+01    6.859895e+00    2.769494e+08    1.166369e-08    3.118003e-10    1.099680e-08   -2.714366e+00
    2.988312e+00    2.155080e+01    6.758665e+00    2.758776e+08    1.165174e-08    3.006774e-10    1.099092e-08   -2.709366e+00
    3.018220e+00    2.255361e+01    6.657930e+00    2.747631e+08    1.163997e-08    2.899423e-10    1.098487e-08   -2.704366e+00
    3.048419e+00    2.359736e+01    6.557715e+00    2.736073e+08    1.162839e-08    2.795836e-10    1.097866e-08   -2.699366e+00
    3.078920e+00    2.468286e+01    6.458030e+00    2.724112e+08    1.161699e-08    2.695900e-10    1.097227e-08   -2.694366e+00
    3.109742e+00    2.581090e+01    6.358885e+00    2.711766e+08    1.160575e-08    2.599503e-10    1.096573e-08   -2.689366e+00
    3.140898e+00    2.698226e+01    6.260290e+00    2.699043e+08    1.159468e-08    2.506535e-10    1.095902e-08   -2.684366e+00
    3.172404e+00    2.819771e+01    6.162255e+00    2.685958e+08    1.158375e-08    2.416888e-10    1.095214e-08   -2.679366e+00
    3.204271e+00    2.945802e+01    6.064800e+00    2.672524e+08    1.157295e-08    2.330455e-10    1.094511e-08   -2.674366e+00
    3.236518e+00    3.076395e+01    5.967930e+00    2.658752e+08    1.156230e-08    2.247131e-10    1.093791e-08   -2.669366e+00
    3.269165e+00    3.211621e+01    5.871650e+00    2.644654e+08    1.155177e-08    2.166814e-10    1.093055e-08   -2.664366e+00
    3.302225e+00    3.351556e+01    5.775975e+00    2.630242e+08    1.154134e-08    2.089403e-10    1.092303e-08   -2.659366e+00
    3.335716e+00    3.496276e+01    5.680915e+00    2.615528e+08    1.153103e-08    2.014800e-10    1.091534e-08   -2.654366e+00
    3.369655e+00    3.645854e+01    5.586480e+00    2.600522e+08    1.152081e-08    1.942908e-10    1.090750e-08   -2.649366e+00
    3.404062e+00    3.800362e+01    5.492675e+00    2.585237e+08    1.151069e-08    1.873635e-10    1.089949e-08   -2.644366e+00
    3.438955e+00    3.959881e+01    5.399510e+00    2.569679e+08    1.150064e-08    1.806889e-10    1.089132e-08   -2.639366e+00
    3.474356e+00    4.124488e+01    5.306990e+00    2.553864e+08    1.149066e-08    1.742581e-10    1.088297e-08   -2.634366e+00
    3.510279e+00    4.294261e+01    5.215130e+00    2.537797e+08    1.148075e-08    1.680625e-10    1.087446e-08   -2.629366e+00
    3.546748e+00    4.469279e+01    5.123930e+00    2.521487e+08    1.147089e-08    1.620938e-10    1.086579e-08   -2.624366e+00
    3.583784e+00    4.649627e+01    5.033400e+00    2.504945e+08    1.146107e-08    1.563437e-10    1.085694e-08   -2.619366e+00
    3.621409e+00    4.835390e+01    4.943544e+00    2.488179e+08    1.145129e-08    1.508044e-10    1.084792e-08   -2.614366e+00
    3.659642e+00    5.026657e+01    4.854374e+00    2.471198e+08    1.144154e-08    1.454682e-10    1.083872e-08   -2.609366e+00
    3.698506e+00    5.223519e+01    4.765894e+00    2.454007e+08    1.143181e-08    1.403277e-10    1.082934e-08   -2.604366e+00
    3.738024e+00    5.426072e+01    4.678109e+00    2.436616e+08    1.142209e-08    1.353757e-10    1.081978e-08   -2.599366e+00
    3.778219e+00    5.634412e+01    4.591026e+00    2.419030e+08    1.141237e-08    1.306052e-10    1.081004e-08   -2.594366e+00
    3.819116e+00    5.848644e+01    4.504652e+00    2.401256e+08    1.140265e-08    1.260095e-10    1.080010e-08   -2.589366e+00
    3.860739e+00    6.068874e+01    4.418991e+00    2.383302e+08    1.139291e-08    1.215822e-10    1.078998e-08   -2.584366e+00
    3.903114e+00    6.295214e+01    4.334048e+00    2.365173e+08    1.138314e-08    1.173170e-10    1.077965e-08   -2.579366e+00
    3.946268e+00    6.527782e+01    4.249830e+00    2.346874e+08    1.137335e-08    1.132077e-10    1.076913e-08   -2.574366e+00
    3.990226e+00    6.766698e+01    4.166340e+00    2.328411e+08    1.136352e-08    1.092487e-10    1.075839e-08   -2.569366e+00
    4.035019e+00    7.012091e+01    4.083585e+00    2.309790e+08    1.135363e-08    1.054341e-10    1.074745e-08   -2.564366e+00
    4.080673e+00    7.264092e+01    4.001568e+00    2.291015e+08    1.134368e-08    1.017586e-10    1.073629e-08   -2.559366e+00
    4.127219e+00    7.522844e+01    3.920295e+00    2.272090e+08    1.133368e-08    9.821685e-11    1.072491e-08   -2.554366e+00
    4.174686e+00    7.788489e+01    3.839771e+00    2.253021e+08    1.132359e-08    9.480395e-11    1.071330e-08   -2.549366e+00
    4.223107e+00    8.061179e+01    3.759999e+00    2.233811e+08    1.131341e-08    9.151495e-11    1.070146e-08   -2.544366e+00
    4.272516e+00    8.341082e+01    3.680983e+00    2.214464e+08    1.130314e-08    8.834520e-11    1.068938e-08   -2.539366e+00
    4.322947e+00    8.628357e+01    3.602729e+00    2.194984e+08    1.129277e-08    8.529015e-11    1.067704e-08   -2.534366e+00
    4.374432e+00    8.923183e+01    3.525241e+00    2.175374e+08    1.128227e-08    8.234540e-11    1.066445e-08   -2.529366e+00
    4.427011e+00    9.225740e+01    3.448521e+00    2.155637e+08    1.127166e-08    7.950690e-11    1.065160e-08   -2.524366e+00
    4.480720e+00    9.536225e+01    3.372576e+00    2.135778e+08    1.126091e-08    7.677055e-11    1.063848e-08   -2.519366e+00
    4.535599e+00    9.854837e+01    3.297407e+00    2.115797e+08    1.125002e-08    7.413245e-11    1.062508e-08   -2.514366e+00
    4.591688e+00    1.018178e+02    3.223019e+00    2.095698e+08    1.123898e-08    7.158890e-11    1.061139e-08   -2.509366e+00
    4.649029e+00    1.051728e+02    3.149417e+00    2.075483e+08    1.122777e-08    6.913640e-11    1.059740e-08   -2.504366e+00
    4.707667e+00    1.086156e+02    3.076604e+00    2.055156e+08    1.121637e-08    6.677140e-11    1.058311e-08   -2.499366e+00
    4.767647e+00    1.121487e+02    3.004582e+00    2.034717e+08    1.120481e-08    6.449060e-11    1.056850e-08   -2.494366e+00
    4.829015e+00    1.157746e+02    2.933357e+00    2.014167e+08    1.119304e-08    6.229090e-11    1.055356e-08   -2.489366e+00
    4.891822e+00    1.194958e+02    2.862931e+00    1.993511e+08    1.118106e-08    6.016920e-11    1.053828e-08   -2.484366e+00
    4.956119e+00    1.233150e+02    2.793309e+00    1.972749e+08    1.116887e-08    5.812250e-11    1.052266e-08   -2.479366e+00
    5.021957e+00    1.272353e+02    2.724492e+00    1.951880e+08    1.115644e-08    5.614810e-11    1.050668e-08   -2.474366e+00
    5.089395e+00    1.312595e+02    2.656487e+00    1.930909e+08    1.114377e-08    5.424315e-11    1.049032e-08   -2.469366e+00
    5.158486e+00    1.353908e+02    2.589294e+00    1.909834e+08    1.113085e-08    5.240515e-11    1.047358e-08   -2.464366e+00
    5.229291e+00    1.396323e+02    2.522919e+00    1.888658e+08    1.111765e-08    5.063155e-11    1.045644e-08   -2.459366e+00
    5.301872e+00    1.439874e+02    2.457365e+00    1.867380e+08    1.110418e-08    4.891997e-11    1.043888e-08   -2.454366e+00
    5.376293e+00    1.484598e+02    2.392635e+00    1.846001e+08    1.109041e-08    4.726806e-11    1.042090e-08   -2.449366e+00
    5.452624e+00    1.530531e+02    2.328731e+00    1.824522e+08    1.107633e-08    4.567361e-11    1.040248e-08   -2.444366e+00
    5.530933e+00    1.577710e+02    2.265659e+00    1.802942e+08    1.106193e-08    4.413449e-11    1.038360e-08   -2.439366e+00
    5.611291e+00    1.626175e+02    2.203420e+00    1.781263e+08    1.104720e-08    4.264865e-11    1.036425e-08   -2.434366e+00
    5.693772e+00    1.675969e+02    2.142019e+00    1.759481e+08    1.103212e-08    4.121411e-11    1.034441e-08   -2.429366e+00
    5.778457e+00    1.727133e+02    2.081460e+00    1.737599e+08    1.101667e-08    3.982900e-11    1.032406e-08   -2.424366e+00
    5.865429e+00    1.779713e+02    2.021744e+00    1.715616e+08    1.100084e-08    3.849148e-11    1.030320e-08   -2.419366e+00
    5.954764e+00    1.833754e+02    1.962877e+00    1.693530e+08    1.098462e-08    3.719982e-11    1.028179e-08   -2.414366e+00
    6.046558e+00    1.889306e+02    1.904861e+00    1.671340e+08    1.096798e-08    3.595233e-11    1.025983e-08   -2.409366e+00
    6.140898e+00    1.946416e+02    1.847700e+00    1.649047e+08    1.095091e-08    3.474739e-11    1.023729e-08   -2.404366e+00
    6.237879e+00    2.005138e+02    1.791397e+00    1.626647e+08    1.093340e-08    3.358347e-11    1.021414e-08   -2.399366e+00
    6.337599e+00    2.065523e+02    1.735955e+00    1.604141e+08    1.091543e-08    3.245908e-11    1.019039e-08   -2.394366e+00
    6.440156e+00    2.127628e+02    1.681380e+00    1.581526e+08    1.089698e-08    3.137277e-11    1.016599e-08   -2.389366e+00
    6.545658e+00    2.191508e+02    1.627673e+00    1.558800e+08    1.087803e-08    3.032318e-11    1.014094e-08   -2.384366e+00
    6.654210e+00    2.257222e+02    1.574839e+00    1.535962e+08    1.085856e-08    2.930899e-11    1.011520e-08   -2.379366e+00
    6.765920e+00    2.324829e+02    1.522882e+00    1.513010e+08    1.083855e-08    2.832892e-11    1.008876e-08   -2.374366e+00
    6.880908e+00    2.394390e+02    1.471804e+00    1.489941e+08    1.081799e-08    2.738176e-11    1.006159e-08   -2.369366e+00
    6.999291e+00    2.465968e+02    1.421609e+00    1.466753e+08    1.079686e-08    2.646633e-11    1.003367e-08   -2.364366e+00
    7.121188e+00    2.539627e+02    1.372302e+00    1.443443e+08    1.077513e-08    2.558150e-11    1.000497e-08   -2.359366e+00
    7.246719e+00    2.615431e+02    1.323886e+00    1.420010e+08    1.075278e-08    2.472619e-11    9.975470e-09   -2.354366e+00
    7.376017e+00    2.693447e+02    1.276365e+00    1.396450e+08    1.072980e-08    2.389936e-11    9.945140e-09   -2.349366e+00
    7.509206e+00    2.773739e+02    1.229743e+00    1.372760e+08    1.070616e-08    2.310001e-11    9.913960e-09   -2.344366e+00
    7.646421e+00    2.856375e+02    1.184023e+00    1.348939e+08    1.068183e-08    2.232717e-11    9.881900e-09   -2.339366e+00
    7.787793e+00    2.941421e+02    1.139209e+00    1.324984e+08    1.065681e-08    2.157991e-11    9.848930e-09   -2.334366e+00
    7.933456e+00    3.028942e+02    1.095304e+00    1.300890e+08    1.063107e-08    2.085734e-11    9.815025e-09   -2.329366e+00
    8.083547e+00    3.119003e+02    1.052314e+00    1.276658e+08    1.060457e-08    2.015861e-11    9.780160e-09   -2.324366e+00
    8.238194e+00    3.211668e+02    1.010242e+00    1.252283e+08    1.057730e-08    1.948290e-11    9.744300e-09   -2.319366e+00
    8.397537e+00    3.306995e+02    9.690895e-01    1.227764e+08    1.054924e-08    1.882940e-11    9.707415e-09   -2.314366e+00
    8.561704e+00    3.405046e+02    9.288630e-01    1.203100e+08    1.052035e-08    1.819736e-11    9.669480e-09   -2.309366e+00
    8.730823e+00    3.505870e+02    8.895645e-01    1.178287e+08    1.049064e-08    1.758603e-11    9.630465e-09   -2.304366e+00
    8.905025e+00    3.609518e+02    8.511975e-01    1.153326e+08    1.046005e-08    1.699472e-11    9.590335e-09   -2.299366e+00
    9.084417e+00    3.716032e+02    8.137660e-01    1.128215e+08    1.042857e-08    1.642274e-11    9.549065e-09   -2.294366e+00
    9.269118e+00    3.825448e+02    7.772730e-01    1.102957e+08    1.039618e-08    1.586944e-11    9.506620e-09   -2.289366e+00
    9.459230e+00    3.937793e+02    7.417205e-01    1.077550e+08    1.036284e-08    1.533418e-11    9.462970e-09   -2.284366e+00
    9.654836e+00    4.053081e+02    7.071125e-01    1.051997e+08    1.032854e-08    1.481637e-11    9.418080e-09   -2.279366e+00
    9.856018e+00    4.171323e+02    6.734510e-01    1.026301e+08    1.029326e-08    1.431541e-11    9.371930e-09   -2.274366e+00
    1.006283e+01    4.292503e+02    6.407380e-01    1.000465e+08    1.025696e-08    1.383074e-11    9.324480e-09   -2.269366e+00
    1.027532e+01    4.416598e+02    6.089750e-01    9.744944e+07    1.021964e-08    1.336182e-11    9.275700e-09   -2.264366e+00
    1.049349e+01    4.543571e+02    5.781640e-01    9.483979e+07    1.018124e-08    1.290813e-11    9.225560e-09   -2.259366e+00
    1.071735e+01    4.673352e+02    5.483055e-01    9.221816e+07    1.014177e-08    1.246917e-11    9.174035e-09   -2.254366e+00
    1.094683e+01    4.805861e+02    5.194005e-01    8.958569e+07    1.010119e-08    1.204444e-11    9.121085e-09   -2.249366e+00
    1.118189e+01    4.940984e+02    4.914476e-01    8.694356e+07    1.005948e-08    1.163349e-11    9.066690e-09   -2.244366e+00
    1.142242e+01    5.078595e+02    4.644467e-01    8.429332e+07    1.001662e-08    1.123586e-11    9.010820e-09   -2.239366e+00
    1.166823e+01    5.218509e+02    4.383959e-01    8.163641e+07    9.972585e-09    1.085112e-11    8.953445e-09   -2.234366e+00
    1.191916e+01    5.360540e+02    4.132927e-01    7.897496e+07    9.927365e-09    1.047884e-11    8.894535e-09   -2.229366e+00
    1.217493e+01    5.504451e+02    3.891336e-01    7.631108e+07    9.880930e-09    1.011864e-11    8.834075e-09   -2.224366e+00
    1.243525e+01    5.649966e+02    3.659142e-01    7.364719e+07    9.833270e-09    9.770110e-12    8.772030e-09   -2.219366e+00
    1.269976e+01    5.796780e+02    3.436292e-01    7.098607e+07    9.784360e-09    9.432880e-12    8.708380e-09   -2.214366e+00
    1.296801e+01    5.944540e+02    3.222718e-01    6.833070e+07    9.734190e-09    9.106590e-12    8.643105e-09   -2.209366e+00
    1.323951e+01    6.092857e+02    3.018342e-01    6.568434e+07    9.682750e-09    8.790885e-12    8.576185e-09   -2.204366e+00
    1.351371e+01    6.241295e+02    2.823072e-01    6.305065e+07    9.630015e-09    8.485440e-12    8.507600e-09   -2.199366e+00
    1.378995e+01    6.389379e+02    2.636803e-01    6.043343e+07    9.575980e-09    8.189915e-12    8.437335e-09   -2.194366e+00
    1.406754e+01    6.536592e+02    2.459416e-01    5.783676e+07    9.520640e-09    7.904005e-12    8.365385e-09   -2.189366e+00
    1.434568e+01    6.682381e+02    2.290776e-01    5.526498e+07    9.463985e-09    7.627405e-12    8.291725e-09   -2.184366e+00
    1.462354e+01    6.826162e+02    2.130736e-01    5.272262e+07    9.406005e-09    7.359815e-12    8.216355e-09   -2.179366e+00
    1.490018e+01    6.967317e+02    1.979130e-01    5.021431e+07    9.346705e-09    7.100965e-12    8.139265e-09   -2.174366e+00
    1.517464e+01    7.105207e+02    1.835780e-01    4.774487e+07    9.286080e-09    6.850570e-12    8.060460e-09   -2.169366e+00
    1.544589e+01    7.239175e+02    1.700490e-01    4.531911e+07    9.224135e-09    6.608365e-12    7.979930e-09   -2.164366e+00
    1.571285e+01    7.368557e+02    1.573052e-01    4.294189e+07    9.160870e-09    6.374105e-12    7.897685e-09   -2.159366e+00
    1.597441e+01    7.492696e+02    1.453242e-01    4.061796e+07    9.096300e-09    6.147535e-12    7.813730e-09   -2.154366e+00
    1.622946e+01    7.610941e+02    1.340823e-01    3.835195e+07    9.030430e-09    5.928420e-12    7.728075e-09   -2.149366e+00
    1.647687e+01    7.722669e+02    1.235549e-01    3.614830e+07    8.963275e-09    5.716525e-12    7.640735e-09   -2.144366e+00
    1.671554e+01    7.827296e+02    1.137156e-01    3.401117e+07    8.894855e-09    5.511625e-12    7.551730e-09   -2.139366e+00
    1.694440e+01    7.924285e+02    1.045375e-01    3.194439e+07    8.825185e-09    5.313510e-12    7.461080e-09   -2.134366e+00
    1.716242e+01    8.013164e+02    9.599290e-02    2.995138e+07    8.754290e-09    5.121970e-12    7.368815e-09   -2.129366e+00
    1.736866e+01    8.093527e+02    8.805325e-02    2.803510e+07    8.682200e-09    4.936798e-12    7.274965e-09   -2.124366e+00
    1.756230e+01    8.165057e+02    8.068950e-02    2.619804e+07    8.608940e-09    4.757800e-12    7.179560e-09   -2.119366e+00
    1.774256e+01    8.227525e+02    7.387250e-02    2.444212e+07    8.534545e-09    4.584786e-12    7.082645e-09   -2.114366e+00
    1.790886e+01    8.280804e+02    6.757285e-02    2.276872e+07    8.459055e-09    4.417571e-12    6.984265e-09   -2.109366e+00
    1.806074e+01    8.324864e+02    6.176125e-02    2.117862e+07    8.382510e-09    4.255977e-12    6.884465e-09   -2.104366e+00
    1.819788e+01    8.359786e+02    5.640870e-02    1.967206e+07    8.304955e-09    4.099832e-12    6.783295e-09   -2.099366e+00
