# sky130 nfet_01v8 gm/ID Processed Lookup Table
# Corner: ss
# Temperature: 0C
# W = 2.0 um
# L = 2.7 um (2700 nm)
# Columns: gm/id [1/V]  gm/gds [V/V]  id/W [A/m]  ft [Hz]  Cgg/W [F/m]  Cgd/W [F/m]  Cgs/W [F/m]  Vov [V]
#         gm/id          gm/gds            id/W              ft           Cgg/W           Cgd/W           Cgs/W             Vov
    2.972867e+01    1.707965e+02    3.065724e-09    2.542321e+00    5.705560e-09    5.472175e-14    1.623438e-10   -5.964065e-01
    2.972841e+01    1.707950e+02    3.557032e-09    2.956621e+00    5.692250e-09    5.686975e-14    1.683691e-10   -5.914065e-01
    2.972812e+01    1.707933e+02    4.127071e-09    3.438207e+00    5.679335e-09    5.910525e-14    1.746838e-10   -5.864065e-01
    2.972782e+01    1.707916e+02    4.788454e-09    3.997963e+00    5.666825e-09    6.143215e-14    1.813041e-10   -5.814065e-01
    2.972749e+01    1.707897e+02    5.555820e-09    4.648520e+00    5.654730e-09    6.385460e-14    1.882473e-10   -5.764065e-01
    2.972715e+01    1.707877e+02    6.446145e-09    5.404531e+00    5.643070e-09    6.637690e-14    1.955315e-10   -5.714065e-01
    2.972676e+01    1.707855e+02    7.479135e-09    6.283019e+00    5.631845e-09    6.900360e-14    2.031751e-10   -5.664065e-01
    2.972634e+01    1.707831e+02    8.677645e-09    7.303719e+00    5.621075e-09    7.173940e-14    2.111992e-10   -5.614065e-01
    2.972590e+01    1.707806e+02    1.006819e-08    8.489526e+00    5.610775e-09    7.458930e-14    2.196253e-10   -5.564065e-01
    2.972541e+01    1.707778e+02    1.168153e-08    9.867002e+00    5.600960e-09    7.755860e-14    2.284759e-10   -5.514065e-01
    2.972489e+01    1.707748e+02    1.355336e-08    1.146695e+01    5.591645e-09    8.065270e-14    2.377745e-10   -5.464065e-01
    2.972433e+01    1.707716e+02    1.572510e-08    1.332507e+01    5.582850e-09    8.387740e-14    2.475462e-10   -5.414065e-01
    2.972374e+01    1.707682e+02    1.824476e-08    1.548279e+01    5.574585e-09    8.723875e-14    2.578171e-10   -5.364065e-01
    2.972308e+01    1.707644e+02    2.116809e-08    1.798804e+01    5.566880e-09    9.074310e-14    2.686146e-10   -5.314065e-01
    2.972240e+01    1.707605e+02    2.455975e-08    2.089647e+01    5.559745e-09    9.439705e-14    2.799680e-10   -5.264065e-01
    2.972165e+01    1.707562e+02    2.849472e-08    2.427243e+01    5.553210e-09    9.820765e-14    2.919073e-10   -5.214065e-01
    2.972084e+01    1.707516e+02    3.306004e-08    2.819053e+01    5.547295e-09    1.021822e-13    3.044644e-10   -5.164065e-01
    2.971997e+01    1.707465e+02    3.835662e-08    3.273714e+01    5.542020e-09    1.063284e-13    3.176728e-10   -5.114065e-01
    2.971903e+01    1.707412e+02    4.450158e-08    3.801222e+01    5.537415e-09    1.106543e-13    3.315673e-10   -5.064065e-01
    2.971804e+01    1.707355e+02    5.163075e-08    4.413143e+01    5.533510e-09    1.151683e-13    3.461845e-10   -5.014065e-01
    2.971695e+01    1.707293e+02    5.990170e-08    5.122865e+01    5.530325e-09    1.198794e-13    3.615627e-10   -4.964065e-01
    2.971579e+01    1.707226e+02    6.949720e-08    5.945870e+01    5.527890e-09    1.247967e-13    3.777417e-10   -4.914065e-01
    2.971453e+01    1.707154e+02    8.062935e-08    6.900054e+01    5.526240e-09    1.299301e-13    3.947632e-10   -4.864065e-01
    2.971318e+01    1.707076e+02    9.354400e-08    8.006102e+01    5.525405e-09    1.352898e-13    4.126706e-10   -4.814065e-01
    2.971173e+01    1.706994e+02    1.085265e-07    9.287922e+01    5.525420e-09    1.408865e-13    4.315093e-10   -4.764065e-01
    2.971017e+01    1.706904e+02    1.259077e-07    1.077312e+02    5.526320e-09    1.467315e-13    4.513261e-10   -4.714065e-01
    2.970848e+01    1.706807e+02    1.460715e-07    1.249358e+02    5.528140e-09    1.528363e-13    4.721701e-10   -4.664065e-01
    2.970666e+01    1.706703e+02    1.694628e-07    1.448610e+02    5.530915e-09    1.592135e-13    4.940918e-10   -4.614065e-01
    2.970472e+01    1.706592e+02    1.965983e-07    1.679314e+02    5.534690e-09    1.658759e-13    5.171440e-10   -4.564065e-01
    2.970263e+01    1.706472e+02    2.280764e-07    1.946366e+02    5.539505e-09    1.728370e-13    5.413810e-10   -4.514065e-01
    2.970035e+01    1.706342e+02    2.645918e-07    2.255409e+02    5.545400e-09    1.801108e-13    5.668590e-10   -4.464065e-01
    2.969792e+01    1.706202e+02    3.069497e-07    2.612948e+02    5.552425e-09    1.877123e-13    5.936355e-10   -4.414065e-01
    2.969531e+01    1.706053e+02    3.560842e-07    3.026480e+02    5.560615e-09    1.956569e-13    6.217715e-10   -4.364065e-01
    2.969249e+01    1.705893e+02    4.130782e-07    3.504624e+02    5.570030e-09    2.039607e-13    6.513275e-10   -4.314065e-01
    2.968946e+01    1.705719e+02    4.791875e-07    4.057315e+02    5.580705e-09    2.126407e-13    6.823670e-10   -4.264065e-01
    2.968620e+01    1.705533e+02    5.558680e-07    4.695970e+02    5.592695e-09    2.217147e-13    7.149540e-10   -4.214065e-01
    2.968268e+01    1.705332e+02    6.448085e-07    5.433712e+02    5.606055e-09    2.312009e-13    7.491555e-10   -4.164065e-01
    2.967890e+01    1.705117e+02    7.479660e-07    6.285633e+02    5.620835e-09    2.411188e-13    7.850385e-10   -4.114065e-01
    2.967484e+01    1.704885e+02    8.676095e-07    7.269067e+02    5.637080e-09    2.514885e-13    8.226715e-10   -4.064065e-01
    2.967046e+01    1.704635e+02    1.006370e-06    8.403896e+02    5.654855e-09    2.623311e-13    8.621240e-10   -4.014065e-01
    2.966574e+01    1.704367e+02    1.167297e-06    9.712963e+02    5.674205e-09    2.736682e-13    9.034675e-10   -3.964065e-01
    2.966068e+01    1.704079e+02    1.353924e-06    1.122243e+03    5.695195e-09    2.855231e-13    9.467720e-10   -3.914065e-01
    2.965524e+01    1.703769e+02    1.570348e-06    1.296233e+03    5.717870e-09    2.979195e-13    9.921105e-10   -3.864065e-01
    2.964938e+01    1.703436e+02    1.821314e-06    1.496702e+03    5.742295e-09    3.108821e-13    1.039554e-09   -3.814065e-01
    2.964307e+01    1.703078e+02    2.112327e-06    1.727586e+03    5.768525e-09    3.244368e-13    1.089175e-09   -3.764065e-01
    2.963630e+01    1.702694e+02    2.449756e-06    1.993393e+03    5.796610e-09    3.386106e-13    1.141045e-09   -3.714065e-01
    2.962901e+01    1.702281e+02    2.840988e-06    2.299272e+03    5.826615e-09    3.534314e-13    1.195236e-09   -3.664065e-01
    2.962115e+01    1.701836e+02    3.294577e-06    2.651117e+03    5.858585e-09    3.689283e-13    1.251817e-09   -3.614065e-01
    2.961273e+01    1.701360e+02    3.820428e-06    3.055658e+03    5.892585e-09    3.851317e-13    1.310857e-09   -3.564065e-01
    2.960368e+01    1.700848e+02    4.430019e-06    3.520585e+03    5.928660e-09    4.020730e-13    1.372425e-09   -3.514065e-01
    2.959394e+01    1.700300e+02    5.136635e-06    4.054669e+03    5.966865e-09    4.197847e-13    1.436585e-09   -3.464065e-01
    2.958348e+01    1.699711e+02    5.955660e-06    4.667918e+03    6.007255e-09    4.383007e-13    1.503402e-09   -3.414065e-01
    2.957224e+01    1.699079e+02    6.904905e-06    5.371753e+03    6.049870e-09    4.576561e-13    1.572934e-09   -3.364065e-01
    2.956018e+01    1.698402e+02    8.004975e-06    6.179176e+03    6.094760e-09    4.778873e-13    1.645240e-09   -3.314065e-01
    2.954722e+01    1.697676e+02    9.279725e-06    7.104996e+03    6.141975e-09    4.990319e-13    1.720374e-09   -3.264065e-01
    2.953330e+01    1.696898e+02    1.075676e-05    8.166094e+03    6.191545e-09    5.211290e-13    1.798384e-09   -3.214065e-01
    2.951837e+01    1.696065e+02    1.246798e-05    9.381660e+03    6.243510e-09    5.442190e-13    1.879318e-09   -3.164065e-01
    2.950235e+01    1.695173e+02    1.445031e-05    1.077351e+04    6.297910e-09    5.683435e-13    1.963214e-09   -3.114065e-01
    2.948516e+01    1.694219e+02    1.674643e-05    1.236649e+04    6.354765e-09    5.935455e-13    2.050109e-09   -3.064065e-01
    2.946672e+01    1.693199e+02    1.940567e-05    1.418875e+04    6.414110e-09    6.198700e-13    2.140031e-09   -3.014065e-01
    2.944696e+01    1.692108e+02    2.248504e-05    1.627234e+04    6.475960e-09    6.473625e-13    2.233004e-09   -2.964065e-01
    2.942578e+01    1.690943e+02    2.605038e-05    1.865361e+04    6.540325e-09    6.760705e-13    2.329045e-09   -2.914065e-01
    2.940311e+01    1.689700e+02    3.017777e-05    2.137376e+04    6.607230e-09    7.060430e-13    2.428164e-09   -2.864065e-01
    2.937881e+01    1.688372e+02    3.495498e-05    2.447957e+04    6.676665e-09    7.373310e-13    2.530364e-09   -2.814065e-01
    2.935282e+01    1.686959e+02    4.048334e-05    2.802399e+04    6.748640e-09    7.699850e-13    2.635639e-09   -2.764065e-01
    2.932499e+01    1.685453e+02    4.687976e-05    3.206706e+04    6.823140e-09    8.040595e-13    2.743977e-09   -2.714065e-01
    2.929526e+01    1.683852e+02    5.427900e-05    3.667672e+04    6.900155e-09    8.396095e-13    2.855357e-09   -2.664065e-01
    2.926348e+01    1.682149e+02    6.283645e-05    4.192983e+04    6.979665e-09    8.766910e-13    2.969751e-09   -2.614065e-01
    2.922956e+01    1.680341e+02    7.273105e-05    4.791333e+04    7.061645e-09    9.153620e-13    3.087120e-09   -2.564065e-01
    2.919334e+01    1.678424e+02    8.416900e-05    5.472546e+04    7.146060e-09    9.556825e-13    3.207418e-09   -2.514065e-01
    2.915471e+01    1.676394e+02    9.738750e-05    6.247723e+04    7.232865e-09    9.977140e-13    3.330590e-09   -2.464065e-01
    2.911355e+01    1.674247e+02    1.126594e-04    7.129385e+04    7.322020e-09    1.041519e-12    3.456573e-09   -2.414065e-01
    2.906972e+01    1.671979e+02    1.302986e-04    8.131663e+04    7.413470e-09    1.087162e-12    3.585294e-09   -2.364065e-01
    2.902310e+01    1.669589e+02    1.506655e-04    9.270484e+04    7.507155e-09    1.134709e-12    3.716673e-09   -2.314065e-01
    2.897355e+01    1.667075e+02    1.741741e-04    1.056380e+05    7.603000e-09    1.184228e-12    3.850619e-09   -2.264065e-01
    2.892092e+01    1.664434e+02    2.012993e-04    1.203179e+05    7.700945e-09    1.235789e-12    3.987036e-09   -2.214065e-01
    2.886511e+01    1.661667e+02    2.325858e-04    1.369721e+05    7.800895e-09    1.289462e-12    4.125818e-09   -2.164065e-01
    2.880600e+01    1.658775e+02    2.686577e-04    1.558559e+05    7.902770e-09    1.345321e-12    4.266852e-09   -2.114065e-01
    2.874345e+01    1.655761e+02    3.102298e-04    1.772559e+05    8.006485e-09    1.403440e-12    4.410017e-09   -2.064065e-01
    2.867735e+01    1.652628e+02    3.581196e-04    2.014944e+05    8.111930e-09    1.463896e-12    4.555186e-09   -2.014065e-01
    2.860761e+01    1.649384e+02    4.132617e-04    2.289326e+05    8.219005e-09    1.526765e-12    4.702226e-09   -1.964065e-01
    2.853415e+01    1.646037e+02    4.767236e-04    2.599751e+05    8.327605e-09    1.592131e-12    4.850997e-09   -1.914065e-01
    2.845689e+01    1.642598e+02    5.497240e-04    2.950749e+05    8.437620e-09    1.660072e-12    5.001355e-09   -1.864065e-01
    2.837579e+01    1.639080e+02    6.336515e-04    3.347393e+05    8.548930e-09    1.730673e-12    5.153145e-09   -1.814065e-01
    2.829078e+01    1.635501e+02    7.300895e-04    3.795354e+05    8.661415e-09    1.804020e-12    5.306220e-09   -1.764065e-01
    2.820187e+01    1.631884e+02    8.408395e-04    4.300971e+05    8.774950e-09    1.880200e-12    5.460420e-09   -1.714065e-01
    2.810910e+01    1.628251e+02    9.679495e-04    4.871319e+05    8.889415e-09    1.959302e-12    5.615585e-09   -1.664065e-01
    2.801252e+01    1.624635e+02    1.113747e-03    5.514301e+05    9.004680e-09    2.041418e-12    5.771555e-09   -1.614065e-01
    2.791218e+01    1.621069e+02    1.280875e-03    6.238734e+05    9.120615e-09    2.126642e-12    5.928165e-09   -1.564065e-01
    2.780822e+01    1.617594e+02    1.472330e-03    7.054447e+05    9.237095e-09    2.215069e-12    6.085250e-09   -1.514065e-01
    2.770080e+01    1.614256e+02    1.691507e-03    7.972410e+05    9.353985e-09    2.306796e-12    6.242640e-09   -1.464065e-01
    2.759010e+01    1.611107e+02    1.942252e-03    9.004840e+05    9.471160e-09    2.401925e-12    6.400185e-09   -1.414065e-01
    2.747635e+01    1.608203e+02    2.228917e-03    1.016536e+06    9.588490e-09    2.500556e-12    6.557710e-09   -1.364065e-01
    2.735982e+01    1.605611e+02    2.556419e-03    1.146918e+06    9.705840e-09    2.602796e-12    6.715060e-09   -1.314065e-01
    2.724080e+01    1.603401e+02    2.930315e-03    1.293319e+06    9.823095e-09    2.708750e-12    6.872080e-09   -1.264065e-01
    2.711960e+01    1.601650e+02    3.356879e-03    1.457629e+06    9.940130e-09    2.818529e-12    7.028605e-09   -1.214065e-01
    2.699657e+01    1.600442e+02    3.843190e-03    1.641951e+06    1.005681e-08    2.932244e-12    7.184495e-09   -1.164065e-01
    2.687205e+01    1.599864e+02    4.397230e-03    1.848628e+06    1.017304e-08    3.050010e-12    7.339600e-09   -1.114065e-01
    2.674639e+01    1.600012e+02    5.027995e-03    2.080272e+06    1.028869e-08    3.171945e-12    7.493775e-09   -1.064065e-01
    2.661990e+01    1.600982e+02    5.745615e-03    2.339794e+06    1.040365e-08    3.298170e-12    7.646885e-09   -1.014065e-01
    2.649284e+01    1.602875e+02    6.561500e-03    2.630427e+06    1.051781e-08    3.428806e-12    7.798795e-09   -9.640650e-02
    2.636546e+01    1.605792e+02    7.488475e-03    2.955775e+06    1.063109e-08    3.563982e-12    7.949385e-09   -9.140650e-02
    2.623789e+01    1.609833e+02    8.540960e-03    3.319829e+06    1.074336e-08    3.703826e-12    8.098535e-09   -8.640650e-02
    2.611017e+01    1.615096e+02    9.735155e-03    3.727013e+06    1.085455e-08    3.848472e-12    8.246130e-09   -8.140650e-02
    2.598219e+01    1.621675e+02    1.108923e-02    4.182211e+06    1.096457e-08    3.998055e-12    8.392060e-09   -7.640650e-02
    2.585374e+01    1.629654e+02    1.262356e-02    4.690801e+06    1.107334e-08    4.152715e-12    8.536235e-09   -7.140650e-02
    2.572442e+01    1.639108e+02    1.436093e-02    5.258678e+06    1.118077e-08    4.312596e-12    8.678555e-09   -6.640650e-02
    2.559365e+01    1.650097e+02    1.632678e-02    5.892267e+06    1.128679e-08    4.477845e-12    8.818940e-09   -6.140650e-02
    2.546067e+01    1.662668e+02    1.854952e-02    6.598532e+06    1.139135e-08    4.648612e-12    8.957305e-09   -5.640650e-02
    2.532455e+01    1.676844e+02    2.106069e-02    7.384973e+06    1.149438e-08    4.825055e-12    9.093585e-09   -5.140650e-02
    2.518419e+01    1.692632e+02    2.389531e-02    8.259602e+06    1.159583e-08    5.007330e-12    9.227715e-09   -4.640650e-02
    2.503831e+01    1.710009e+02    2.709207e-02    9.230887e+06    1.169564e-08    5.195605e-12    9.359630e-09   -4.140650e-02
    2.488556e+01    1.728930e+02    3.069359e-02    1.030772e+07    1.179377e-08    5.390045e-12    9.489290e-09   -3.640650e-02
    2.472443e+01    1.749320e+02    3.474663e-02    1.149927e+07    1.189019e-08    5.590825e-12    9.616640e-09   -3.140650e-02
    2.455346e+01    1.771079e+02    3.930224e-02    1.281497e+07    1.198485e-08    5.798125e-12    9.741650e-09   -2.640650e-02
    2.437112e+01    1.794074e+02    4.441593e-02    1.426424e+07    1.207774e-08    6.012125e-12    9.864290e-09   -2.140650e-02
    2.417599e+01    1.818146e+02    5.014765e-02    1.585647e+07    1.216882e-08    6.233020e-12    9.984530e-09   -1.640650e-02
    2.396675e+01    1.843114e+02    5.656185e-02    1.760072e+07    1.225809e-08    6.460995e-12    1.010235e-08   -1.140650e-02
    2.374227e+01    1.868770e+02    6.372735e-02    1.950560e+07    1.234551e-08    6.696260e-12    1.021774e-08   -6.406500e-03
    2.350159e+01    1.894883e+02    7.171720e-02    2.157903e+07    1.243108e-08    6.939015e-12    1.033069e-08   -1.406500e-03
    2.324407e+01    1.921211e+02    8.060830e-02    2.382803e+07    1.251480e-08    7.189475e-12    1.044120e-08    3.593500e-03
    2.296927e+01    1.947496e+02    9.048120e-02    2.625851e+07    1.259667e-08    7.447860e-12    1.054927e-08    8.593500e-03
    2.267708e+01    1.973474e+02    1.014195e-01    2.887509e+07    1.267668e-08    7.714395e-12    1.065489e-08    1.359350e-02
    2.236770e+01    1.998880e+02    1.135093e-01    3.168094e+07    1.275483e-08    7.989315e-12    1.075810e-08    1.859350e-02
    2.204161e+01    2.023448e+02    1.268385e-01    3.467760e+07    1.283115e-08    8.272855e-12    1.085889e-08    2.359350e-02
    2.169955e+01    2.046925e+02    1.414964e-01    3.786493e+07    1.290563e-08    8.565265e-12    1.095728e-08    2.859350e-02
    2.134254e+01    2.069069e+02    1.575724e-01    4.124097e+07    1.297829e-08    8.866805e-12    1.105332e-08    3.359350e-02
    2.097178e+01    2.089654e+02    1.751559e-01    4.480206e+07    1.304914e-08    9.177735e-12    1.114699e-08    3.859350e-02
    2.058866e+01    2.108476e+02    1.943348e-01    4.854269e+07    1.311822e-08    9.498325e-12    1.123835e-08    4.359350e-02
    2.019474e+01    2.125356e+02    2.151951e-01    5.245572e+07    1.318554e-08    9.828860e-12    1.132742e-08    4.859350e-02
    1.979162e+01    2.140141e+02    2.378201e-01    5.653247e+07    1.325111e-08    1.016963e-11    1.141423e-08    5.359350e-02
    1.938103e+01    2.152707e+02    2.622895e-01    6.076283e+07    1.331496e-08    1.052094e-11    1.149881e-08    5.859350e-02
    1.896466e+01    2.162957e+02    2.886789e-01    6.513543e+07    1.337713e-08    1.088308e-11    1.158121e-08    6.359350e-02
    1.854422e+01    2.170825e+02    3.170592e-01    6.963803e+07    1.343763e-08    1.125640e-11    1.166145e-08    6.859350e-02
    1.812138e+01    2.176273e+02    3.474959e-01    7.425746e+07    1.349649e-08    1.164120e-11    1.173958e-08    7.359350e-02
    1.769772e+01    2.179290e+02    3.800492e-01    7.898007e+07    1.355376e-08    1.203784e-11    1.181565e-08    7.859350e-02
    1.727479e+01    2.179893e+02    4.147730e-01    8.379200e+07    1.360946e-08    1.244667e-11    1.188969e-08    8.359350e-02
    1.685397e+01    2.178118e+02    4.517153e-01    8.867920e+07    1.366361e-08    1.286806e-11    1.196174e-08    8.859350e-02
    1.643658e+01    2.174027e+02    4.909178e-01    9.362784e+07    1.371625e-08    1.330237e-11    1.203184e-08    9.359350e-02
    1.602380e+01    2.167696e+02    5.324160e-01    9.862433e+07    1.376742e-08    1.375001e-11    1.210005e-08    9.859350e-02
    1.561664e+01    2.159218e+02    5.762400e-01    1.036556e+08    1.381715e-08    1.421137e-11    1.216640e-08    1.035935e-01
    1.521610e+01    2.148701e+02    6.224125e-01    1.087095e+08    1.386546e-08    1.468687e-11    1.223094e-08    1.085935e-01
    1.482295e+01    2.136261e+02    6.709520e-01    1.137742e+08    1.391241e-08    1.517695e-11    1.229372e-08    1.135935e-01
    1.443788e+01    2.122022e+02    7.218705e-01    1.188391e+08    1.395801e-08    1.568204e-11    1.235477e-08    1.185935e-01
    1.406147e+01    2.106112e+02    7.751765e-01    1.238944e+08    1.400231e-08    1.620261e-11    1.241414e-08    1.235935e-01
    1.369419e+01    2.088664e+02    8.308720e-01    1.289314e+08    1.404534e-08    1.673914e-11    1.247189e-08    1.285935e-01
    1.333640e+01    2.069808e+02    8.889565e-01    1.339421e+08    1.408712e-08    1.729213e-11    1.252804e-08    1.335935e-01
    1.298838e+01    2.049677e+02    9.494245e-01    1.389198e+08    1.412770e-08    1.786208e-11    1.258265e-08    1.385935e-01
    1.265034e+01    2.028403e+02    1.012268e+00    1.438588e+08    1.416711e-08    1.844952e-11    1.263575e-08    1.435935e-01
    1.232236e+01    2.006106e+02    1.077476e+00    1.487540e+08    1.420539e-08    1.905502e-11    1.268739e-08    1.485935e-01
    1.200453e+01    1.982910e+02    1.145034e+00    1.536016e+08    1.424255e-08    1.967911e-11    1.273762e-08    1.535935e-01
    1.169681e+01    1.958929e+02    1.214926e+00    1.583983e+08    1.427865e-08    2.032241e-11    1.278647e-08    1.585935e-01
