# sky130 nfet_01v8 gm/ID Processed Lookup Table
# Corner: ss
# Temperature: 0C
# W = 2.0 um
# L = 0.9 um (900 nm)
# Columns: gm/id [1/V]  gm/gds [V/V]  id/W [A/m]  ft [Hz]  Cgg/W [F/m]  Cgd/W [F/m]  Cgs/W [F/m]  Vov [V]
#         gm/id          gm/gds            id/W              ft           Cgg/W           Cgd/W           Cgs/W             Vov
    3.031541e+01    1.652882e+02    3.756921e-09    9.699217e+00    1.868870e-09    1.041507e-14    3.361568e-11   -6.489279e-01
    3.031521e+01    1.652872e+02    4.371806e-09    1.132330e+01    1.862810e-09    1.082455e-14    3.470110e-11   -6.439279e-01
    3.031499e+01    1.652859e+02    5.087320e-09    1.321865e+01    1.856862e-09    1.124995e-14    3.583220e-11   -6.389279e-01
    3.031474e+01    1.652846e+02    5.919935e-09    1.543044e+01    1.851026e-09    1.169193e-14    3.701160e-11   -6.339279e-01
    3.031445e+01    1.652832e+02    6.888815e-09    1.801134e+01    1.845306e-09    1.215119e-14    3.824209e-11   -6.289279e-01
    3.031417e+01    1.652816e+02    8.016250e-09    2.102277e+01    1.839700e-09    1.262845e-14    3.952665e-11   -6.239279e-01
    3.031387e+01    1.652800e+02    9.328185e-09    2.453632e+01    1.834211e-09    1.312447e-14    4.086843e-11   -6.189279e-01
    3.031353e+01    1.652782e+02    1.085482e-08    2.863543e+01    1.828840e-09    1.364003e-14    4.227082e-11   -6.139279e-01
    3.031317e+01    1.652762e+02    1.263128e-08    3.341736e+01    1.823588e-09    1.417599e-14    4.373739e-11   -6.089279e-01
    3.031279e+01    1.652742e+02    1.469843e-08    3.899545e+01    1.818457e-09    1.473322e-14    4.527196e-11   -6.039279e-01
    3.031236e+01    1.652719e+02    1.710385e-08    4.550174e+01    1.813450e-09    1.531262e-14    4.687860e-11   -5.989279e-01
    3.031192e+01    1.652695e+02    1.990288e-08    5.309019e+01    1.808569e-09    1.591517e-14    4.856161e-11   -5.939279e-01
    3.031143e+01    1.652669e+02    2.315991e-08    6.193998e+01    1.803817e-09    1.654187e-14    5.032555e-11   -5.889279e-01
    3.031090e+01    1.652640e+02    2.694987e-08    7.225990e+01    1.799196e-09    1.719381e-14    5.217535e-11   -5.839279e-01
    3.031034e+01    1.652610e+02    3.135995e-08    8.429319e+01    1.794708e-09    1.787207e-14    5.411615e-11   -5.789279e-01
    3.030972e+01    1.652577e+02    3.649160e-08    9.832295e+01    1.790359e-09    1.857784e-14    5.615340e-11   -5.739279e-01
    3.030907e+01    1.652542e+02    4.246282e-08    1.146789e+02    1.786151e-09    1.931234e-14    5.829295e-11   -5.689279e-01
    3.030836e+01    1.652503e+02    4.941097e-08    1.337448e+02    1.782088e-09    2.007687e-14    6.054100e-11   -5.639279e-01
    3.030758e+01    1.652462e+02    5.749585e-08    1.559674e+02    1.778174e-09    2.087278e-14    6.290405e-11   -5.589279e-01
    3.030676e+01    1.652417e+02    6.690330e-08    1.818664e+02    1.774413e-09    2.170150e-14    6.538910e-11   -5.539279e-01
    3.030587e+01    1.652369e+02    7.784970e-08    2.120465e+02    1.770813e-09    2.256453e-14    6.800340e-11   -5.489279e-01
    3.030491e+01    1.652317e+02    9.058665e-08    2.472115e+02    1.767375e-09    2.346344e-14    7.075475e-11   -5.439279e-01
    3.030387e+01    1.652261e+02    1.054070e-07    2.881792e+02    1.764108e-09    2.439989e-14    7.365135e-11   -5.389279e-01
    3.030275e+01    1.652200e+02    1.226513e-07    3.359009e+02    1.761015e-09    2.537562e-14    7.670165e-11   -5.339279e-01
    3.030153e+01    1.652135e+02    1.427160e-07    3.914825e+02    1.758106e-09    2.639245e-14    7.991500e-11   -5.289279e-01
    3.030024e+01    1.652065e+02    1.660619e-07    4.562092e+02    1.755384e-09    2.745231e-14    8.330115e-11   -5.239279e-01
    3.029881e+01    1.651988e+02    1.932256e-07    5.315735e+02    1.752859e-09    2.855721e-14    8.687030e-11   -5.189279e-01
    3.029730e+01    1.651906e+02    2.248309e-07    6.193107e+02    1.750538e-09    2.970930e-14    9.063320e-11   -5.139279e-01
    3.029566e+01    1.651817e+02    2.616038e-07    7.214342e+02    1.748429e-09    3.091079e-14    9.460110e-11   -5.089279e-01
    3.029390e+01    1.651721e+02    3.043886e-07    8.402819e+02    1.746540e-09    3.216404e-14    9.878605e-11   -5.039279e-01
    3.029198e+01    1.651619e+02    3.541675e-07    9.785673e+02    1.744881e-09    3.347151e-14    1.032005e-10   -4.989279e-01
    3.028993e+01    1.651508e+02    4.120829e-07    1.139438e+03    1.743462e-09    3.483582e-14    1.078575e-10   -4.939279e-01
    3.028772e+01    1.651388e+02    4.794640e-07    1.326544e+03    1.742292e-09    3.625968e-14    1.127710e-10   -4.889279e-01
    3.028533e+01    1.651259e+02    5.578565e-07    1.544119e+03    1.741383e-09    3.774598e-14    1.179553e-10   -4.839279e-01
    3.028276e+01    1.651120e+02    6.490580e-07    1.797065e+03    1.740746e-09    3.929772e-14    1.234257e-10   -4.789279e-01
    3.027999e+01    1.650970e+02    7.551595e-07    2.091066e+03    1.740392e-09    4.091810e-14    1.291978e-10   -4.739279e-01
    3.027700e+01    1.650808e+02    8.785930e-07    2.432697e+03    1.740334e-09    4.261044e-14    1.352882e-10   -4.689279e-01
    3.027378e+01    1.650634e+02    1.022186e-06    2.829576e+03    1.740585e-09    4.437824e-14    1.417142e-10   -4.639279e-01
    3.027031e+01    1.650446e+02    1.189227e-06    3.290512e+03    1.741158e-09    4.622521e-14    1.484936e-10   -4.589279e-01
    3.026656e+01    1.650244e+02    1.383541e-06    3.825691e+03    1.742069e-09    4.815521e-14    1.556450e-10   -4.539279e-01
    3.026253e+01    1.650026e+02    1.609573e-06    4.446887e+03    1.743331e-09    5.017230e-14    1.631880e-10   -4.489279e-01
    3.025819e+01    1.649792e+02    1.872493e-06    5.167706e+03    1.744960e-09    5.228080e-14    1.711424e-10   -4.439279e-01
    3.025350e+01    1.649538e+02    2.178312e-06    6.003851e+03    1.746972e-09    5.448515e-14    1.795292e-10   -4.389279e-01
    3.024844e+01    1.649265e+02    2.534015e-06    6.973447e+03    1.749382e-09    5.679010e-14    1.883696e-10   -4.339279e-01
    3.024300e+01    1.648971e+02    2.947725e-06    8.097404e+03    1.752210e-09    5.920060e-14    1.976859e-10   -4.289279e-01
    3.023713e+01    1.648654e+02    3.428883e-06    9.399818e+03    1.755472e-09    6.172185e-14    2.075007e-10   -4.239279e-01
    3.023081e+01    1.648314e+02    3.988457e-06    1.090846e+04    1.759185e-09    6.435935e-14    2.178376e-10   -4.189279e-01
    3.022400e+01    1.647946e+02    4.639198e-06    1.265528e+04    1.763370e-09    6.711870e-14    2.287204e-10   -4.139279e-01
    3.021668e+01    1.647551e+02    5.395920e-06    1.467707e+04    1.768044e-09    7.000605e-14    2.401737e-10   -4.089279e-01
    3.020878e+01    1.647125e+02    6.275840e-06    1.701613e+04    1.773227e-09    7.302760e-14    2.522224e-10   -4.039279e-01
    3.020026e+01    1.646667e+02    7.298950e-06    1.972105e+04    1.778940e-09    7.619000e-14    2.648919e-10   -3.989279e-01
    3.019111e+01    1.646173e+02    8.488470e-06    2.284764e+04    1.785202e-09    7.950015e-14    2.782081e-10   -3.939279e-01
    3.018124e+01    1.645642e+02    9.871385e-06    2.645995e+04    1.792035e-09    8.296530e-14    2.921969e-10   -3.889279e-01
    3.017062e+01    1.645071e+02    1.147901e-05    3.063143e+04    1.799457e-09    8.659300e-14    3.068848e-10   -3.839279e-01
    3.015918e+01    1.644456e+02    1.334772e-05    3.544626e+04    1.807491e-09    9.039125e-14    3.222982e-10   -3.789279e-01
    3.014689e+01    1.643795e+02    1.551971e-05    4.100080e+04    1.816159e-09    9.436830e-14    3.384634e-10   -3.739279e-01
    3.013364e+01    1.643084e+02    1.804399e-05    4.740537e+04    1.825479e-09    9.853290e-14    3.554068e-10   -3.689279e-01
    3.011940e+01    1.642320e+02    2.097739e-05    5.478605e+04    1.835473e-09    1.028941e-13    3.731547e-10   -3.639279e-01
    3.010409e+01    1.641500e+02    2.438589e-05    6.328697e+04    1.846163e-09    1.074613e-13    3.917330e-10   -3.589279e-01
    3.008761e+01    1.640618e+02    2.834595e-05    7.307257e+04    1.857567e-09    1.122444e-13    4.111670e-10   -3.539279e-01
    3.006990e+01    1.639669e+02    3.294629e-05    8.433059e+04    1.869707e-09    1.172539e-13    4.314818e-10   -3.489279e-01
    3.005085e+01    1.638652e+02    3.828971e-05    9.727489e+04    1.882601e-09    1.225004e-13    4.527014e-10   -3.439279e-01
    3.003040e+01    1.637561e+02    4.449536e-05    1.121492e+05    1.896269e-09    1.279951e-13    4.748492e-10   -3.389279e-01
    3.000841e+01    1.636389e+02    5.170130e-05    1.292307e+05    1.910728e-09    1.337500e-13    4.979476e-10   -3.339279e-01
    2.998482e+01    1.635133e+02    6.006735e-05    1.488348e+05    1.925996e-09    1.397770e-13    5.220175e-10   -3.289279e-01
    2.995948e+01    1.633786e+02    6.977865e-05    1.713199e+05    1.942090e-09    1.460889e-13    5.470795e-10   -3.239279e-01
    2.993229e+01    1.632344e+02    8.104935e-05    1.970925e+05    1.959023e-09    1.526988e-13    5.731510e-10   -3.189279e-01
    2.990313e+01    1.630799e+02    9.412725e-05    2.266142e+05    1.976811e-09    1.596205e-13    6.002490e-10   -3.139279e-01
    2.987186e+01    1.629145e+02    1.092989e-04    2.604078e+05    1.995464e-09    1.668681e-13    6.283890e-10   -3.089279e-01
    2.983834e+01    1.627377e+02    1.268953e-04    2.990654e+05    2.014996e-09    1.744566e-13    6.575830e-10   -3.039279e-01
    2.980244e+01    1.625488e+02    1.472991e-04    3.432569e+05    2.035414e-09    1.824012e-13    6.878425e-10   -2.989279e-01
    2.976401e+01    1.623470e+02    1.709519e-04    3.937395e+05    2.056727e-09    1.907178e-13    7.191755e-10   -2.939279e-01
    2.972286e+01    1.621316e+02    1.983635e-04    4.513677e+05    2.078940e-09    1.994229e-13    7.515890e-10   -2.889279e-01
    2.967889e+01    1.619020e+02    2.301213e-04    5.171068e+05    2.102057e-09    2.085334e-13    7.850855e-10   -2.839279e-01
    2.963191e+01    1.616575e+02    2.669029e-04    5.920435e+05    2.126079e-09    2.180671e-13    8.196670e-10   -2.789279e-01
    2.958170e+01    1.613972e+02    3.094882e-04    6.774012e+05    2.151005e-09    2.280422e-13    8.553305e-10   -2.739279e-01
    2.952816e+01    1.611206e+02    3.587753e-04    7.745577e+05    2.176834e-09    2.384777e-13    8.920715e-10   -2.689279e-01
    2.947108e+01    1.608268e+02    4.157965e-04    8.850589e+05    2.203560e-09    2.493927e-13    9.298825e-10   -2.639279e-01
    2.941026e+01    1.605152e+02    4.817382e-04    1.010640e+06    2.231174e-09    2.608075e-13    9.687525e-10   -2.589279e-01
    2.934556e+01    1.601853e+02    5.579625e-04    1.153249e+06    2.259667e-09    2.727428e-13    1.008667e-09   -2.539279e-01
    2.927675e+01    1.598365e+02    6.460325e-04    1.315063e+06    2.289027e-09    2.852199e-13    1.049610e-09   -2.489279e-01
    2.920369e+01    1.594682e+02    7.477380e-04    1.498519e+06    2.319237e-09    2.982607e-13    1.091559e-09   -2.439279e-01
    2.912621e+01    1.590800e+02    8.651295e-04    1.706340e+06    2.350280e-09    3.118880e-13    1.134492e-09   -2.389279e-01
    2.904413e+01    1.586717e+02    1.000552e-03    1.941563e+06    2.382136e-09    3.261248e-13    1.178382e-09   -2.339279e-01
    2.895728e+01    1.582430e+02    1.156684e-03    2.207571e+06    2.414782e-09    3.409952e-13    1.223199e-09   -2.289279e-01
    2.886554e+01    1.577938e+02    1.336583e-03    2.508130e+06    2.448193e-09    3.565238e-13    1.268911e-09   -2.239279e-01
    2.876877e+01    1.573245e+02    1.543734e-03    2.847426e+06    2.482341e-09    3.727356e-13    1.315481e-09   -2.189279e-01
    2.866686e+01    1.568352e+02    1.782105e-03    3.230104e+06    2.517196e-09    3.896566e-13    1.362871e-09   -2.139279e-01
    2.855972e+01    1.563265e+02    2.056209e-03    3.661315e+06    2.552726e-09    4.073134e-13    1.411038e-09   -2.089279e-01
    2.844730e+01    1.557995e+02    2.371170e-03    4.146765e+06    2.588896e-09    4.257332e-13    1.459940e-09   -2.039279e-01
    2.832953e+01    1.552549e+02    2.732804e-03    4.692754e+06    2.625670e-09    4.449439e-13    1.509530e-09   -1.989279e-01
    2.820647e+01    1.546945e+02    3.147695e-03    5.306260e+06    2.663011e-09    4.649740e-13    1.559758e-09   -1.939279e-01
    2.807812e+01    1.541200e+02    3.623295e-03    5.994971e+06    2.700877e-09    4.858527e-13    1.610575e-09   -1.889279e-01
    2.794454e+01    1.535334e+02    4.168026e-03    6.767365e+06    2.739227e-09    5.076100e-13    1.661926e-09   -1.839279e-01
    2.780589e+01    1.529376e+02    4.791392e-03    7.632792e+06    2.778019e-09    5.302770e-13    1.713760e-09   -1.789279e-01
    2.766232e+01    1.523353e+02    5.504100e-03    8.601537e+06    2.817208e-09    5.538840e-13    1.766020e-09   -1.739279e-01
    2.751403e+01    1.517302e+02    6.318210e-03    9.684924e+06    2.856750e-09    5.784640e-13    1.818648e-09   -1.689279e-01
    2.736129e+01    1.511259e+02    7.247280e-03    1.089540e+07    2.896599e-09    6.040495e-13    1.871589e-09   -1.639279e-01
    2.720439e+01    1.505267e+02    8.306530e-03    1.224667e+07    2.936708e-09    6.306735e-13    1.924783e-09   -1.589279e-01
    2.704368e+01    1.499376e+02    9.513040e-03    1.375378e+07    2.977030e-09    6.583710e-13    1.978172e-09   -1.539279e-01
    2.687954e+01    1.493634e+02    1.088595e-02    1.543328e+07    3.017519e-09    6.871765e-13    2.031697e-09   -1.489279e-01
    2.671237e+01    1.488096e+02    1.244668e-02    1.730336e+07    3.058128e-09    7.171260e-13    2.085300e-09   -1.439279e-01
    2.654261e+01    1.482820e+02    1.421919e-02    1.938402e+07    3.098808e-09    7.482560e-13    2.138923e-09   -1.389279e-01
    2.637069e+01    1.477863e+02    1.623025e-02    2.169721e+07    3.139516e-09    7.806035e-13    2.192509e-09   -1.339279e-01
    2.619705e+01    1.473286e+02    1.850973e-02    2.426708e+07    3.180205e-09    8.142070e-13    2.246001e-09   -1.289279e-01
    2.602209e+01    1.469147e+02    2.109096e-02    2.712009e+07    3.220829e-09    8.491050e-13    2.299343e-09   -1.239279e-01
    2.584622e+01    1.465505e+02    2.401109e-02    3.028534e+07    3.261344e-09    8.853380e-13    2.352480e-09   -1.189279e-01
    2.566975e+01    1.462415e+02    2.731145e-02    3.379463e+07    3.301709e-09    9.229465e-13    2.405362e-09   -1.139279e-01
    2.549290e+01    1.459924e+02    3.103801e-02    3.768274e+07    3.341879e-09    9.619725e-13    2.457936e-09   -1.089279e-01
    2.531587e+01    1.458076e+02    3.524186e-02    4.198766e+07    3.381817e-09    1.002458e-12    2.510153e-09   -1.039279e-01
    2.513871e+01    1.456908e+02    3.997968e-02    4.675068e+07    3.421483e-09    1.044447e-12    2.561967e-09   -9.892790e-02
    2.496133e+01    1.456440e+02    4.531425e-02    5.201650e+07    3.460840e-09    1.087983e-12    2.613331e-09   -9.392790e-02
    2.478356e+01    1.456686e+02    5.131505e-02    5.783342e+07    3.499852e-09    1.133113e-12    2.664203e-09   -8.892790e-02
    2.460505e+01    1.457646e+02    5.805880e-02    6.425323e+07    3.538486e-09    1.179884e-12    2.714543e-09   -8.392790e-02
    2.442535e+01    1.459301e+02    6.562995e-02    7.133117e+07    3.576709e-09    1.228342e-12    2.764313e-09   -7.892790e-02
    2.424382e+01    1.461621e+02    7.412155e-02    7.912583e+07    3.614493e-09    1.278538e-12    2.813476e-09   -7.392790e-02
    2.405977e+01    1.464556e+02    8.363535e-02    8.769876e+07    3.651809e-09    1.330521e-12    2.862000e-09   -6.892790e-02
    2.387237e+01    1.468040e+02    9.428275e-02    9.711417e+07    3.688631e-09    1.384343e-12    2.909854e-09   -6.392790e-02
    2.368070e+01    1.471992e+02    1.061850e-01    1.074383e+08    3.724936e-09    1.440057e-12    2.957010e-09   -5.892790e-02
    2.348383e+01    1.476313e+02    1.194738e-01    1.187388e+08    3.760702e-09    1.497717e-12    3.003443e-09   -5.392790e-02
    2.328076e+01    1.480891e+02    1.342913e-01    1.310839e+08    3.795908e-09    1.557379e-12    3.049129e-09   -4.892790e-02
    2.307056e+01    1.485599e+02    1.507906e-01    1.445416e+08    3.830538e-09    1.619100e-12    3.094049e-09   -4.392790e-02
    2.285229e+01    1.490302e+02    1.691360e-01    1.591784e+08    3.864574e-09    1.682939e-12    3.138183e-09   -3.892790e-02
    2.262513e+01    1.494855e+02    1.895022e-01    1.750585e+08    3.898003e-09    1.748955e-12    3.181517e-09   -3.392790e-02
    2.238835e+01    1.499108e+02    2.120747e-01    1.922421e+08    3.930815e-09    1.817212e-12    3.224037e-09   -2.892790e-02
    2.214139e+01    1.502910e+02    2.370491e-01    2.107849e+08    3.962997e-09    1.887772e-12    3.265732e-09   -2.392790e-02
    2.188378e+01    1.506109e+02    2.646305e-01    2.307361e+08    3.994541e-09    1.960702e-12    3.306593e-09   -1.892790e-02
    2.161530e+01    1.508562e+02    2.950329e-01    2.521381e+08    4.025440e-09    2.036069e-12    3.346615e-09   -1.392790e-02
    2.133584e+01    1.510126e+02    3.284778e-01    2.750243e+08    4.055691e-09    2.113943e-12    3.385791e-09   -8.927900e-03
    2.104553e+01    1.510677e+02    3.651934e-01    2.994197e+08    4.085288e-09    2.194395e-12    3.424119e-09   -3.927900e-03
    2.074463e+01    1.510096e+02    4.054132e-01    3.253382e+08    4.114230e-09    2.277500e-12    3.461598e-09    1.072100e-03
    2.043358e+01    1.508284e+02    4.493745e-01    3.527839e+08    4.142517e-09    2.363333e-12    3.498230e-09    6.072100e-03
    2.011298e+01    1.505159e+02    4.973166e-01    3.817492e+08    4.170148e-09    2.451973e-12    3.534015e-09    1.107210e-02
    1.978358e+01    1.500656e+02    5.494795e-01    4.122156e+08    4.197126e-09    2.543501e-12    3.568959e-09    1.607210e-02
    1.944618e+01    1.494725e+02    6.061025e-01    4.441532e+08    4.223454e-09    2.637999e-12    3.603067e-09    2.107210e-02
    1.910175e+01    1.487343e+02    6.674215e-01    4.775215e+08    4.249136e-09    2.735556e-12    3.636345e-09    2.607210e-02
    1.875129e+01    1.478499e+02    7.336680e-01    5.122694e+08    4.274178e-09    2.836258e-12    3.668800e-09    3.107210e-02
    1.839587e+01    1.468203e+02    8.050675e-01    5.483367e+08    4.298584e-09    2.940198e-12    3.700443e-09    3.607210e-02
    1.803653e+01    1.456481e+02    8.818385e-01    5.856539e+08    4.322363e-09    3.047471e-12    3.731282e-09    4.107210e-02
    1.767441e+01    1.443375e+02    9.641885e-01    6.241443e+08    4.345522e-09    3.158175e-12    3.761329e-09    4.607210e-02
    1.731054e+01    1.428941e+02    1.052317e+00    6.637247e+08    4.368069e-09    3.272410e-12    3.790595e-09    5.107210e-02
    1.694600e+01    1.413247e+02    1.146411e+00    7.043068e+08    4.390014e-09    3.390280e-12    3.819092e-09    5.607210e-02
    1.658181e+01    1.396372e+02    1.246644e+00    7.457986e+08    4.411366e-09    3.511895e-12    3.846835e-09    6.107210e-02
    1.621892e+01    1.378400e+02    1.353179e+00    7.881052e+08    4.432135e-09    3.637366e-12    3.873835e-09    6.607210e-02
    1.585823e+01    1.359425e+02    1.466162e+00    8.311305e+08    4.452333e-09    3.766808e-12    3.900108e-09    7.107210e-02
    1.550059e+01    1.339542e+02    1.585728e+00    8.747789e+08    4.471968e-09    3.900340e-12    3.925668e-09    7.607210e-02
    1.514675e+01    1.318851e+02    1.711997e+00    9.189549e+08    4.491054e-09    4.038086e-12    3.950530e-09    8.107210e-02
    1.479742e+01    1.297452e+02    1.845073e+00    9.635659e+08    4.509602e-09    4.180172e-12    3.974708e-09    8.607210e-02
    1.445321e+01    1.275444e+02    1.985048e+00    1.008522e+09    4.527623e-09    4.326732e-12    3.998219e-09    9.107210e-02
    1.411468e+01    1.252926e+02    2.132000e+00    1.053737e+09    4.545129e-09    4.477902e-12    4.021078e-09    9.607210e-02
    1.378230e+01    1.229990e+02    2.285992e+00    1.099129e+09    4.562133e-09    4.633822e-12    4.043300e-09    1.010721e-01
    1.345647e+01    1.206729e+02    2.447077e+00    1.144621e+09    4.578646e-09    4.794641e-12    4.064901e-09    1.060721e-01
