# sky130 nfet_01v8 gm/ID Processed Lookup Table
# Corner: ss
# Temperature: 0C
# W = 2.0 um
# L = 4.86 um (4860 nm)
# Columns: gm/id [1/V]  gm/gds [V/V]  id/W [A/m]  ft [Hz]  Cgg/W [F/m]  Cgd/W [F/m]  Cgs/W [F/m]  Vov [V]
#         gm/id          gm/gds            id/W              ft           Cgg/W           Cgd/W           Cgs/W             Vov
    3.019984e+01    2.328313e+02    1.899887e-09    9.007442e-01    1.013797e-08    1.021551e-13    2.887478e-10   -5.878592e-01
    3.019956e+01    2.328291e+02    2.209559e-09    1.050000e+00    1.011433e-08    1.062206e-13    2.995874e-10   -5.828592e-01
    3.019922e+01    2.328265e+02    2.569702e-09    1.223902e+00    1.009141e-08    1.104542e-13    3.109572e-10   -5.778592e-01
    3.019887e+01    2.328238e+02    2.988541e-09    1.426507e+00    1.006923e-08    1.148634e-13    3.228878e-10   -5.728592e-01
    3.019850e+01    2.328209e+02    3.475640e-09    1.662528e+00    1.004781e-08    1.194564e-13    3.354117e-10   -5.678592e-01
    3.019810e+01    2.328179e+02    4.042123e-09    1.937454e+00    1.002716e-08    1.242415e-13    3.485632e-10   -5.628592e-01
    3.019766e+01    2.328144e+02    4.700926e-09    2.257661e+00    1.000733e-08    1.292276e-13    3.623780e-10   -5.578592e-01
    3.019719e+01    2.328107e+02    5.467090e-09    2.630575e+00    9.988315e-09    1.344241e-13    3.768938e-10   -5.528592e-01
    3.019667e+01    2.328068e+02    6.358110e-09    3.064819e+00    9.970165e-09    1.398407e-13    3.921521e-10   -5.478592e-01
    3.019611e+01    2.328026e+02    7.394330e-09    3.570428e+00    9.952900e-09    1.454876e-13    4.081956e-10   -5.428592e-01
    3.019552e+01    2.327980e+02    8.599400e-09    4.159058e+00    9.936555e-09    1.513758e-13    4.250691e-10   -5.378592e-01
    3.019487e+01    2.327931e+02    1.000084e-08    4.844257e+00    9.921160e-09    1.575165e-13    4.428201e-10   -5.328592e-01
    3.019418e+01    2.327877e+02    1.163062e-08    5.641766e+00    9.906750e-09    1.639216e-13    4.614983e-10   -5.278592e-01
    3.019344e+01    2.327820e+02    1.352595e-08    6.569866e+00    9.893365e-09    1.706037e-13    4.811561e-10   -5.228592e-01
    3.019264e+01    2.327758e+02    1.573009e-08    7.649794e+00    9.881040e-09    1.775758e-13    5.018485e-10   -5.178592e-01
    3.019177e+01    2.327691e+02    1.829333e-08    8.906200e+00    9.869815e-09    1.848518e-13    5.236335e-10   -5.128592e-01
    3.019083e+01    2.327619e+02    2.127416e-08    1.036769e+01    9.859740e-09    1.924462e-13    5.465720e-10   -5.078592e-01
    3.018983e+01    2.327542e+02    2.474058e-08    1.206749e+01    9.850855e-09    2.003741e-13    5.707275e-10   -5.028592e-01
    3.018876e+01    2.327459e+02    2.877167e-08    1.404409e+01    9.843215e-09    2.086516e-13    5.961670e-10   -4.978592e-01
    3.018759e+01    2.327370e+02    3.345938e-08    1.634217e+01    9.836865e-09    2.172953e-13    6.229605e-10   -4.928592e-01
    3.018633e+01    2.327272e+02    3.891061e-08    1.901353e+01    9.831860e-09    2.263231e-13    6.511815e-10   -4.878592e-01
    3.018497e+01    2.327167e+02    4.524966e-08    2.211820e+01    9.828255e-09    2.357532e-13    6.809055e-10   -4.828592e-01
    3.018352e+01    2.327055e+02    5.262105e-08    2.572573e+01    9.826115e-09    2.456051e-13    7.122135e-10   -4.778592e-01
    3.018192e+01    2.326934e+02    6.119285e-08    2.991666e+01    9.825500e-09    2.558991e-13    7.451880e-10   -4.728592e-01
    3.018023e+01    2.326805e+02    7.116035e-08    3.478430e+01    9.826470e-09    2.666566e-13    7.799165e-10   -4.678592e-01
    3.017840e+01    2.326664e+02    8.275070e-08    4.043659e+01    9.829095e-09    2.779000e-13    8.164890e-10   -4.628592e-01
    3.017644e+01    2.326512e+02    9.622790e-08    4.699844e+01    9.833445e-09    2.896527e-13    8.549990e-10   -4.578592e-01
    3.017431e+01    2.326349e+02    1.118990e-07    5.461429e+01    9.839595e-09    3.019393e-13    8.955445e-10   -4.528592e-01
    3.017202e+01    2.326173e+02    1.301207e-07    6.345116e+01    9.847620e-09    3.147857e-13    9.382260e-10   -4.478592e-01
    3.016956e+01    2.325983e+02    1.513078e-07    7.370198e+01    9.857600e-09    3.282188e-13    9.831485e-10   -4.428592e-01
    3.016689e+01    2.325779e+02    1.759425e-07    8.558968e+01    9.869615e-09    3.422671e-13    1.030419e-09   -4.378592e-01
    3.016403e+01    2.325559e+02    2.045853e-07    9.937149e+01    9.883755e-09    3.569600e-13    1.080150e-09   -4.328592e-01
    3.016093e+01    2.325322e+02    2.378874e-07    1.153445e+02    9.900095e-09    3.723288e-13    1.132455e-09   -4.278592e-01
    3.015762e+01    2.325068e+02    2.766059e-07    1.338511e+02    9.918740e-09    3.884058e-13    1.187452e-09   -4.228592e-01
    3.015402e+01    2.324793e+02    3.216208e-07    1.552863e+02    9.939770e-09    4.052252e-13    1.245262e-09   -4.178592e-01
    3.015017e+01    2.324497e+02    3.739543e-07    1.801049e+02    9.963290e-09    4.228223e-13    1.306009e-09   -4.128592e-01
    3.014600e+01    2.324179e+02    4.347948e-07    2.088312e+02    9.989385e-09    4.412346e-13    1.369819e-09   -4.078592e-01
    3.014151e+01    2.323835e+02    5.055230e-07    2.420683e+02    1.001817e-08    4.605006e-13    1.436820e-09   -4.028592e-01
    3.013668e+01    2.323467e+02    5.877425e-07    2.805100e+02    1.004973e-08    4.806613e-13    1.507142e-09   -3.978592e-01
    3.013148e+01    2.323070e+02    6.833175e-07    3.249547e+02    1.008418e-08    5.017585e-13    1.580920e-09   -3.928592e-01
    3.012589e+01    2.322642e+02    7.944125e-07    3.763193e+02    1.012161e-08    5.238375e-13    1.658285e-09   -3.878592e-01
    3.011986e+01    2.322182e+02    9.235430e-07    4.356575e+02    1.016214e-08    5.469430e-13    1.739374e-09   -3.828592e-01
    3.011336e+01    2.321686e+02    1.073630e-06    5.041785e+02    1.020586e-08    5.711245e-13    1.824321e-09   -3.778592e-01
    3.010636e+01    2.321154e+02    1.248066e-06    5.832699e+02    1.025289e-08    5.964315e-13    1.913262e-09   -3.728592e-01
    3.009883e+01    2.320581e+02    1.450790e-06    6.745229e+02    1.030333e-08    6.229165e-13    2.006331e-09   -3.678592e-01
    3.009072e+01    2.319965e+02    1.686377e-06    7.797613e+02    1.035728e-08    6.506335e-13    2.103663e-09   -3.628592e-01
    3.008200e+01    2.319303e+02    1.960137e-06    9.010737e+02    1.041485e-08    6.796400e-13    2.205389e-09   -3.578592e-01
    3.007262e+01    2.318592e+02    2.278236e-06    1.040851e+03    1.047615e-08    7.099945e-13    2.311641e-09   -3.528592e-01
    3.006250e+01    2.317826e+02    2.647827e-06    1.201829e+03    1.054126e-08    7.417580e-13    2.422543e-09   -3.478592e-01
    3.005164e+01    2.317005e+02    3.077215e-06    1.387136e+03    1.061029e-08    7.749940e-13    2.538220e-09   -3.428592e-01
    3.003995e+01    2.316123e+02    3.576034e-06    1.600348e+03    1.068333e-08    8.097695e-13    2.658790e-09   -3.378592e-01
    3.002738e+01    2.315176e+02    4.155460e-06    1.845546e+03    1.076048e-08    8.461530e-13    2.784366e-09   -3.328592e-01
    3.001387e+01    2.314161e+02    4.828455e-06    2.127396e+03    1.084181e-08    8.842150e-13    2.915056e-09   -3.278592e-01
    2.999935e+01    2.313070e+02    5.610050e-06    2.451212e+03    1.092743e-08    9.240300e-13    3.050960e-09   -3.228592e-01
    2.998372e+01    2.311901e+02    6.517680e-06    2.823062e+03    1.101738e-08    9.656740e-13    3.192172e-09   -3.178592e-01
    2.996696e+01    2.310649e+02    7.571530e-06    3.249857e+03    1.111175e-08    1.009226e-12    3.338774e-09   -3.128592e-01
    2.994895e+01    2.309307e+02    8.795020e-06    3.739468e+03    1.121060e-08    1.054769e-12    3.490842e-09   -3.078592e-01
    2.992961e+01    2.307870e+02    1.021526e-05    4.300863e+03    1.131397e-08    1.102387e-12    3.648441e-09   -3.028592e-01
    2.990885e+01    2.306332e+02    1.186365e-05    4.944235e+03    1.142193e-08    1.152168e-12    3.811624e-09   -2.978592e-01
    2.988659e+01    2.304689e+02    1.377656e-05    5.681185e+03    1.153449e-08    1.204202e-12    3.980433e-09   -2.928592e-01
    2.986271e+01    2.302932e+02    1.599607e-05    6.524890e+03    1.165170e-08    1.258583e-12    4.154895e-09   -2.878592e-01
    2.983712e+01    2.301056e+02    1.857085e-05    7.490325e+03    1.177357e-08    1.315407e-12    4.335030e-09   -2.828592e-01
    2.980969e+01    2.299054e+02    2.155721e-05    8.594489e+03    1.190009e-08    1.374774e-12    4.520837e-09   -2.778592e-01
    2.978031e+01    2.296920e+02    2.502027e-05    9.856659e+03    1.203128e-08    1.436786e-12    4.712304e-09   -2.728592e-01
    2.974887e+01    2.294648e+02    2.903524e-05    1.129871e+04    1.216711e-08    1.501549e-12    4.909403e-09   -2.678592e-01
    2.971523e+01    2.292230e+02    3.368901e-05    1.294541e+04    1.230755e-08    1.569171e-12    5.112090e-09   -2.628592e-01
    2.967927e+01    2.289661e+02    3.908187e-05    1.482484e+04    1.245256e-08    1.639766e-12    5.320310e-09   -2.578592e-01
    2.964086e+01    2.286934e+02    4.532960e-05    1.696877e+04    1.260208e-08    1.713447e-12    5.533980e-09   -2.528592e-01
    2.959984e+01    2.284042e+02    5.256565e-05    1.941310e+04    1.275607e-08    1.790333e-12    5.753015e-09   -2.478592e-01
    2.955609e+01    2.280981e+02    6.094390e-05    2.219845e+04    1.291442e-08    1.870548e-12    5.977300e-09   -2.428592e-01
    2.950945e+01    2.277748e+02    7.064160e-05    2.537069e+04    1.307704e-08    1.954213e-12    6.206715e-09   -2.378592e-01
    2.945980e+01    2.274337e+02    8.186270e-05    2.898158e+04    1.324384e-08    2.041460e-12    6.441120e-09   -2.328592e-01
    2.940697e+01    2.270744e+02    9.484195e-05    3.308949e+04    1.341470e-08    2.132418e-12    6.680350e-09   -2.278592e-01
    2.935083e+01    2.266970e+02    1.098491e-04    3.776024e+04    1.358947e-08    2.227224e-12    6.924240e-09   -2.228592e-01
    2.929123e+01    2.263014e+02    1.271941e-04    4.306786e+04    1.376802e-08    2.326016e-12    7.172595e-09   -2.178592e-01
    2.922804e+01    2.258876e+02    1.472327e-04    4.909574e+04    1.395019e-08    2.428937e-12    7.425210e-09   -2.128592e-01
    2.916113e+01    2.254563e+02    1.703727e-04    5.593756e+04    1.413582e-08    2.536132e-12    7.681875e-09   -2.078592e-01
    2.909038e+01    2.250080e+02    1.970818e-04    6.369859e+04    1.432473e-08    2.647751e-12    7.942350e-09   -2.028592e-01
    2.901567e+01    2.245435e+02    2.278952e-04    7.249688e+04    1.451672e-08    2.763946e-12    8.206390e-09   -1.978592e-01
    2.893692e+01    2.240644e+02    2.634251e-04    8.246494e+04    1.471161e-08    2.884875e-12    8.473750e-09   -1.928592e-01
    2.885406e+01    2.235722e+02    3.043712e-04    9.375121e+04    1.490918e-08    3.010699e-12    8.744155e-09   -1.878592e-01
    2.876699e+01    2.230689e+02    3.515326e-04    1.065217e+05    1.510922e-08    3.141582e-12    9.017330e-09   -1.828592e-01
    2.867573e+01    2.225575e+02    4.058206e-04    1.209624e+05    1.531152e-08    3.277693e-12    9.292990e-09   -1.778592e-01
    2.858024e+01    2.220411e+02    4.682735e-04    1.372810e+05    1.551583e-08    3.419204e-12    9.570845e-09   -1.728592e-01
    2.848056e+01    2.215232e+02    5.400740e-04    1.557097e+05    1.572195e-08    3.566292e-12    9.850600e-09   -1.678592e-01
    2.837674e+01    2.210087e+02    6.225670e-04    1.765077e+05    1.592961e-08    3.719138e-12    1.013195e-08   -1.628592e-01
    2.826886e+01    2.205026e+02    7.172805e-04    1.999642e+05    1.613858e-08    3.877927e-12    1.041460e-08   -1.578592e-01
    2.815708e+01    2.200112e+02    8.259495e-04    2.264018e+05    1.634864e-08    4.042850e-12    1.069823e-08   -1.528592e-01
    2.804157e+01    2.195411e+02    9.505415e-04    2.561804e+05    1.655952e-08    4.214099e-12    1.098254e-08   -1.478592e-01
    2.792254e+01    2.191004e+02    1.093286e-03    2.897012e+05    1.677099e-08    4.391875e-12    1.126722e-08   -1.428592e-01
    2.780022e+01    2.186976e+02    1.256709e-03    3.274112e+05    1.698281e-08    4.576382e-12    1.155198e-08   -1.378592e-01
    2.767494e+01    2.183425e+02    1.443666e-03    3.698092e+05    1.719474e-08    4.767827e-12    1.183649e-08   -1.328592e-01
    2.754699e+01    2.180456e+02    1.657385e-03    4.174506e+05    1.740654e-08    4.966425e-12    1.212048e-08   -1.278592e-01
    2.741673e+01    2.178186e+02    1.901516e-03    4.709550e+05    1.761799e-08    5.172395e-12    1.240366e-08   -1.228592e-01
    2.728451e+01    2.176735e+02    2.180175e-03    5.310118e+05    1.782886e-08    5.385965e-12    1.268572e-08   -1.178592e-01
    2.715073e+01    2.176240e+02    2.498009e-03    5.983911e+05    1.803892e-08    5.607360e-12    1.296641e-08   -1.128592e-01
    2.701573e+01    2.176839e+02    2.860254e-03    6.739493e+05    1.824796e-08    5.836815e-12    1.324545e-08   -1.078592e-01
    2.687983e+01    2.178673e+02    3.272813e-03    7.586400e+05    1.845577e-08    6.074580e-12    1.352260e-08   -1.028592e-01
    2.674332e+01    2.181891e+02    3.742327e-03    8.535236e+05    1.866215e-08    6.320900e-12    1.379759e-08   -9.785920e-02
    2.660641e+01    2.186643e+02    4.276275e-03    9.597786e+05    1.886691e-08    6.576030e-12    1.407019e-08   -9.285920e-02
    2.646922e+01    2.193076e+02    4.883056e-03    1.078711e+06    1.906988e-08    6.840230e-12    1.434019e-08   -8.785920e-02
    2.633174e+01    2.201330e+02    5.572110e-03    1.211764e+06    1.927087e-08    7.113770e-12    1.460736e-08   -8.285920e-02
    2.619385e+01    2.211542e+02    6.354020e-03    1.360530e+06    1.946972e-08    7.396925e-12    1.487151e-08   -7.785920e-02
    2.605522e+01    2.223834e+02    7.240650e-03    1.526757e+06    1.966629e-08    7.689985e-12    1.513245e-08   -7.285920e-02
    2.591540e+01    2.238311e+02    8.245255e-03    1.712354e+06    1.986042e-08    7.993235e-12    1.539001e-08   -6.785920e-02
    2.577370e+01    2.255063e+02    9.382645e-03    1.919398e+06    2.005198e-08    8.306980e-12    1.564403e-08   -6.285920e-02
    2.562931e+01    2.274150e+02    1.066930e-02    2.150128e+06    2.024085e-08    8.631520e-12    1.589437e-08   -5.785920e-02
    2.548117e+01    2.295610e+02    1.212354e-02    2.406944e+06    2.042692e-08    8.967185e-12    1.614087e-08   -5.285920e-02
    2.532811e+01    2.319446e+02    1.376562e-02    2.692396e+06    2.061009e-08    9.314290e-12    1.638344e-08   -4.785920e-02
    2.516879e+01    2.345628e+02    1.561793e-02    3.009165e+06    2.079025e-08    9.673175e-12    1.662196e-08   -4.285920e-02
    2.500176e+01    2.374089e+02    1.770504e-02    3.360039e+06    2.096734e-08    1.004419e-11    1.685632e-08   -3.785920e-02
    2.482555e+01    2.404725e+02    2.005386e-02    3.747880e+06    2.114128e-08    1.042768e-11    1.708648e-08   -3.285920e-02
    2.463863e+01    2.437390e+02    2.269369e-02    4.175586e+06    2.131201e-08    1.082403e-11    1.731233e-08   -2.785920e-02
    2.443957e+01    2.471906e+02    2.565627e-02    4.646046e+06    2.147947e-08    1.123360e-11    1.753383e-08   -2.285920e-02
    2.422698e+01    2.508049e+02    2.897577e-02    5.162077e+06    2.164363e-08    1.165679e-11    1.775093e-08   -1.785920e-02
    2.399968e+01    2.545568e+02    3.268882e-02    5.726376e+06    2.180444e-08    1.209400e-11    1.796359e-08   -1.285920e-02
    2.375665e+01    2.584178e+02    3.683434e-02    6.341452e+06    2.196188e-08    1.254564e-11    1.817179e-08   -7.859200e-03
    2.349715e+01    2.623568e+02    4.145349e-02    7.009568e+06    2.211593e-08    1.301215e-11    1.837553e-08   -2.859200e-03
    2.322070e+01    2.663407e+02    4.658943e-02    7.732666e+06    2.226659e-08    1.349396e-11    1.857479e-08    2.140800e-03
    2.292710e+01    2.703346e+02    5.228715e-02    8.512319e+06    2.241384e-08    1.399153e-11    1.876957e-08    7.140800e-03
    2.261646e+01    2.743031e+02    5.859305e-02    9.349668e+06    2.255770e-08    1.450533e-11    1.895989e-08    1.214080e-02
    2.228918e+01    2.782102e+02    6.555485e-02    1.024539e+07    2.269817e-08    1.503584e-11    1.914577e-08    1.714080e-02
    2.194596e+01    2.820208e+02    7.322095e-02    1.119964e+07    2.283526e-08    1.558358e-11    1.932723e-08    2.214080e-02
    2.158775e+01    2.857011e+02    8.164020e-02    1.221208e+07    2.296900e-08    1.614905e-11    1.950432e-08    2.714080e-02
    2.121571e+01    2.892181e+02    9.086145e-02    1.328178e+07    2.309942e-08    1.673279e-11    1.967706e-08    3.214080e-02
    2.083120e+01    2.925420e+02    1.009331e-01    1.440734e+07    2.322655e-08    1.733536e-11    1.984552e-08    3.714080e-02
    2.043576e+01    2.956455e+02    1.119027e-01    1.558680e+07    2.335042e-08    1.795731e-11    2.000973e-08    4.214080e-02
    2.003096e+01    2.985040e+02    1.238164e-01    1.681773e+07    2.347107e-08    1.859927e-11    2.016976e-08    4.714080e-02
    1.961852e+01    3.010967e+02    1.367189e-01    1.809729e+07    2.358855e-08    1.926182e-11    2.032568e-08    5.214080e-02
    1.920013e+01    3.034063e+02    1.506525e-01    1.942223e+07    2.370290e-08    1.994560e-11    2.047754e-08    5.714080e-02
    1.877752e+01    3.054193e+02    1.656573e-01    2.078898e+07    2.381418e-08    2.065126e-11    2.062540e-08    6.214080e-02
    1.835236e+01    3.071255e+02    1.817708e-01    2.219375e+07    2.392243e-08    2.137949e-11    2.076935e-08    6.714080e-02
    1.792624e+01    3.085182e+02    1.990275e-01    2.363251e+07    2.402772e-08    2.213099e-11    2.090946e-08    7.214080e-02
    1.750071e+01    3.095949e+02    2.174589e-01    2.510118e+07    2.413009e-08    2.290647e-11    2.104581e-08    7.714080e-02
    1.707719e+01    3.103555e+02    2.370932e-01    2.659557e+07    2.422960e-08    2.370669e-11    2.117846e-08    8.214080e-02
    1.665699e+01    3.108031e+02    2.579555e-01    2.811157e+07    2.432632e-08    2.453242e-11    2.130751e-08    8.714080e-02
    1.624131e+01    3.109434e+02    2.800675e-01    2.964510e+07    2.442031e-08    2.538449e-11    2.143302e-08    9.214080e-02
    1.583122e+01    3.107848e+02    3.034478e-01    3.119224e+07    2.451162e-08    2.626370e-11    2.155509e-08    9.714080e-02
    1.542766e+01    3.103369e+02    3.281117e-01    3.274922e+07    2.460032e-08    2.717092e-11    2.167380e-08    1.021408e-01
    1.503147e+01    3.096121e+02    3.540714e-01    3.431257e+07    2.468648e-08    2.810705e-11    2.178922e-08    1.071408e-01
    1.464333e+01    3.086228e+02    3.813364e-01    3.587893e+07    2.477016e-08    2.907302e-11    2.190146e-08    1.121408e-01
    1.426384e+01    3.073835e+02    4.099136e-01    3.744533e+07    2.485142e-08    3.006977e-11    2.201057e-08    1.171408e-01
    1.389345e+01    3.059086e+02    4.398068e-01    3.900897e+07    2.493032e-08    3.109831e-11    2.211664e-08    1.221408e-01
    1.353258e+01    3.042140e+02    4.710182e-01    4.056749e+07    2.500692e-08    3.215967e-11    2.221977e-08    1.271408e-01
    1.318147e+01    3.023146e+02    5.035475e-01    4.211864e+07    2.508129e-08    3.325491e-11    2.232002e-08    1.321408e-01
    1.284036e+01    3.002263e+02    5.373920e-01    4.366062e+07    2.515350e-08    3.438513e-11    2.241749e-08    1.371408e-01
    1.250934e+01    2.979643e+02    5.725490e-01    4.519183e+07    2.522361e-08    3.555149e-11    2.251225e-08    1.421408e-01
    1.218849e+01    2.955434e+02    6.090120e-01    4.671091e+07    2.529167e-08    3.675517e-11    2.260437e-08    1.471408e-01
    1.187778e+01    2.929782e+02    6.467760e-01    4.821682e+07    2.535774e-08    3.799740e-11    2.269394e-08    1.521408e-01
    1.157717e+01    2.902827e+02    6.858320e-01    4.970871e+07    2.542189e-08    3.927946e-11    2.278103e-08    1.571408e-01
    1.128655e+01    2.874701e+02    7.261730e-01    5.118594e+07    2.548418e-08    4.060267e-11    2.286572e-08    1.621408e-01
    1.100578e+01    2.845531e+02    7.677890e-01    5.264814e+07    2.554465e-08    4.196841e-11    2.294808e-08    1.671408e-01
