# sky130 nfet_01v8 gm/ID Processed Lookup Table
# Corner: ss
# Temperature: 0C
# W = 2.0 um
# L = 2.52 um (2520 nm)
# Columns: gm/id [1/V]  gm/gds [V/V]  id/W [A/m]  ft [Hz]  Cgg/W [F/m]  Cgd/W [F/m]  Cgs/W [F/m]  Vov [V]
#         gm/id          gm/gds            id/W              ft           Cgg/W           Cgd/W           Cgs/W             Vov
    2.960703e+01    1.644719e+02    3.358954e-09    2.965960e+00    5.336465e-09    5.127830e-14    1.534599e-10   -5.971207e-01
    2.960676e+01    1.644704e+02    3.894884e-09    3.447150e+00    5.324090e-09    5.328445e-14    1.591549e-10   -5.921207e-01
    2.960648e+01    1.644689e+02    4.516318e-09    4.006139e+00    5.312090e-09    5.537210e-14    1.651228e-10   -5.871207e-01
    2.960618e+01    1.644672e+02    5.236895e-09    4.655458e+00    5.300465e-09    5.754485e-14    1.713789e-10   -5.821207e-01
    2.960585e+01    1.644653e+02    6.072430e-09    5.409627e+00    5.289235e-09    5.980660e-14    1.779394e-10   -5.771207e-01
    2.960550e+01    1.644634e+02    7.041260e-09    6.285505e+00    5.278405e-09    6.216135e-14    1.848209e-10   -5.721207e-01
    2.960511e+01    1.644612e+02    8.164650e-09    7.302632e+00    5.267990e-09    6.461325e-14    1.920413e-10   -5.671207e-01
    2.960470e+01    1.644589e+02    9.467250e-09    8.483674e+00    5.258000e-09    6.716670e-14    1.996201e-10   -5.621207e-01
    2.960426e+01    1.644565e+02    1.097764e-08    9.854901e+00    5.248450e-09    6.982640e-14    2.075773e-10   -5.571207e-01
    2.960377e+01    1.644538e+02    1.272897e-08    1.144676e+01    5.239355e-09    7.259715e-14    2.159339e-10   -5.521207e-01
    2.960326e+01    1.644510e+02    1.475967e-08    1.329456e+01    5.230730e-09    7.548400e-14    2.247120e-10   -5.471207e-01
    2.960271e+01    1.644479e+02    1.711428e-08    1.543918e+01    5.222590e-09    7.849240e-14    2.339350e-10   -5.421207e-01
    2.960210e+01    1.644445e+02    1.984447e-08    1.792801e+01    5.214950e-09    8.162785e-14    2.436272e-10   -5.371207e-01
    2.960147e+01    1.644411e+02    2.301013e-08    2.081592e+01    5.207830e-09    8.489625e-14    2.538145e-10   -5.321207e-01
    2.960078e+01    1.644372e+02    2.668069e-08    2.416643e+01    5.201250e-09    8.830385e-14    2.645237e-10   -5.271207e-01
    2.960004e+01    1.644331e+02    3.093667e-08    2.805314e+01    5.195225e-09    9.185700e-14    2.757832e-10   -5.221207e-01
    2.959924e+01    1.644287e+02    3.587140e-08    3.256114e+01    5.189785e-09    9.556255e-14    2.876226e-10   -5.171207e-01
    2.959837e+01    1.644238e+02    4.159310e-08    3.778897e+01    5.184945e-09    9.942755e-14    3.000731e-10   -5.121207e-01
    2.959745e+01    1.644187e+02    4.822723e-08    4.385058e+01    5.180735e-09    1.034596e-13    3.131671e-10   -5.071207e-01
    2.959644e+01    1.644132e+02    5.591925e-08    5.087778e+01    5.177175e-09    1.076664e-13    3.269389e-10   -5.021207e-01
    2.959538e+01    1.644072e+02    6.483775e-08    5.902300e+01    5.174290e-09    1.120561e-13    3.414238e-10   -4.971207e-01
    2.959423e+01    1.644009e+02    7.517825e-08    6.846233e+01    5.172110e-09    1.166374e-13    3.566591e-10   -4.921207e-01
    2.959298e+01    1.643940e+02    8.716740e-08    7.939935e+01    5.170660e-09    1.214193e-13    3.726835e-10   -4.871207e-01
    2.959165e+01    1.643866e+02    1.010679e-07    9.206909e+01    5.169975e-09    1.264113e-13    3.895374e-10   -4.821207e-01
    2.959021e+01    1.643786e+02    1.171842e-07    1.067430e+02    5.170085e-09    1.316231e-13    4.072627e-10   -4.771207e-01
    2.958866e+01    1.643700e+02    1.358694e-07    1.237345e+02    5.171020e-09    1.370653e-13    4.259032e-10   -4.721207e-01
    2.958700e+01    1.643608e+02    1.575327e-07    1.434052e+02    5.172815e-09    1.427486e-13    4.455044e-10   -4.671207e-01
    2.958521e+01    1.643510e+02    1.826485e-07    1.661721e+02    5.175505e-09    1.486844e-13    4.661131e-10   -4.621207e-01
    2.958327e+01    1.643402e+02    2.117667e-07    1.925161e+02    5.179130e-09    1.548847e-13    4.877783e-10   -4.571207e-01
    2.958120e+01    1.643287e+02    2.455243e-07    2.229916e+02    5.183725e-09    1.613618e-13    5.105505e-10   -4.521207e-01
    2.957898e+01    1.643164e+02    2.846603e-07    2.582375e+02    5.189325e-09    1.681289e-13    5.344815e-10   -4.471207e-01
    2.957656e+01    1.643030e+02    3.300306e-07    2.989885e+02    5.195980e-09    1.751995e-13    5.596255e-10   -4.421207e-01
    2.957397e+01    1.642888e+02    3.826275e-07    3.460921e+02    5.203725e-09    1.825879e-13    5.860370e-10   -4.371207e-01
    2.957120e+01    1.642734e+02    4.436007e-07    4.005221e+02    5.212605e-09    1.903091e-13    6.137740e-10   -4.321207e-01
    2.956819e+01    1.642569e+02    5.142830e-07    4.633984e+02    5.222670e-09    1.983786e-13    6.428945e-10   -4.271207e-01
    2.956499e+01    1.642391e+02    5.962180e-07    5.360101e+02    5.233955e-09    2.068127e-13    6.734585e-10   -4.221207e-01
    2.956152e+01    1.642200e+02    6.911955e-07    6.198355e+02    5.246520e-09    2.156284e-13    7.055265e-10   -4.171207e-01
    2.955779e+01    1.641994e+02    8.012885e-07    7.165760e+02    5.260400e-09    2.248436e-13    7.391615e-10   -4.121207e-01
    2.955377e+01    1.641773e+02    9.288995e-07    8.281813e+02    5.275655e-09    2.344768e-13    7.744265e-10   -4.071207e-01
    2.954946e+01    1.641535e+02    1.076810e-06    9.568910e+02    5.292325e-09    2.445472e-13    8.113860e-10   -4.021207e-01
    2.954482e+01    1.641280e+02    1.248246e-06    1.105271e+03    5.310470e-09    2.550750e-13    8.501055e-10   -3.971207e-01
    2.953984e+01    1.641005e+02    1.446940e-06    1.276265e+03    5.330130e-09    2.660814e-13    8.906510e-10   -3.921207e-01
    2.953447e+01    1.640710e+02    1.677218e-06    1.473242e+03    5.351370e-09    2.775882e-13    9.330880e-10   -3.871207e-01
    2.952870e+01    1.640393e+02    1.944092e-06    1.700063e+03    5.374230e-09    2.896182e-13    9.774835e-10   -3.821207e-01
    2.952249e+01    1.640052e+02    2.253361e-06    1.961143e+03    5.398770e-09    3.021952e-13    1.023904e-09   -3.771207e-01
    2.951582e+01    1.639687e+02    2.611747e-06    2.261536e+03    5.425035e-09    3.153441e-13    1.072415e-09   -3.721207e-01
    2.950865e+01    1.639293e+02    3.027026e-06    2.607016e+03    5.453080e-09    3.290903e-13    1.123084e-09   -3.671207e-01
    2.950095e+01    1.638872e+02    3.508206e-06    3.004181e+03    5.482960e-09    3.434608e-13    1.175973e-09   -3.621207e-01
    2.949266e+01    1.638419e+02    4.065713e-06    3.460568e+03    5.514720e-09    3.584832e-13    1.231148e-09   -3.571207e-01
    2.948376e+01    1.637934e+02    4.711614e-06    3.984782e+03    5.548405e-09    3.741865e-13    1.288670e-09   -3.521207e-01
    2.947420e+01    1.637412e+02    5.459875e-06    4.586629e+03    5.584075e-09    3.906005e-13    1.348600e-09   -3.471207e-01
    2.946392e+01    1.636853e+02    6.326655e-06    5.277299e+03    5.621770e-09    4.077563e-13    1.410996e-09   -3.421207e-01
    2.945291e+01    1.636253e+02    7.330645e-06    6.069552e+03    5.661530e-09    4.256861e-13    1.475914e-09   -3.371207e-01
    2.944106e+01    1.635610e+02    8.493480e-06    6.977898e+03    5.703410e-09    4.444234e-13    1.543407e-09   -3.321207e-01
    2.942834e+01    1.634922e+02    9.840170e-06    8.018893e+03    5.747435e-09    4.640025e-13    1.613524e-09   -3.271207e-01
    2.941469e+01    1.634184e+02    1.139963e-05    9.211335e+03    5.793655e-09    4.844593e-13    1.686311e-09   -3.221207e-01
    2.940004e+01    1.633394e+02    1.320530e-05    1.057664e+04    5.842095e-09    5.058310e-13    1.761810e-09   -3.171207e-01
    2.938434e+01    1.632548e+02    1.529582e-05    1.213913e+04    5.892795e-09    5.281550e-13    1.840058e-09   -3.121207e-01
    2.936749e+01    1.631644e+02    1.771585e-05    1.392645e+04    5.945775e-09    5.514720e-13    1.921089e-09   -3.071207e-01
    2.934944e+01    1.630677e+02    2.051697e-05    1.597001e+04    6.001060e-09    5.758220e-13    2.004928e-09   -3.021207e-01
    2.933005e+01    1.629643e+02    2.375877e-05    1.830542e+04    6.058670e-09    6.012475e-13    2.091597e-09   -2.971207e-01
    2.930933e+01    1.628540e+02    2.751003e-05    2.097315e+04    6.118620e-09    6.277915e-13    2.181113e-09   -2.921207e-01
    2.928711e+01    1.627362e+02    3.185016e-05    2.401901e+04    6.180920e-09    6.554990e-13    2.273484e-09   -2.871207e-01
    2.926333e+01    1.626106e+02    3.687077e-05    2.749500e+04    6.245575e-09    6.844165e-13    2.368714e-09   -2.821207e-01
    2.923789e+01    1.624768e+02    4.267755e-05    3.146000e+04    6.312580e-09    7.145910e-13    2.466796e-09   -2.771207e-01
    2.921067e+01    1.623343e+02    4.939233e-05    3.598066e+04    6.381930e-09    7.460710e-13    2.567721e-09   -2.721207e-01
    2.918158e+01    1.621827e+02    5.715555e-05    4.113243e+04    6.453615e-09    7.789075e-13    2.671470e-09   -2.671207e-01
    2.915052e+01    1.620216e+02    6.612900e-05    4.700064e+04    6.527615e-09    8.131525e-13    2.778015e-09   -2.621207e-01
    2.911732e+01    1.618507e+02    7.649905e-05    5.368171e+04    6.603910e-09    8.488580e-13    2.887321e-09   -2.571207e-01
    2.908192e+01    1.616693e+02    8.848005e-05    6.128471e+04    6.682460e-09    8.860790e-13    2.999348e-09   -2.521207e-01
    2.904416e+01    1.614773e+02    1.023188e-04    6.993258e+04    6.763240e-09    9.248715e-13    3.114044e-09   -2.471207e-01
    2.900394e+01    1.612743e+02    1.182989e-04    7.976424e+04    6.846200e-09    9.652935e-13    3.231351e-09   -2.421207e-01
    2.896110e+01    1.610599e+02    1.367464e-04    9.093629e+04    6.931290e-09    1.007403e-12    3.351201e-09   -2.371207e-01
    2.891555e+01    1.608339e+02    1.580358e-04    1.036252e+05    7.018455e-09    1.051262e-12    3.473523e-09   -2.321207e-01
    2.886714e+01    1.605961e+02    1.825966e-04    1.180296e+05    7.107640e-09    1.096930e-12    3.598233e-09   -2.271207e-01
    2.881574e+01    1.603464e+02    2.109219e-04    1.343735e+05    7.198765e-09    1.144472e-12    3.725241e-09   -2.221207e-01
    2.876124e+01    1.600848e+02    2.435766e-04    1.529080e+05    7.291770e-09    1.193953e-12    3.854451e-09   -2.171207e-01
    2.870350e+01    1.598113e+02    2.812080e-04    1.739163e+05    7.386565e-09    1.245439e-12    3.985759e-09   -2.121207e-01
    2.864241e+01    1.595261e+02    3.245569e-04    1.977156e+05    7.483065e-09    1.298998e-12    4.119054e-09   -2.071207e-01
    2.857786e+01    1.592297e+02    3.744705e-04    2.246622e+05    7.581190e-09    1.354700e-12    4.254218e-09   -2.021207e-01
    2.850977e+01    1.589227e+02    4.319170e-04    2.551560e+05    7.680835e-09    1.412617e-12    4.391130e-09   -1.971207e-01
    2.843802e+01    1.586057e+02    4.980022e-04    2.896442e+05    7.781905e-09    1.472821e-12    4.529659e-09   -1.921207e-01
    2.836256e+01    1.582799e+02    5.739875e-04    3.286282e+05    7.884300e-09    1.535386e-12    4.669674e-09   -1.871207e-01
    2.828333e+01    1.579465e+02    6.613110e-04    3.726692e+05    7.987905e-09    1.600390e-12    4.811035e-09   -1.821207e-01
    2.820030e+01    1.576071e+02    7.616100e-04    4.223939e+05    8.092615e-09    1.667909e-12    4.953602e-09   -1.771207e-01
    2.811345e+01    1.572637e+02    8.767490e-04    4.785030e+05    8.198320e-09    1.738024e-12    5.097230e-09   -1.721207e-01
    2.802281e+01    1.569186e+02    1.008847e-03    5.417798e+05    8.304895e-09    1.810816e-12    5.241770e-09   -1.671207e-01
    2.792841e+01    1.565746e+02    1.160310e-03    6.130971e+05    8.412230e-09    1.886367e-12    5.387070e-09   -1.621207e-01
    2.783033e+01    1.562348e+02    1.333871e-03    6.934297e+05    8.520205e-09    1.964765e-12    5.532985e-09   -1.571207e-01
    2.772869e+01    1.559032e+02    1.532629e-03    7.838652e+05    8.628695e-09    2.046094e-12    5.679365e-09   -1.521207e-01
    2.762362e+01    1.555837e+02    1.760093e-03    8.856143e+05    8.737590e-09    2.130446e-12    5.826045e-09   -1.471207e-01
    2.751530e+01    1.552814e+02    2.020238e-03    1.000029e+06    8.846760e-09    2.217909e-12    5.972885e-09   -1.421207e-01
    2.740398e+01    1.550017e+02    2.317560e-03    1.128615e+06    8.956095e-09    2.308578e-12    6.119735e-09   -1.371207e-01
    2.728987e+01    1.547504e+02    2.657140e-03    1.273051e+06    9.065470e-09    2.402548e-12    6.266440e-09   -1.321207e-01
    2.717329e+01    1.545344e+02    3.044721e-03    1.435208e+06    9.174770e-09    2.499914e-12    6.412855e-09   -1.271207e-01
    2.705453e+01    1.543607e+02    3.486784e-03    1.617170e+06    9.283880e-09    2.600778e-12    6.558840e-09   -1.221207e-01
    2.693393e+01    1.542372e+02    3.990640e-03    1.821262e+06    9.392690e-09    2.705241e-12    6.704255e-09   -1.171207e-01
    2.681183e+01    1.541723e+02    4.564534e-03    2.050074e+06    9.501090e-09    2.813408e-12    6.848955e-09   -1.121207e-01
    2.668854e+01    1.541747e+02    5.217760e-03    2.306493e+06    9.608970e-09    2.925383e-12    6.992820e-09   -1.071207e-01
    2.656444e+01    1.542539e+02    5.960775e-03    2.593734e+06    9.716235e-09    3.041279e-12    7.135715e-09   -1.021207e-01
    2.643976e+01    1.544191e+02    6.805365e-03    2.915378e+06    9.822775e-09    3.161205e-12    7.277520e-09   -9.712070e-02
    2.631476e+01    1.546801e+02    7.764775e-03    3.275402e+06    9.928505e-09    3.285276e-12    7.418120e-09   -9.212070e-02
    2.618959e+01    1.550466e+02    8.853905e-03    3.678230e+06    1.003333e-08    3.413610e-12    7.557400e-09   -8.712070e-02
    2.606432e+01    1.555280e+02    1.008948e-02    4.128754e+06    1.013716e-08    3.546328e-12    7.695250e-09   -8.212070e-02
    2.593888e+01    1.561331e+02    1.149028e-02    4.632395e+06    1.023992e-08    3.683552e-12    7.831585e-09   -7.712070e-02
    2.581309e+01    1.568705e+02    1.307735e-02    5.195119e+06    1.034152e-08    3.825409e-12    7.966295e-09   -7.212070e-02
    2.568659e+01    1.577475e+02    1.487425e-02    5.823469e+06    1.044191e-08    3.972029e-12    8.099305e-09   -6.712070e-02
    2.555886e+01    1.587703e+02    1.690730e-02    6.524598e+06    1.054101e-08    4.123545e-12    8.230535e-09   -6.212070e-02
    2.542919e+01    1.599436e+02    1.920588e-02    7.306279e+06    1.063875e-08    4.280094e-12    8.359905e-09   -5.712070e-02
    2.529669e+01    1.612703e+02    2.180268e-02    8.176889e+06    1.073509e-08    4.441815e-12    8.487345e-09   -5.212070e-02
    2.516033e+01    1.627516e+02    2.473396e-02    9.145410e+06    1.082996e-08    4.608855e-12    8.612805e-09   -4.712070e-02
    2.501886e+01    1.643858e+02    2.803987e-02    1.022136e+07    1.092333e-08    4.781360e-12    8.736220e-09   -4.212070e-02
    2.487096e+01    1.661693e+02    3.176468e-02    1.141475e+07    1.101516e-08    4.959483e-12    8.857550e-09   -3.712070e-02
    2.471517e+01    1.680959e+02    3.595701e-02    1.273601e+07    1.110539e-08    5.143380e-12    8.976750e-09   -3.212070e-02
    2.455002e+01    1.701562e+02    4.067002e-02    1.419583e+07    1.119401e-08    5.333210e-12    9.093780e-09   -2.712070e-02
    2.437397e+01    1.723385e+02    4.596158e-02    1.580501e+07    1.128098e-08    5.529145e-12    9.208615e-09   -2.212070e-02
    2.418558e+01    1.746284e+02    5.189435e-02    1.757431e+07    1.136628e-08    5.731350e-12    9.321225e-09   -1.712070e-02
    2.398349e+01    1.770088e+02    5.853580e-02    1.951428e+07    1.144989e-08    5.940000e-12    9.431595e-09   -1.212070e-02
    2.376649e+01    1.794602e+02    6.595815e-02    2.163498e+07    1.153180e-08    6.155280e-12    9.539715e-09   -7.120700e-03
    2.353360e+01    1.819613e+02    7.423810e-02    2.394574e+07    1.161200e-08    6.377370e-12    9.645565e-09   -2.120700e-03
    2.328403e+01    1.844890e+02    8.345675e-02    2.645498e+07    1.169048e-08    6.606470e-12    9.749150e-09    2.879300e-03
    2.301728e+01    1.870186e+02    9.369915e-02    2.916993e+07    1.176724e-08    6.842765e-12    9.850465e-09    7.879300e-03
    2.273315e+01    1.895250e+02    1.050538e-01    3.209642e+07    1.184227e-08    7.086470e-12    9.949515e-09    1.287930e-02
    2.243171e+01    1.919824e+02    1.176121e-01    3.523865e+07    1.191558e-08    7.337790e-12    1.004631e-08    1.787930e-02
    2.211333e+01    1.943653e+02    1.314677e-01    3.859905e+07    1.198717e-08    7.596940e-12    1.014087e-08    2.287930e-02
    2.177868e+01    1.966489e+02    1.467158e-01    4.217813e+07    1.205706e-08    7.864140e-12    1.023319e-08    2.787930e-02
    2.142867e+01    1.988093e+02    1.634525e-01    4.597437e+07    1.212526e-08    8.139630e-12    1.032331e-08    3.287930e-02
    2.106443e+01    2.008243e+02    1.817734e-01    4.998423e+07    1.219178e-08    8.423635e-12    1.041124e-08    3.787930e-02
    2.068730e+01    2.026735e+02    2.017733e-01    5.420213e+07    1.225664e-08    8.716405e-12    1.049701e-08    4.287930e-02
    2.029875e+01    2.043389e+02    2.235455e-01    5.862055e+07    1.231985e-08    9.018195e-12    1.058064e-08    4.787930e-02
    1.990040e+01    2.058050e+02    2.471799e-01    6.323006e+07    1.238145e-08    9.329260e-12    1.066217e-08    5.287930e-02
    1.949388e+01    2.070589e+02    2.727635e-01    6.801963e+07    1.244144e-08    9.649875e-12    1.074162e-08    5.787930e-02
    1.908094e+01    2.080907e+02    3.003789e-01    7.297673e+07    1.249985e-08    9.980315e-12    1.081903e-08    6.287930e-02
    1.866326e+01    2.088930e+02    3.301036e-01    7.808760e+07    1.255671e-08    1.032087e-11    1.089443e-08    6.787930e-02
    1.824252e+01    2.094614e+02    3.620101e-01    8.333738e+07    1.261205e-08    1.067182e-11    1.096786e-08    7.287930e-02
    1.782035e+01    2.097942e+02    3.961645e-01    8.871078e+07    1.266589e-08    1.103350e-11    1.103936e-08    7.787930e-02
    1.739828e+01    2.098922e+02    4.326269e-01    9.419167e+07    1.271826e-08    1.140619e-11    1.110896e-08    8.287930e-02
    1.697776e+01    2.097585e+02    4.714508e-01    9.976399e+07    1.276919e-08    1.179025e-11    1.117670e-08    8.787930e-02
    1.656016e+01    2.093985e+02    5.126830e-01    1.054118e+08    1.281871e-08    1.218601e-11    1.124263e-08    9.287930e-02
    1.614665e+01    2.088192e+02    5.563640e-01    1.111194e+08    1.286684e-08    1.259380e-11    1.130677e-08    9.787930e-02
    1.573836e+01    2.080294e+02    6.025275e-01    1.168714e+08    1.291363e-08    1.301399e-11    1.136919e-08    1.028793e-01
    1.533627e+01    2.070390e+02    6.512000e-01    1.226534e+08    1.295910e-08    1.344697e-11    1.142990e-08    1.078793e-01
    1.494123e+01    2.058593e+02    7.024035e-01    1.284518e+08    1.300328e-08    1.389311e-11    1.148897e-08    1.128793e-01
    1.455397e+01    2.045023e+02    7.561520e-01    1.342538e+08    1.304621e-08    1.435281e-11    1.154642e-08    1.178793e-01
    1.417511e+01    2.029803e+02    8.124560e-01    1.400478e+08    1.308791e-08    1.482649e-11    1.160229e-08    1.228793e-01
    1.380518e+01    2.013061e+02    8.713190e-01    1.458233e+08    1.312842e-08    1.531455e-11    1.165664e-08    1.278793e-01
    1.344455e+01    1.994926e+02    9.327420e-01    1.515709e+08    1.316777e-08    1.581747e-11    1.170950e-08    1.328793e-01
    1.309355e+01    1.975527e+02    9.967200e-01    1.572823e+08    1.320598e-08    1.633569e-11    1.176090e-08    1.378793e-01
    1.275240e+01    1.954993e+02    1.063245e+00    1.629506e+08    1.324310e-08    1.686966e-11    1.181090e-08    1.428793e-01
    1.242126e+01    1.933445e+02    1.132305e+00    1.685695e+08    1.327915e-08    1.741991e-11    1.185952e-08    1.478793e-01
    1.210020e+01    1.911004e+02    1.203886e+00    1.741343e+08    1.331416e-08    1.798692e-11    1.190682e-08    1.528793e-01
    1.178923e+01    1.887782e+02    1.277972e+00    1.796411e+08    1.334816e-08    1.857122e-11    1.195282e-08    1.578793e-01
