# sky130 nfet_01v8 gm/ID Processed Lookup Table
# Corner: ss
# Temperature: 0C
# W = 2.0 um
# L = 2.34 um (2340 nm)
# Columns: gm/id [1/V]  gm/gds [V/V]  id/W [A/m]  ft [Hz]  Cgg/W [F/m]  Cgd/W [F/m]  Cgs/W [F/m]  Vov [V]
#         gm/id          gm/gds            id/W              ft           Cgg/W           Cgd/W           Cgs/W             Vov
    2.946789e+01    1.577148e+02    3.710551e-09    3.503336e+00    4.967361e-09    4.784283e-14    1.445684e-10   -5.979483e-01
    2.946764e+01    1.577134e+02    4.299587e-09    4.068814e+00    4.955922e-09    4.970743e-14    1.499325e-10   -5.929483e-01
    2.946735e+01    1.577120e+02    4.982126e-09    4.725246e+00    4.944831e-09    5.164755e-14    1.555528e-10   -5.879483e-01
    2.946705e+01    1.577103e+02    5.773005e-09    5.487204e+00    4.934096e-09    5.366655e-14    1.614440e-10   -5.829483e-01
    2.946673e+01    1.577086e+02    6.689420e-09    6.371573e+00    4.923725e-09    5.576800e-14    1.676209e-10   -5.779483e-01
    2.946637e+01    1.577067e+02    7.751295e-09    7.397922e+00    4.913730e-09    5.795550e-14    1.740988e-10   -5.729483e-01
    2.946599e+01    1.577046e+02    8.981715e-09    8.588934e+00    4.904120e-09    6.023300e-14    1.808950e-10   -5.679483e-01
    2.946558e+01    1.577024e+02    1.040742e-08    9.970888e+00    4.894909e-09    6.260455e-14    1.880273e-10   -5.629483e-01
    2.946513e+01    1.577001e+02    1.205943e-08    1.157423e+01    4.886109e-09    6.507440e-14    1.955144e-10   -5.579483e-01
    2.946466e+01    1.576975e+02    1.397362e-08    1.343422e+01    4.877732e-09    6.764705e-14    2.033757e-10   -5.529483e-01
    2.946415e+01    1.576948e+02    1.619161e-08    1.559170e+01    4.869792e-09    7.032720e-14    2.116318e-10   -5.479483e-01
    2.946360e+01    1.576919e+02    1.876160e-08    1.809397e+01    4.862306e-09    7.311970e-14    2.203045e-10   -5.429483e-01
    2.946300e+01    1.576886e+02    2.173946e-08    2.099572e+01    4.855288e-09    7.602980e-14    2.294164e-10   -5.379483e-01
    2.946237e+01    1.576853e+02    2.518988e-08    2.436036e+01    4.848754e-09    7.906285e-14    2.389914e-10   -5.329483e-01
    2.946168e+01    1.576816e+02    2.918785e-08    2.826116e+01    4.842724e-09    8.222455e-14    2.490545e-10   -5.279483e-01
    2.946095e+01    1.576776e+02    3.382023e-08    3.278295e+01    4.837215e-09    8.552085e-14    2.596320e-10   -5.229483e-01
    2.946015e+01    1.576734e+02    3.918766e-08    3.802378e+01    4.832248e-09    8.895800e-14    2.707515e-10   -5.179483e-01
    2.945929e+01    1.576688e+02    4.540674e-08    4.409708e+01    4.827841e-09    9.254250e-14    2.824416e-10   -5.129483e-01
    2.945839e+01    1.576640e+02    5.261255e-08    5.113397e+01    4.824018e-09    9.628130e-14    2.947327e-10   -5.079483e-01
    2.945740e+01    1.576587e+02    6.096160e-08    5.928591e+01    4.820803e-09    1.001815e-13    3.076561e-10   -5.029483e-01
    2.945633e+01    1.576530e+02    7.063520e-08    6.872799e+01    4.818217e-09    1.042507e-13    3.212448e-10   -4.979483e-01
    2.945519e+01    1.576469e+02    8.184340e-08    7.966236e+01    4.816287e-09    1.084967e-13    3.355332e-10   -4.929483e-01
    2.945396e+01    1.576403e+02    9.482950e-08    9.232247e+01    4.815039e-09    1.129280e-13    3.505571e-10   -4.879483e-01
    2.945264e+01    1.576333e+02    1.098754e-07    1.069778e+02    4.814501e-09    1.175530e-13    3.663537e-10   -4.829483e-01
    2.945122e+01    1.576257e+02    1.273076e-07    1.239392e+02    4.814701e-09    1.223810e-13    3.829620e-10   -4.779483e-01
    2.944969e+01    1.576176e+02    1.475046e-07    1.435653e+02    4.815669e-09    1.274213e-13    4.004222e-10   -4.729483e-01
    2.944804e+01    1.576088e+02    1.709042e-07    1.662697e+02    4.817438e-09    1.326841e-13    4.187762e-10   -4.679483e-01
    2.944628e+01    1.575994e+02    1.980143e-07    1.925292e+02    4.820039e-09    1.381796e-13    4.380675e-10   -4.629483e-01
    2.944437e+01    1.575892e+02    2.294227e-07    2.228927e+02    4.823506e-09    1.439189e-13    4.583410e-10   -4.579483e-01
    2.944232e+01    1.575783e+02    2.658103e-07    2.579930e+02    4.827874e-09    1.499132e-13    4.796432e-10   -4.529483e-01
    2.944011e+01    1.575665e+02    3.079659e-07    2.985584e+02    4.833178e-09    1.561747e-13    5.020220e-10   -4.479483e-01
    2.943775e+01    1.575539e+02    3.568029e-07    3.454270e+02    4.839459e-09    1.627158e-13    5.255275e-10   -4.429483e-01
    2.943520e+01    1.575403e+02    4.133795e-07    3.995630e+02    4.846753e-09    1.695495e-13    5.502095e-10   -4.379483e-01
    2.943246e+01    1.575257e+02    4.789208e-07    4.620746e+02    4.855101e-09    1.766895e-13    5.761215e-10   -4.329483e-01
    2.942950e+01    1.575101e+02    5.548460e-07    5.342364e+02    4.864543e-09    1.841501e-13    6.033170e-10   -4.279483e-01
    2.942634e+01    1.574932e+02    6.427975e-07    6.175117e+02    4.875122e-09    1.919461e-13    6.318505e-10   -4.229483e-01
    2.942292e+01    1.574750e+02    7.446790e-07    7.135810e+02    4.886881e-09    2.000932e-13    6.617785e-10   -4.179483e-01
    2.941925e+01    1.574555e+02    8.626930e-07    8.243735e+02    4.899863e-09    2.086075e-13    6.931585e-10   -4.129483e-01
    2.941531e+01    1.574346e+02    9.993900e-07    9.521018e+02    4.914114e-09    2.175061e-13    7.260480e-10   -4.079483e-01
    2.941107e+01    1.574120e+02    1.157724e-06    1.099303e+03    4.929680e-09    2.268065e-13    7.605070e-10   -4.029483e-01
    2.940650e+01    1.573878e+02    1.341114e-06    1.268883e+03    4.946606e-09    2.365274e-13    7.965950e-10   -3.979483e-01
    2.940160e+01    1.573618e+02    1.553516e-06    1.464174e+03    4.964941e-09    2.466877e-13    8.343725e-10   -3.929483e-01
    2.939633e+01    1.573339e+02    1.799512e-06    1.688987e+03    4.984730e-09    2.573077e-13    8.739000e-10   -3.879483e-01
    2.939065e+01    1.573038e+02    2.084405e-06    1.947685e+03    5.006020e-09    2.684079e-13    9.152390e-10   -3.829483e-01
    2.938456e+01    1.572716e+02    2.414329e-06    2.245256e+03    5.028865e-09    2.800103e-13    9.584495e-10   -3.779483e-01
    2.937802e+01    1.572371e+02    2.796387e-06    2.587407e+03    5.053300e-09    2.921374e-13    1.003593e-09   -3.729483e-01
    2.937099e+01    1.571999e+02    3.238793e-06    2.980648e+03    5.079385e-09    3.048125e-13    1.050729e-09   -3.679483e-01
    2.936342e+01    1.571600e+02    3.751054e-06    3.432422e+03    5.107160e-09    3.180601e-13    1.099918e-09   -3.629483e-01
    2.935531e+01    1.571173e+02    4.344167e-06    3.951220e+03    5.136675e-09    3.319054e-13    1.151217e-09   -3.579483e-01
    2.934658e+01    1.570714e+02    5.030850e-06    4.546729e+03    5.167970e-09    3.463749e-13    1.204684e-09   -3.529483e-01
    2.933720e+01    1.570221e+02    5.825815e-06    5.229993e+03    5.201090e-09    3.614957e-13    1.260373e-09   -3.479483e-01
    2.932714e+01    1.569694e+02    6.746070e-06    6.013593e+03    5.236085e-09    3.772962e-13    1.318339e-09   -3.429483e-01
    2.931635e+01    1.569128e+02    7.811280e-06    6.911872e+03    5.272985e-09    3.938056e-13    1.378632e-09   -3.379483e-01
    2.930475e+01    1.568522e+02    9.044185e-06    7.941142e+03    5.311835e-09    4.110543e-13    1.441300e-09   -3.329483e-01
    2.929230e+01    1.567872e+02    1.047106e-05    9.119968e+03    5.352675e-09    4.290738e-13    1.506390e-09   -3.279483e-01
    2.927895e+01    1.567177e+02    1.212226e-05    1.046948e+04    5.395530e-09    4.478966e-13    1.573942e-09   -3.229483e-01
    2.926463e+01    1.566432e+02    1.403288e-05    1.201367e+04    5.440440e-09    4.675564e-13    1.643996e-09   -3.179483e-01
    2.924926e+01    1.565636e+02    1.624342e-05    1.377982e+04    5.487430e-09    4.880878e-13    1.716585e-09   -3.129483e-01
    2.923280e+01    1.564784e+02    1.880070e-05    1.579893e+04    5.536520e-09    5.095270e-13    1.791739e-09   -3.079483e-01
    2.921515e+01    1.563874e+02    2.175871e-05    1.810611e+04    5.587740e-09    5.319110e-13    1.869483e-09   -3.029483e-01
    2.919623e+01    1.562901e+02    2.517983e-05    2.074128e+04    5.641105e-09    5.552780e-13    1.949838e-09   -2.979483e-01
    2.917598e+01    1.561863e+02    2.913599e-05    2.374966e+04    5.696630e-09    5.796670e-13    2.032817e-09   -2.929483e-01
    2.915429e+01    1.560755e+02    3.371020e-05    2.718256e+04    5.754315e-09    6.051195e-13    2.118429e-09   -2.879483e-01
    2.913108e+01    1.559573e+02    3.899817e-05    3.109802e+04    5.814175e-09    6.316770e-13    2.206675e-09   -2.829483e-01
    2.910625e+01    1.558314e+02    4.511021e-05    3.556184e+04    5.876205e-09    6.593825e-13    2.297554e-09   -2.779483e-01
    2.907971e+01    1.556974e+02    5.217345e-05    4.064850e+04    5.940395e-09    6.882810e-13    2.391054e-09   -2.729483e-01
    2.905134e+01    1.555550e+02    6.033440e-05    4.644216e+04    6.006740e-09    7.184170e-13    2.487158e-09   -2.679483e-01
    2.902103e+01    1.554036e+02    6.976165e-05    5.303803e+04    6.075225e-09    7.498385e-13    2.585841e-09   -2.629483e-01
    2.898868e+01    1.552429e+02    8.064925e-05    6.054372e+04    6.145820e-09    7.825925e-13    2.687074e-09   -2.579483e-01
    2.895417e+01    1.550725e+02    9.322050e-05    6.908070e+04    6.218505e-09    8.167300e-13    2.790816e-09   -2.529483e-01
    2.891738e+01    1.548922e+02    1.077321e-04    7.878610e+04    6.293245e-09    8.523005e-13    2.897022e-09   -2.479483e-01
    2.887820e+01    1.547014e+02    1.244791e-04    8.981469e+04    6.369995e-09    8.893565e-13    3.005640e-09   -2.429483e-01
    2.883648e+01    1.545000e+02    1.438003e-04    1.023407e+05    6.448720e-09    9.279515e-13    3.116608e-09   -2.379483e-01
    2.879212e+01    1.542878e+02    1.660847e-04    1.165609e+05    6.529360e-09    9.681405e-13    3.229860e-09   -2.329483e-01
    2.874499e+01    1.540645e+02    1.917787e-04    1.326962e+05    6.611865e-09    1.009979e-12    3.345319e-09   -2.279483e-01
    2.869494e+01    1.538299e+02    2.213938e-04    1.509956e+05    6.696170e-09    1.053525e-12    3.462905e-09   -2.229483e-01
    2.864187e+01    1.535840e+02    2.555163e-04    1.717390e+05    6.782210e-09    1.098836e-12    3.582530e-09   -2.179483e-01
    2.858567e+01    1.533271e+02    2.948174e-04    1.952408e+05    6.869910e-09    1.145975e-12    3.704097e-09   -2.129483e-01
    2.852622e+01    1.530593e+02    3.400652e-04    2.218540e+05    6.959200e-09    1.195002e-12    3.827507e-09   -2.079483e-01
    2.846339e+01    1.527806e+02    3.921376e-04    2.519748e+05    7.049985e-09    1.245979e-12    3.952652e-09   -2.029483e-01
    2.839711e+01    1.524919e+02    4.520377e-04    2.860471e+05    7.142190e-09    1.298972e-12    4.079420e-09   -1.979483e-01
    2.832728e+01    1.521938e+02    5.209105e-04    3.245684e+05    7.235720e-09    1.354046e-12    4.207694e-09   -1.929483e-01
    2.825383e+01    1.518872e+02    6.000615e-04    3.680957e+05    7.330480e-09    1.411269e-12    4.337351e-09   -1.879483e-01
    2.817670e+01    1.515732e+02    6.909795e-04    4.172522e+05    7.426375e-09    1.470710e-12    4.468265e-09   -1.829483e-01
    2.809588e+01    1.512534e+02    7.953585e-04    4.727345e+05    7.523300e-09    1.532439e-12    4.600308e-09   -1.779483e-01
    2.801130e+01    1.509295e+02    9.151270e-04    5.353210e+05    7.621150e-09    1.596528e-12    4.733345e-09   -1.729483e-01
    2.792303e+01    1.506036e+02    1.052475e-03    6.058802e+05    7.719830e-09    1.663050e-12    4.867243e-09   -1.679483e-01
    2.783107e+01    1.502782e+02    1.209893e-03    6.853831e+05    7.819220e-09    1.732083e-12    5.001860e-09   -1.629483e-01
    2.773551e+01    1.499564e+02    1.390203e-03    7.749117e+05    7.919215e-09    1.803701e-12    5.137065e-09   -1.579483e-01
    2.763644e+01    1.496416e+02    1.596607e-03    8.756722e+05    8.019710e-09    1.877983e-12    5.272715e-09   -1.529483e-01
    2.753399e+01    1.493376e+02    1.832733e-03    9.890104e+05    8.120590e-09    1.955009e-12    5.408670e-09   -1.479483e-01
    2.742835e+01    1.490489e+02    2.102686e-03    1.116427e+06    8.221745e-09    2.034863e-12    5.544790e-09   -1.429483e-01
    2.731973e+01    1.487806e+02    2.411109e-03    1.259592e+06    8.323070e-09    2.117626e-12    5.680940e-09   -1.379483e-01
    2.720834e+01    1.485379e+02    2.763252e-03    1.420369e+06    8.424450e-09    2.203386e-12    5.816980e-09   -1.329483e-01
    2.709449e+01    1.483274e+02    3.165042e-03    1.600835e+06    8.525780e-09    2.292229e-12    5.952780e-09   -1.279483e-01
    2.697846e+01    1.481557e+02    3.623170e-03    1.803302e+06    8.626955e-09    2.384247e-12    6.088200e-09   -1.229483e-01
    2.686058e+01    1.480298e+02    4.145186e-03    2.030351e+06    8.727875e-09    2.479529e-12    6.223115e-09   -1.179483e-01
    2.674116e+01    1.479576e+02    4.739600e-03    2.284853e+06    8.828435e-09    2.578170e-12    6.357400e-09   -1.129483e-01
    2.662057e+01    1.479475e+02    5.416000e-03    2.570016e+06    8.928535e-09    2.680266e-12    6.490935e-09   -1.079483e-01
    2.649912e+01    1.480082e+02    6.185185e-03    2.889408e+06    9.028080e-09    2.785915e-12    6.623595e-09   -1.029483e-01
    2.637710e+01    1.481484e+02    7.059310e-03    3.246999e+06    9.126985e-09    2.895218e-12    6.755270e-09   -9.794830e-02
    2.625474e+01    1.483775e+02    8.052055e-03    3.647214e+06    9.225150e-09    3.008277e-12    6.885855e-09   -9.294830e-02
    2.613225e+01    1.487046e+02    9.178785e-03    4.094958e+06    9.322505e-09    3.125198e-12    7.015245e-09   -8.794830e-02
    2.600970e+01    1.491386e+02    1.045677e-02    4.595684e+06    9.418960e-09    3.246090e-12    7.143340e-09   -8.294830e-02
    2.588707e+01    1.496884e+02    1.190540e-02    5.155416e+06    9.514440e-09    3.371062e-12    7.270045e-09   -7.794830e-02
    2.576422e+01    1.503620e+02    1.354639e-02    5.780803e+06    9.608875e-09    3.500228e-12    7.395280e-09   -7.294830e-02
    2.564083e+01    1.511668e+02    1.540409e-02    6.479154e+06    9.702195e-09    3.633706e-12    7.518960e-09   -6.794830e-02
    2.551645e+01    1.521090e+02    1.750570e-02    7.258461e+06    9.794345e-09    3.771613e-12    7.641010e-09   -6.294830e-02
    2.539043e+01    1.531936e+02    1.988161e-02    8.127436e+06    9.885260e-09    3.914073e-12    7.761360e-09   -5.794830e-02
    2.526194e+01    1.544239e+02    2.256561e-02    9.095482e+06    9.974890e-09    4.061212e-12    7.879950e-09   -5.294830e-02
    2.512998e+01    1.558013e+02    2.559529e-02    1.017272e+07    1.006318e-08    4.213159e-12    7.996720e-09   -4.794830e-02
    2.499339e+01    1.573254e+02    2.901228e-02    1.136991e+07    1.015010e-08    4.370045e-12    8.111615e-09   -4.294830e-02
    2.485087e+01    1.589932e+02    3.286251e-02    1.269842e+07    1.023559e-08    4.532008e-12    8.224595e-09   -3.794830e-02
    2.470104e+01    1.607996e+02    3.719653e-02    1.417013e+07    1.031963e-08    4.699188e-12    8.335620e-09   -3.294830e-02
    2.454237e+01    1.627365e+02    4.206971e-02    1.579726e+07    1.040218e-08    4.871729e-12    8.444655e-09   -2.794830e-02
    2.437339e+01    1.647935e+02    4.754241e-02    1.759229e+07    1.048323e-08    5.049780e-12    8.551665e-09   -2.294830e-02
    2.419260e+01    1.669575e+02    5.368010e-02    1.956770e+07    1.056273e-08    5.233485e-12    8.656635e-09   -1.794830e-02
    2.399861e+01    1.692131e+02    6.055345e-02    2.173579e+07    1.064069e-08    5.423015e-12    8.759535e-09   -1.294830e-02
    2.379017e+01    1.715423e+02    6.823820e-02    2.410843e+07    1.071708e-08    5.618520e-12    8.860360e-09   -7.948300e-03
    2.356619e+01    1.739254e+02    7.681515e-02    2.669681e+07    1.079188e-08    5.820170e-12    8.959100e-09   -2.948300e-03
    2.332579e+01    1.763403e+02    8.636985e-02    2.951107e+07    1.086510e-08    6.028135e-12    9.055740e-09    2.051700e-03
    2.306836e+01    1.787643e+02    9.699230e-02    3.256015e+07    1.093674e-08    6.242590e-12    9.150295e-09    7.051700e-03
    2.279360e+01    1.811731e+02    1.087763e-01    3.585149e+07    1.100677e-08    6.463720e-12    9.242755e-09    1.205170e-02
    2.250145e+01    1.835422e+02    1.218193e-01    3.939072e+07    1.107523e-08    6.691710e-12    9.333130e-09    1.705170e-02
    2.219217e+01    1.858469e+02    1.362211e-01    4.318147e+07    1.114210e-08    6.926750e-12    9.421430e-09    2.205170e-02
    2.186630e+01    1.880631e+02    1.520839e-01    4.722527e+07    1.120738e-08    7.169040e-12    9.507670e-09    2.705170e-02
    2.152465e+01    1.901674e+02    1.695107e-01    5.152129e+07    1.127111e-08    7.418780e-12    9.591865e-09    3.205170e-02
    2.116826e+01    1.921380e+02    1.886049e-01    5.606639e+07    1.133328e-08    7.676190e-12    9.674035e-09    3.705170e-02
    2.079837e+01    1.939546e+02    2.094691e-01    6.085506e+07    1.139391e-08    7.941480e-12    9.754205e-09    4.205170e-02
    2.041641e+01    1.955991e+02    2.322044e-01    6.587945e+07    1.145302e-08    8.214880e-12    9.832390e-09    4.705170e-02
    2.002392e+01    1.970556e+02    2.569093e-01    7.112955e+07    1.151063e-08    8.496620e-12    9.908625e-09    5.205170e-02
    1.962253e+01    1.983110e+02    2.836787e-01    7.659330e+07    1.156675e-08    8.786935e-12    9.982935e-09    5.705170e-02
    1.921393e+01    1.993545e+02    3.126037e-01    8.225683e+07    1.162140e-08    9.086070e-12    1.005535e-08    6.205170e-02
    1.879983e+01    2.001784e+02    3.437699e-01    8.810474e+07    1.167462e-08    9.394290e-12    1.012590e-08    6.705170e-02
    1.838190e+01    2.007774e+02    3.772575e-01    9.412027e+07    1.172642e-08    9.711850e-12    1.019461e-08    7.205170e-02
    1.796179e+01    2.011492e+02    4.131406e-01    1.002858e+08    1.177682e-08    1.003902e-11    1.026154e-08    7.705170e-02
    1.754107e+01    2.012936e+02    4.514863e-01    1.065831e+08    1.182586e-08    1.037608e-11    1.032669e-08    8.205170e-02
    1.712124e+01    2.012130e+02    4.923551e-01    1.129933e+08    1.187356e-08    1.072334e-11    1.039012e-08    8.705170e-02
    1.670367e+01    2.009119e+02    5.358000e-01    1.194979e+08    1.191995e-08    1.108107e-11    1.045186e-08    9.205170e-02
    1.628962e+01    2.003966e+02    5.818675e-01    1.260784e+08    1.196505e-08    1.144959e-11    1.051194e-08    9.705170e-02
    1.588025e+01    1.996751e+02    6.305960e-01    1.327168e+08    1.200889e-08    1.182922e-11    1.057041e-08    1.020517e-01
    1.547662e+01    1.987567e+02    6.820170e-01    1.393959e+08    1.205151e-08    1.222029e-11    1.062730e-08    1.070517e-01
    1.507960e+01    1.976521e+02    7.361560e-01    1.460994e+08    1.209293e-08    1.262314e-11    1.068264e-08    1.120517e-01
    1.468997e+01    1.963726e+02    7.930315e-01    1.528119e+08    1.213317e-08    1.303813e-11    1.073648e-08    1.170517e-01
    1.430843e+01    1.949302e+02    8.526555e-01    1.595196e+08    1.217228e-08    1.346561e-11    1.078885e-08    1.220517e-01
    1.393553e+01    1.933372e+02    9.150345e-01    1.662096e+08    1.221027e-08    1.390598e-11    1.083980e-08    1.270517e-01
    1.357172e+01    1.916061e+02    9.801700e-01    1.728704e+08    1.224717e-08    1.435960e-11    1.088935e-08    1.320517e-01
    1.321734e+01    1.897495e+02    1.048059e+00    1.794918e+08    1.228302e-08    1.482689e-11    1.093756e-08    1.370517e-01
    1.287268e+01    1.877800e+02    1.118693e+00    1.860652e+08    1.231784e-08    1.530827e-11    1.098445e-08    1.420517e-01
    1.253791e+01    1.857097e+02    1.192060e+00    1.925830e+08    1.235167e-08    1.580417e-11    1.103004e-08    1.470517e-01
    1.221315e+01    1.835501e+02    1.268147e+00    1.990390e+08    1.238452e-08    1.631504e-11    1.107441e-08    1.520517e-01
    1.189844e+01    1.813128e+02    1.346934e+00    2.054281e+08    1.241643e-08    1.684132e-11    1.111756e-08    1.570517e-01
