# sky130 nfet_01v8 gm/ID Processed Lookup Table
# Corner: ss
# Temperature: 0C
# W = 2.0 um
# L = 1.8 um (1800 nm)
# Columns: gm/id [1/V]  gm/gds [V/V]  id/W [A/m]  ft [Hz]  Cgg/W [F/m]  Cgd/W [F/m]  Cgs/W [F/m]  Vov [V]
#         gm/id          gm/gds            id/W              ft           Cgg/W           Cgd/W           Cgs/W             Vov
    2.928691e+01    1.460942e+02    4.592285e-09    5.594610e+00    3.826069e-09    3.523215e-14    1.078632e-10   -6.050985e-01
    2.928667e+01    1.460930e+02    5.316480e-09    6.492294e+00    3.816947e-09    3.659419e-14    1.118075e-10   -6.000985e-01
    2.928639e+01    1.460916e+02    6.154875e-09    7.533527e+00    3.808086e-09    3.801085e-14    1.159383e-10   -5.950985e-01
    2.928610e+01    1.460902e+02    7.125470e-09    8.741167e+00    3.799495e-09    3.948455e-14    1.202658e-10   -5.900985e-01
    2.928579e+01    1.460887e+02    8.249110e-09    1.014168e+01    3.791178e-09    4.101782e-14    1.248009e-10   -5.850985e-01
    2.928546e+01    1.460870e+02    9.549925e-09    1.176574e+01    3.783142e-09    4.261330e-14    1.295553e-10   -5.800985e-01
    2.928509e+01    1.460852e+02    1.105585e-08    1.364886e+01    3.775396e-09    4.427376e-14    1.345407e-10   -5.750985e-01
    2.928469e+01    1.460832e+02    1.279922e-08    1.583213e+01    3.767948e-09    4.600212e-14    1.397699e-10   -5.700985e-01
    2.928427e+01    1.460811e+02    1.481746e-08    1.836316e+01    3.760807e-09    4.780144e-14    1.452566e-10   -5.650985e-01
    2.928379e+01    1.460787e+02    1.715393e-08    2.129702e+01    3.753982e-09    4.967490e-14    1.510150e-10   -5.600985e-01
    2.928331e+01    1.460763e+02    1.985875e-08    2.469747e+01    3.747483e-09    5.162590e-14    1.570603e-10   -5.550985e-01
    2.928280e+01    1.460737e+02    2.299002e-08    2.863828e+01    3.741322e-09    5.365790e-14    1.634080e-10   -5.500985e-01
    2.928222e+01    1.460709e+02    2.661494e-08    3.320472e+01    3.735509e-09    5.577460e-14    1.700745e-10   -5.450985e-01
    2.928161e+01    1.460678e+02    3.081132e-08    3.849550e+01    3.730057e-09    5.797990e-14    1.770773e-10   -5.400985e-01
    2.928096e+01    1.460646e+02    3.566924e-08    4.462474e+01    3.724977e-09    6.027790e-14    1.844345e-10   -5.350985e-01
    2.928026e+01    1.460611e+02    4.129295e-08    5.172432e+01    3.720284e-09    6.267275e-14    1.921652e-10   -5.300985e-01
    2.927949e+01    1.460573e+02    4.780313e-08    5.994671e+01    3.715992e-09    6.516900e-14    2.002893e-10   -5.250985e-01
    2.927866e+01    1.460532e+02    5.533950e-08    6.946806e+01    3.712115e-09    6.777125e-14    2.088280e-10   -5.200985e-01
    2.927780e+01    1.460488e+02    6.406370e-08    8.049194e+01    3.708670e-09    7.048450e-14    2.178031e-10   -5.150985e-01
    2.927685e+01    1.460442e+02    7.416295e-08    9.325335e+01    3.705672e-09    7.331380e-14    2.272374e-10   -5.100985e-01
    2.927584e+01    1.460391e+02    8.585385e-08    1.080237e+02    3.703141e-09    7.626455e-14    2.371551e-10   -5.050985e-01
    2.927475e+01    1.460337e+02    9.938715e-08    1.251162e+02    3.701093e-09    7.934245e-14    2.475813e-10   -5.000985e-01
    2.927358e+01    1.460278e+02    1.150531e-07    1.448924e+02    3.699547e-09    8.255335e-14    2.585418e-10   -4.950985e-01
    2.927232e+01    1.460216e+02    1.331876e-07    1.677693e+02    3.698524e-09    8.590345e-14    2.700641e-10   -4.900985e-01
    2.927097e+01    1.460148e+02    1.541794e-07    1.942277e+02    3.698046e-09    8.939925e-14    2.821766e-10   -4.850985e-01
    2.926950e+01    1.460075e+02    1.784785e-07    2.248220e+02    3.698133e-09    9.304755e-14    2.949086e-10   -4.800985e-01
    2.926794e+01    1.459998e+02    2.066056e-07    2.601912e+02    3.698808e-09    9.685545e-14    3.082910e-10   -4.750985e-01
    2.926626e+01    1.459914e+02    2.391635e-07    3.010712e+02    3.700096e-09    1.008305e-13    3.223553e-10   -4.700985e-01
    2.926444e+01    1.459823e+02    2.768495e-07    3.483094e+02    3.702021e-09    1.049803e-13    3.371349e-10   -4.650985e-01
    2.926249e+01    1.459727e+02    3.204709e-07    4.028819e+02    3.704607e-09    1.093130e-13    3.526638e-10   -4.600985e-01
    2.926040e+01    1.459623e+02    3.709616e-07    4.659112e+02    3.707885e-09    1.138374e-13    3.689772e-10   -4.550985e-01
    2.925815e+01    1.459511e+02    4.294026e-07    5.386887e+02    3.711879e-09    1.185623e-13    3.861116e-10   -4.500985e-01
    2.925572e+01    1.459391e+02    4.970446e-07    6.226995e+02    3.716617e-09    1.234969e-13    4.041047e-10   -4.450985e-01
    2.925313e+01    1.459262e+02    5.753345e-07    7.196498e+02    3.722132e-09    1.286510e-13    4.229952e-10   -4.400985e-01
    2.925032e+01    1.459122e+02    6.659475e-07    8.315000e+02    3.728451e-09    1.340349e-13    4.428228e-10   -4.350985e-01
    2.924731e+01    1.458973e+02    7.708200e-07    9.605011e+02    3.735606e-09    1.396591e-13    4.636283e-10   -4.300985e-01
    2.924407e+01    1.458813e+02    8.921940e-07    1.109237e+03    3.743630e-09    1.455349e-13    4.854534e-10   -4.250985e-01
    2.924059e+01    1.458640e+02    1.032662e-06    1.280671e+03    3.752555e-09    1.516738e-13    5.083410e-10   -4.200985e-01
    2.923685e+01    1.458455e+02    1.195224e-06    1.478201e+03    3.762415e-09    1.580879e-13    5.323340e-10   -4.150985e-01
    2.923283e+01    1.458256e+02    1.383350e-06    1.705723e+03    3.773243e-09    1.647899e-13    5.574770e-10   -4.100985e-01
    2.922851e+01    1.458042e+02    1.601053e-06    1.967697e+03    3.785074e-09    1.717929e-13    5.838155e-10   -4.050985e-01
    2.922387e+01    1.457812e+02    1.852975e-06    2.269232e+03    3.797943e-09    1.791107e-13    6.113940e-10   -4.000985e-01
    2.921887e+01    1.457565e+02    2.144486e-06    2.616174e+03    3.811888e-09    1.867576e-13    6.402585e-10   -3.950985e-01
    2.921353e+01    1.457302e+02    2.481792e-06    3.015211e+03    3.826942e-09    1.947485e-13    6.704560e-10   -3.900985e-01
    2.920777e+01    1.457018e+02    2.872074e-06    3.473982e+03    3.843142e-09    2.030989e-13    7.020315e-10   -3.850985e-01
    2.920158e+01    1.456712e+02    3.323630e-06    4.001223e+03    3.860525e-09    2.118250e-13    7.350325e-10   -3.800985e-01
    2.919493e+01    1.456385e+02    3.846060e-06    4.606909e+03    3.879127e-09    2.209435e-13    7.695045e-10   -3.750985e-01
    2.918779e+01    1.456034e+02    4.450454e-06    5.302425e+03    3.898982e-09    2.304720e-13    8.054935e-10   -3.700985e-01
    2.918014e+01    1.455656e+02    5.149635e-06    6.100755e+03    3.920129e-09    2.404286e-13    8.430445e-10   -3.650985e-01
    2.917190e+01    1.455252e+02    5.958425e-06    7.016710e+03    3.942600e-09    2.508321e-13    8.822020e-10   -3.600985e-01
    2.916305e+01    1.454819e+02    6.893950e-06    8.067170e+03    3.966431e-09    2.617020e-13    9.230095e-10   -3.550985e-01
    2.915356e+01    1.454353e+02    7.975990e-06    9.271354e+03    3.991656e-09    2.730586e-13    9.655095e-10   -3.500985e-01
    2.914338e+01    1.453855e+02    9.227410e-06    1.065115e+04    4.018308e-09    2.849230e-13    1.009742e-09   -3.450985e-01
    2.913244e+01    1.453322e+02    1.067462e-05    1.223147e+04    4.046416e-09    2.973170e-13    1.055747e-09   -3.400985e-01
    2.912071e+01    1.452750e+02    1.234810e-05    1.404063e+04    4.076011e-09    3.102632e-13    1.103561e-09   -3.350985e-01
    2.910813e+01    1.452138e+02    1.428306e-05    1.611084e+04    4.107122e-09    3.237848e-13    1.153219e-09   -3.300985e-01
    2.909464e+01    1.451483e+02    1.652016e-05    1.847867e+04    4.139775e-09    3.379061e-13    1.204753e-09   -3.250985e-01
    2.908018e+01    1.450781e+02    1.910632e-05    2.118567e+04    4.173994e-09    3.526521e-13    1.258193e-09   -3.200985e-01
    2.906468e+01    1.450032e+02    2.209567e-05    2.427902e+04    4.209802e-09    3.680486e-13    1.313566e-09   -3.150985e-01
    2.904806e+01    1.449229e+02    2.555068e-05    2.781218e+04    4.247218e-09    3.841222e-13    1.370894e-09   -3.100985e-01
    2.903027e+01    1.448374e+02    2.954339e-05    3.184587e+04    4.286258e-09    4.009005e-13    1.430197e-09   -3.050985e-01
    2.901119e+01    1.447459e+02    3.415689e-05    3.644881e+04    4.326937e-09    4.184119e-13    1.491493e-09   -3.000985e-01
    2.899079e+01    1.446483e+02    3.948693e-05    4.169895e+04    4.369266e-09    4.366858e-13    1.554791e-09   -2.950985e-01
    2.896896e+01    1.445442e+02    4.564389e-05    4.768446e+04    4.413253e-09    4.557521e-13    1.620100e-09   -2.900985e-01
    2.894560e+01    1.444333e+02    5.275490e-05    5.450517e+04    4.458900e-09    4.756420e-13    1.687423e-09   -2.850985e-01
    2.892063e+01    1.443152e+02    6.096640e-05    6.227403e+04    4.506209e-09    4.963875e-13    1.756757e-09   -2.800985e-01
    2.889393e+01    1.441895e+02    7.044695e-05    7.111869e+04    4.555177e-09    5.180215e-13    1.828096e-09   -2.750985e-01
    2.886542e+01    1.440558e+02    8.139055e-05    8.118342e+04    4.605796e-09    5.405780e-13    1.901429e-09   -2.700985e-01
    2.883498e+01    1.439138e+02    9.402035e-05    9.263116e+04    4.658054e-09    5.640910e-13    1.976737e-09   -2.650985e-01
    2.880251e+01    1.437632e+02    1.085929e-04    1.056458e+05    4.711936e-09    5.885975e-13    2.054000e-09   -2.600985e-01
    2.876788e+01    1.436035e+02    1.254030e-04    1.204349e+05    4.767422e-09    6.141330e-13    2.133189e-09   -2.550985e-01
    2.873098e+01    1.434345e+02    1.447895e-04    1.372323e+05    4.824488e-09    6.407355e-13    2.214270e-09   -2.500985e-01
    2.869170e+01    1.432559e+02    1.671411e-04    1.563017e+05    4.883105e-09    6.684435e-13    2.297206e-09   -2.450985e-01
    2.864990e+01    1.430673e+02    1.929042e-04    1.779398e+05    4.943241e-09    6.972965e-13    2.381952e-09   -2.400985e-01
    2.860546e+01    1.428685e+02    2.225904e-04    2.024806e+05    5.004860e-09    7.273355e-13    2.468457e-09   -2.350985e-01
    2.855828e+01    1.426594e+02    2.567862e-04    2.303002e+05    5.067915e-09    7.586010e-13    2.556666e-09   -2.300985e-01
    2.850820e+01    1.424398e+02    2.961634e-04    2.618203e+05    5.132370e-09    7.911365e-13    2.646520e-09   -2.250985e-01
    2.845514e+01    1.422097e+02    3.414908e-04    2.975157e+05    5.198165e-09    8.249855e-13    2.737953e-09   -2.200985e-01
    2.839896e+01    1.419692e+02    3.936481e-04    3.379183e+05    5.265250e-09    8.601915e-13    2.830894e-09   -2.150985e-01
    2.833954e+01    1.417183e+02    4.536405e-04    3.836249e+05    5.333570e-09    8.968010e-13    2.925267e-09   -2.100985e-01
    2.827681e+01    1.414575e+02    5.226160e-04    4.353044e+05    5.403065e-09    9.348605e-13    3.020994e-09   -2.050985e-01
    2.821063e+01    1.411870e+02    6.018855e-04    4.937062e+05    5.473665e-09    9.744170e-13    3.117990e-09   -2.000985e-01
    2.814094e+01    1.409076e+02    6.929430e-04    5.596690e+05    5.545300e-09    1.015520e-12    3.216167e-09   -1.950985e-01
    2.806768e+01    1.406201e+02    7.974910e-04    6.341291e+05    5.617910e-09    1.058218e-12    3.315433e-09   -1.900985e-01
    2.799078e+01    1.403254e+02    9.174685e-04    7.181354e+05    5.691410e-09    1.102563e-12    3.415695e-09   -1.850985e-01
    2.791019e+01    1.400248e+02    1.055081e-03    8.128564e+05    5.765735e-09    1.148607e-12    3.516855e-09   -1.800985e-01
    2.782592e+01    1.397201e+02    1.212833e-03    9.195995e+05    5.840795e-09    1.196403e-12    3.618812e-09   -1.750985e-01
    2.773797e+01    1.394129e+02    1.393572e-03    1.039819e+06    5.916520e-09    1.246003e-12    3.721466e-09   -1.700985e-01
    2.764639e+01    1.391057e+02    1.600527e-03    1.175142e+06    5.992820e-09    1.297466e-12    3.824710e-09   -1.650985e-01
    2.755123e+01    1.388008e+02    1.837357e-03    1.327373e+06    6.069625e-09    1.350847e-12    3.928443e-09   -1.600985e-01
    2.745260e+01    1.385015e+02    2.108210e-03    1.498531e+06    6.146840e-09    1.406202e-12    4.032557e-09   -1.550985e-01
    2.735066e+01    1.382113e+02    2.417778e-03    1.690860e+06    6.224385e-09    1.463593e-12    4.136947e-09   -1.500985e-01
    2.724552e+01    1.379339e+02    2.771366e-03    1.906859e+06    6.302175e-09    1.523078e-12    4.241507e-09   -1.450985e-01
    2.713740e+01    1.376739e+02    3.174972e-03    2.149307e+06    6.380135e-09    1.584720e-12    4.346132e-09   -1.400985e-01
    2.702655e+01    1.374359e+02    3.635366e-03    2.421304e+06    6.458170e-09    1.648582e-12    4.450717e-09   -1.350985e-01
    2.691324e+01    1.372257e+02    4.160188e-03    2.726299e+06    6.536205e-09    1.714727e-12    4.555159e-09   -1.300985e-01
    2.679774e+01    1.370490e+02    4.758054e-03    3.068127e+06    6.614155e-09    1.783222e-12    4.659358e-09   -1.250985e-01
    2.668040e+01    1.369122e+02    5.438670e-03    3.451063e+06    6.691945e-09    1.854133e-12    4.763213e-09   -1.200985e-01
    2.656150e+01    1.368221e+02    6.212975e-03    3.879860e+06    6.769495e-09    1.927531e-12    4.866630e-09   -1.150985e-01
    2.644139e+01    1.367860e+02    7.093280e-03    4.359820e+06    6.846725e-09    2.003484e-12    4.969512e-09   -1.100985e-01
    2.632038e+01    1.368115e+02    8.093430e-03    4.896828e+06    6.923570e-09    2.082064e-12    5.071770e-09   -1.050985e-01
    2.619877e+01    1.369065e+02    9.229000e-03    5.497439e+06    6.999955e-09    2.163347e-12    5.173315e-09   -1.000985e-01
    2.607679e+01    1.370787e+02    1.051749e-02    6.168936e+06    7.075810e-09    2.247406e-12    5.274060e-09   -9.509850e-02
    2.595463e+01    1.373361e+02    1.197856e-02    6.919399e+06    7.151070e-09    2.334318e-12    5.373930e-09   -9.009850e-02
    2.583237e+01    1.376867e+02    1.363426e-02    7.757786e+06    7.225670e-09    2.424163e-12    5.472850e-09   -8.509850e-02
    2.571001e+01    1.381378e+02    1.550933e-02    8.693983e+06    7.299560e-09    2.517021e-12    5.570740e-09   -8.009850e-02
    2.558744e+01    1.386963e+02    1.763147e-02    9.738909e+06    7.372675e-09    2.612975e-12    5.667540e-09   -7.509850e-02
    2.546433e+01    1.393684e+02    2.003169e-02    1.090455e+07    7.444960e-09    2.712111e-12    5.763180e-09   -7.009850e-02
    2.534031e+01    1.401594e+02    2.274459e-02    1.220399e+07    7.516375e-09    2.814515e-12    5.857605e-09   -6.509850e-02
    2.521473e+01    1.410731e+02    2.580881e-02    1.365148e+07    7.586870e-09    2.920276e-12    5.950760e-09   -6.009850e-02
    2.508684e+01    1.421122e+02    2.926730e-02    1.526244e+07    7.656400e-09    3.029486e-12    6.042590e-09   -5.509850e-02
    2.495570e+01    1.432775e+02    3.316778e-02    1.705344e+07    7.724925e-09    3.142238e-12    6.133050e-09   -5.009850e-02
    2.482019e+01    1.445679e+02    3.756304e-02    1.904205e+07    7.792415e-09    3.258630e-12    6.222105e-09   -4.509850e-02
    2.467909e+01    1.459805e+02    4.251136e-02    2.124692e+07    7.858835e-09    3.378760e-12    6.309715e-09   -4.009850e-02
    2.453105e+01    1.475100e+02    4.807681e-02    2.368747e+07    7.924160e-09    3.502730e-12    6.395840e-09   -3.509850e-02
    2.437464e+01    1.491488e+02    5.432955e-02    2.638378e+07    7.988355e-09    3.630644e-12    6.480460e-09   -3.009850e-02
    2.420845e+01    1.508871e+02    6.134600e-02    2.935632e+07    8.051405e-09    3.762610e-12    6.563550e-09   -2.509850e-02
    2.403101e+01    1.527127e+02    6.920920e-02    3.262564e+07    8.113290e-09    3.898738e-12    6.645085e-09   -2.009850e-02
    2.384100e+01    1.546114e+02    7.800860e-02    3.621202e+07    8.173995e-09    4.039141e-12    6.725050e-09   -1.509850e-02
    2.363716e+01    1.565669e+02    8.784030e-02    4.013508e+07    8.233510e-09    4.183936e-12    6.803435e-09   -1.009850e-02
    2.341841e+01    1.585609e+02    9.880675e-02    4.441344e+07    8.291815e-09    4.333243e-12    6.880225e-09   -5.098500e-03
    2.318389e+01    1.605737e+02    1.110165e-01    4.906409e+07    8.348915e-09    4.487186e-12    6.955420e-09   -9.850000e-05
    2.293298e+01    1.625847e+02    1.245837e-01    5.410216e+07    8.404795e-09    4.645890e-12    7.029015e-09    4.901500e-03
    2.266530e+01    1.645721e+02    1.396278e-01    5.954027e+07    8.459460e-09    4.809489e-12    7.101010e-09    9.901500e-03
    2.238077e+01    1.665140e+02    1.562726e-01    6.538835e+07    8.512905e-09    4.978116e-12    7.171410e-09    1.490150e-02
    2.207959e+01    1.683883e+02    1.746458e-01    7.165310e+07    8.565135e-09    5.151910e-12    7.240225e-09    1.990150e-02
    2.176220e+01    1.701738e+02    1.948775e-01    7.833775e+07    8.616155e-09    5.331015e-12    7.307450e-09    2.490150e-02
    2.142935e+01    1.718497e+02    2.170996e-01    8.544185e+07    8.665975e-09    5.515575e-12    7.373110e-09    2.990150e-02
    2.108197e+01    1.733970e+02    2.414447e-01    9.296122e+07    8.714595e-09    5.705745e-12    7.437215e-09    3.490150e-02
    2.072125e+01    1.747980e+02    2.680447e-01    1.008878e+08    8.762030e-09    5.901680e-12    7.499775e-09    3.990150e-02
    2.034851e+01    1.760372e+02    2.970299e-01    1.092097e+08    8.808290e-09    6.103540e-12    7.560810e-09    4.490150e-02
    1.996518e+01    1.771009e+02    3.285277e-01    1.179114e+08    8.853390e-09    6.311495e-12    7.620340e-09    4.990150e-02
    1.957284e+01    1.779781e+02    3.626614e-01    1.269740e+08    8.897345e-09    6.525720e-12    7.678385e-09    5.490150e-02
    1.917312e+01    1.786603e+02    3.995493e-01    1.363759e+08    8.940165e-09    6.746380e-12    7.734965e-09    5.990150e-02
    1.876762e+01    1.791412e+02    4.393038e-01    1.460923e+08    8.981875e-09    6.973670e-12    7.790105e-09    6.490150e-02
    1.835798e+01    1.794171e+02    4.820300e-01    1.560965e+08    9.022485e-09    7.207770e-12    7.843830e-09    6.990150e-02
    1.794580e+01    1.794867e+02    5.278260e-01    1.663600e+08    9.062015e-09    7.448880e-12    7.896165e-09    7.490150e-02
    1.753262e+01    1.793513e+02    5.767810e-01    1.768533e+08    9.100485e-09    7.697200e-12    7.947135e-09    7.990150e-02
    1.711987e+01    1.790135e+02    6.289765e-01    1.875460e+08    9.137915e-09    7.952935e-12    7.996765e-09    8.490150e-02
    1.670894e+01    1.784787e+02    6.844835e-01    1.984073e+08    9.174330e-09    8.216300e-12    8.045080e-09    8.990150e-02
    1.630108e+01    1.777532e+02    7.433655e-01    2.094072e+08    9.209740e-09    8.487515e-12    8.092115e-09    9.490150e-02
    1.589742e+01    1.768454e+02    8.056765e-01    2.205156e+08    9.244175e-09    8.766810e-12    8.137895e-09    9.990150e-02
    1.549900e+01    1.757644e+02    8.714610e-01    2.317039e+08    9.277655e-09    9.054425e-12    8.182445e-09    1.049015e-01
    1.510672e+01    1.745203e+02    9.407550e-01    2.429451e+08    9.310195e-09    9.350595e-12    8.225795e-09    1.099015e-01
    1.472140e+01    1.731242e+02    1.013586e+00    2.542132e+08    9.341825e-09    9.655575e-12    8.267980e-09    1.149015e-01
    1.434370e+01    1.715875e+02    1.089974e+00    2.654845e+08    9.372565e-09    9.969630e-12    8.309020e-09    1.199015e-01
    1.397421e+01    1.699219e+02    1.169931e+00    2.767371e+08    9.402435e-09    1.029303e-11    8.348950e-09    1.249015e-01
    1.361338e+01    1.681392e+02    1.253464e+00    2.879513e+08    9.431460e-09    1.062604e-11    8.387795e-09    1.299015e-01
    1.326162e+01    1.662513e+02    1.340569e+00    2.991095e+08    9.459660e-09    1.096895e-11    8.425585e-09    1.349015e-01
    1.291918e+01    1.642696e+02    1.431242e+00    3.101963e+08    9.487055e-09    1.132207e-11    8.462345e-09    1.399015e-01
    1.258630e+01    1.622055e+02    1.525469e+00    3.211986e+08    9.513665e-09    1.168570e-11    8.498105e-09    1.449015e-01
    1.226309e+01    1.600697e+02    1.623236e+00    3.321047e+08    9.539520e-09    1.206015e-11    8.532895e-09    1.499015e-01
