# sky130 nfet_01v8 gm/ID Processed Lookup Table
# Corner: ss
# Temperature: 0C
# W = 2.0 um
# L = 3.6 um (3600 nm)
# Columns: gm/id [1/V]  gm/gds [V/V]  id/W [A/m]  ft [Hz]  Cgg/W [F/m]  Cgd/W [F/m]  Cgs/W [F/m]  Vov [V]
#         gm/id          gm/gds            id/W              ft           Cgg/W           Cgd/W           Cgs/W             Vov
    3.016243e+01    1.971834e+02    2.121497e-09    1.348749e+00    7.550885e-09    7.203470e-14    2.066630e-10   -5.939288e-01
    3.016217e+01    1.971817e+02    2.466829e-09    1.572028e+00    7.532885e-09    7.489585e-14    2.143324e-10   -5.889288e-01
    3.016190e+01    1.971799e+02    2.868369e-09    1.832153e+00    7.515400e-09    7.787465e-14    2.223725e-10   -5.839288e-01
    3.016159e+01    1.971779e+02    3.335265e-09    2.135175e+00    7.498445e-09    8.097640e-14    2.308047e-10   -5.789288e-01
    3.016126e+01    1.971758e+02    3.878154e-09    2.488139e+00    7.482040e-09    8.420680e-14    2.396515e-10   -5.739288e-01
    3.016089e+01    1.971733e+02    4.509403e-09    2.899239e+00    7.466195e-09    8.757160e-14    2.489370e-10   -5.689288e-01
    3.016050e+01    1.971707e+02    5.243390e-09    3.378007e+00    7.450925e-09    9.107700e-14    2.586862e-10   -5.639288e-01
    3.016007e+01    1.971681e+02    6.096835e-09    3.935528e+00    7.436250e-09    9.472950e-14    2.689246e-10   -5.589288e-01
    3.015962e+01    1.971650e+02    7.089175e-09    4.584687e+00    7.422190e-09    9.853590e-14    2.796817e-10   -5.539288e-01
    3.015914e+01    1.971619e+02    8.243010e-09    5.340465e+00    7.408765e-09    1.025033e-13    2.909872e-10   -5.489288e-01
    3.015860e+01    1.971584e+02    9.584625e-09    6.220282e+00    7.395990e-09    1.066393e-13    3.028724e-10   -5.439288e-01
    3.015803e+01    1.971546e+02    1.114457e-08    7.244366e+00    7.383900e-09    1.109516e-13    3.153703e-10   -5.389288e-01
    3.015742e+01    1.971506e+02    1.295835e-08    8.436240e+00    7.372505e-09    1.154486e-13    3.285158e-10   -5.339288e-01
    3.015676e+01    1.971463e+02    1.506729e-08    9.823203e+00    7.361845e-09    1.201390e-13    3.423453e-10   -5.289288e-01
    3.015605e+01    1.971418e+02    1.751939e-08    1.143699e+01    7.351935e-09    1.250318e-13    3.568975e-10   -5.239288e-01
    3.015527e+01    1.971366e+02    2.037047e-08    1.331442e+01    7.342810e-09    1.301367e-13    3.722128e-10   -5.189288e-01
    3.015445e+01    1.971313e+02    2.368544e-08    1.549825e+01    7.334500e-09    1.354638e-13    3.883338e-10   -5.139288e-01
    3.015355e+01    1.971254e+02    2.753975e-08    1.803810e+01    7.327030e-09    1.410235e-13    4.053049e-10   -5.089288e-01
    3.015259e+01    1.971191e+02    3.202113e-08    2.099152e+01    7.320445e-09    1.468270e-13    4.231732e-10   -5.039288e-01
    3.015156e+01    1.971125e+02    3.723155e-08    2.442530e+01    7.314775e-09    1.528860e-13    4.419875e-10   -4.989288e-01
    3.015044e+01    1.971050e+02    4.328956e-08    2.841685e+01    7.310060e-09    1.592125e-13    4.617994e-10   -4.939288e-01
    3.014923e+01    1.970972e+02    5.033300e-08    3.305594e+01    7.306335e-09    1.658196e-13    4.826625e-10   -4.889288e-01
    3.014794e+01    1.970888e+02    5.852205e-08    3.844657e+01    7.303645e-09    1.727206e-13    5.046330e-10   -4.839288e-01
    3.014654e+01    1.970796e+02    6.804300e-08    4.470923e+01    7.302035e-09    1.799296e-13    5.277695e-10   -4.789288e-01
    3.014503e+01    1.970699e+02    7.911235e-08    5.198348e+01    7.301545e-09    1.874616e-13    5.521335e-10   -4.739288e-01
    3.014341e+01    1.970593e+02    9.198170e-08    6.043086e+01    7.302225e-09    1.953320e-13    5.777880e-10   -4.689288e-01
    3.014166e+01    1.970478e+02    1.069437e-07    7.023831e+01    7.304130e-09    2.035571e-13    6.048000e-10   -4.639288e-01
    3.013978e+01    1.970356e+02    1.243383e-07    8.162218e+01    7.307300e-09    2.121539e-13    6.332375e-10   -4.589288e-01
    3.013774e+01    1.970223e+02    1.445608e-07    9.483247e+01    7.311800e-09    2.211406e-13    6.631730e-10   -4.539288e-01
    3.013554e+01    1.970080e+02    1.680705e-07    1.101583e+02    7.317680e-09    2.305357e-13    6.946800e-10   -4.489288e-01
    3.013319e+01    1.969927e+02    1.954013e-07    1.279337e+02    7.325000e-09    2.403589e-13    7.278355e-10   -4.439288e-01
    3.013064e+01    1.969761e+02    2.271738e-07    1.485444e+02    7.333820e-09    2.506310e-13    7.627180e-10   -4.389288e-01
    3.012791e+01    1.969583e+02    2.641089e-07    1.724359e+02    7.344200e-09    2.613734e-13    7.994100e-10   -4.339288e-01
    3.012496e+01    1.969392e+02    3.070448e-07    2.001219e+02    7.356205e-09    2.726088e-13    8.379955e-10   -4.289288e-01
    3.012178e+01    1.969184e+02    3.569554e-07    2.321949e+02    7.369905e-09    2.843607e-13    8.785605e-10   -4.239288e-01
    3.011835e+01    1.968963e+02    4.149721e-07    2.693384e+02    7.385365e-09    2.966540e-13    9.211940e-10   -4.189288e-01
    3.011466e+01    1.968722e+02    4.824098e-07    3.123395e+02    7.402650e-09    3.095144e-13    9.659870e-10   -4.139288e-01
    3.011069e+01    1.968464e+02    5.607960e-07    3.621047e+02    7.421840e-09    3.229691e-13    1.013032e-09   -4.089288e-01
    3.010640e+01    1.968186e+02    6.519060e-07    4.196774e+02    7.443005e-09    3.370462e-13    1.062424e-09   -4.039288e-01
    3.010179e+01    1.967887e+02    7.578010e-07    4.862584e+02    7.466215e-09    3.517752e-13    1.114258e-09   -3.989288e-01
    3.009682e+01    1.967565e+02    8.808765e-07    5.632279e+02    7.491550e-09    3.671871e-13    1.168632e-09   -3.939288e-01
    3.009147e+01    1.967218e+02    1.023915e-06    6.521717e+02    7.519090e-09    3.833139e-13    1.225645e-09   -3.889288e-01
    3.008570e+01    1.966845e+02    1.190146e-06    7.549132e+02    7.548900e-09    4.001892e-13    1.285395e-09   -3.839288e-01
    3.007950e+01    1.966444e+02    1.383324e-06    8.735428e+02    7.581070e-09    4.178480e-13    1.347984e-09   -3.789288e-01
    3.007281e+01    1.966012e+02    1.607806e-06    1.010461e+03    7.615670e-09    4.363267e-13    1.413509e-09   -3.739288e-01
    3.006562e+01    1.965548e+02    1.868651e-06    1.168421e+03    7.652780e-09    4.556634e-13    1.482071e-09   -3.689288e-01
    3.005788e+01    1.965048e+02    2.171734e-06    1.350575e+03    7.692480e-09    4.758977e-13    1.553769e-09   -3.639288e-01
    3.004955e+01    1.964512e+02    2.523873e-06    1.560537e+03    7.734845e-09    4.970706e-13    1.628699e-09   -3.589288e-01
    3.004059e+01    1.963936e+02    2.932983e-06    1.802441e+03    7.779955e-09    5.192250e-13    1.706958e-09   -3.539288e-01
    3.003093e+01    1.963316e+02    3.408251e-06    2.081022e+03    7.827875e-09    5.424055e-13    1.788641e-09   -3.489288e-01
    3.002055e+01    1.962649e+02    3.960334e-06    2.401689e+03    7.878685e-09    5.666580e-13    1.873837e-09   -3.439288e-01
    3.000938e+01    1.961934e+02    4.601598e-06    2.770630e+03    7.932450e-09    5.920310e-13    1.962635e-09   -3.389288e-01
    2.999738e+01    1.961166e+02    5.346385e-06    3.194905e+03    7.989245e-09    6.185740e-13    2.055120e-09   -3.339288e-01
    2.998447e+01    1.960341e+02    6.211335e-06    3.682585e+03    8.049125e-09    6.463385e-13    2.151371e-09   -3.289288e-01
    2.997059e+01    1.959458e+02    7.215735e-06    4.242871e+03    8.112155e-09    6.753790e-13    2.251463e-09   -3.239288e-01
    2.995568e+01    1.958509e+02    8.381945e-06    4.886255e+03    8.178395e-09    7.057500e-13    2.355465e-09   -3.189288e-01
    2.993966e+01    1.957492e+02    9.735890e-06    5.624705e+03    8.247890e-09    7.375100e-13    2.463441e-09   -3.139288e-01
    2.992245e+01    1.956402e+02    1.130760e-05    6.471847e+03    8.320690e-09    7.707175e-13    2.575446e-09   -3.089288e-01
    2.990398e+01    1.955236e+02    1.313186e-05    7.443201e+03    8.396835e-09    8.054345e-13    2.691530e-09   -3.039288e-01
    2.988414e+01    1.953987e+02    1.524897e-05    8.556422e+03    8.476360e-09    8.417245e-13    2.811734e-09   -2.989288e-01
    2.986286e+01    1.952651e+02    1.770559e-05    9.831599e+03    8.559290e-09    8.796535e-13    2.936089e-09   -2.939288e-01
    2.984004e+01    1.951224e+02    2.055570e-05    1.129156e+04    8.645655e-09    9.192890e-13    3.064620e-09   -2.889288e-01
    2.981557e+01    1.949698e+02    2.386178e-05    1.296225e+04    8.735460e-09    9.607010e-13    3.197338e-09   -2.839288e-01
    2.978934e+01    1.948069e+02    2.769609e-05    1.487310e+04    8.828720e-09    1.003962e-12    3.334249e-09   -2.789288e-01
    2.976125e+01    1.946333e+02    3.214215e-05    1.705758e+04    8.925425e-09    1.049146e-12    3.475343e-09   -2.739288e-01
    2.973116e+01    1.944482e+02    3.729652e-05    1.955357e+04    9.025565e-09    1.096330e-12    3.620603e-09   -2.689288e-01
    2.969898e+01    1.942511e+02    4.327073e-05    2.240407e+04    9.129120e-09    1.145593e-12    3.769998e-09   -2.639288e-01
    2.966456e+01    1.940416e+02    5.019355e-05    2.565777e+04    9.236065e-09    1.197015e-12    3.923488e-09   -2.589288e-01
    2.962779e+01    1.938191e+02    5.821355e-05    2.936980e+04    9.346360e-09    1.250681e-12    4.081018e-09   -2.539288e-01
    2.958850e+01    1.935829e+02    6.750220e-05    3.360251e+04    9.459960e-09    1.306676e-12    4.242523e-09   -2.489288e-01
    2.954659e+01    1.933327e+02    7.825705e-05    3.842648e+04    9.576800e-09    1.365089e-12    4.407925e-09   -2.439288e-01
    2.950190e+01    1.930681e+02    9.070580e-05    4.392134e+04    9.696825e-09    1.426010e-12    4.577135e-09   -2.389288e-01
    2.945427e+01    1.927885e+02    1.051106e-04    5.017714e+04    9.819945e-09    1.489532e-12    4.750049e-09   -2.339288e-01
    2.940360e+01    1.924939e+02    1.217731e-04    5.729538e+04    9.946085e-09    1.555750e-12    4.926553e-09   -2.289288e-01
    2.934971e+01    1.921839e+02    1.410400e-04    6.539055e+04    1.007515e-08    1.624763e-12    5.106520e-09   -2.239288e-01
    2.929247e+01    1.918584e+02    1.633100e-04    7.459162e+04    1.020702e-08    1.696670e-12    5.289820e-09   -2.189288e-01
    2.923174e+01    1.915175e+02    1.890408e-04    8.504377e+04    1.034160e-08    1.771577e-12    5.476295e-09   -2.139288e-01
    2.916740e+01    1.911613e+02    2.187571e-04    9.691033e+04    1.047876e-08    1.849585e-12    5.665790e-09   -2.089288e-01
    2.909930e+01    1.907903e+02    2.530609e-04    1.103748e+05    1.061837e-08    1.930807e-12    5.858135e-09   -2.039288e-01
    2.902734e+01    1.904050e+02    2.926416e-04    1.256432e+05    1.076030e-08    2.015350e-12    6.053155e-09   -1.989288e-01
    2.895143e+01    1.900065e+02    3.382878e-04    1.429470e+05    1.090439e-08    2.103329e-12    6.250660e-09   -1.939288e-01
    2.887146e+01    1.895958e+02    3.909016e-04    1.625452e+05    1.105051e-08    2.194860e-12    6.450455e-09   -1.889288e-01
    2.878737e+01    1.891745e+02    4.515132e-04    1.847284e+05    1.119848e-08    2.290062e-12    6.652335e-09   -1.839288e-01
    2.869910e+01    1.887446e+02    5.212985e-04    2.098214e+05    1.134815e-08    2.389057e-12    6.856095e-09   -1.789288e-01
    2.860668e+01    1.883083e+02    6.015975e-04    2.381881e+05    1.149935e-08    2.491969e-12    7.061520e-09   -1.739288e-01
    2.851003e+01    1.878687e+02    6.939380e-04    2.702346e+05    1.165192e-08    2.598927e-12    7.268395e-09   -1.689288e-01
    2.840927e+01    1.874289e+02    8.000565e-04    3.064151e+05    1.180567e-08    2.710059e-12    7.476490e-09   -1.639288e-01
    2.830442e+01    1.869930e+02    9.219290e-04    3.472363e+05    1.196043e-08    2.825502e-12    7.685585e-09   -1.589288e-01
    2.819561e+01    1.865656e+02    1.061799e-03    3.932637e+05    1.211603e-08    2.945389e-12    7.895455e-09   -1.539288e-01
    2.808299e+01    1.861521e+02    1.222213e-03    4.451284e+05    1.227227e-08    3.069864e-12    8.105875e-09   -1.489288e-01
    2.796673e+01    1.857584e+02    1.406056e-03    5.035338e+05    1.242899e-08    3.199069e-12    8.316610e-09   -1.439288e-01
    2.784707e+01    1.853913e+02    1.616599e-03    5.692645e+05    1.258601e-08    3.333149e-12    8.527445e-09   -1.389288e-01
    2.772427e+01    1.850581e+02    1.857542e-03    6.431947e+05    1.274314e-08    3.472257e-12    8.738150e-09   -1.339288e-01
    2.759867e+01    1.847676e+02    2.133071e-03    7.263007e+05    1.290022e-08    3.616545e-12    8.948510e-09   -1.289288e-01
    2.747053e+01    1.845284e+02    2.447914e-03    8.196676e+05    1.305706e-08    3.766171e-12    9.158310e-09   -1.239288e-01
    2.734024e+01    1.843504e+02    2.807415e-03    9.245077e+05    1.321352e-08    3.921298e-12    9.367330e-09   -1.189288e-01
    2.720815e+01    1.842442e+02    3.217600e-03    1.042171e+06    1.336942e-08    4.082091e-12    9.575380e-09   -1.139288e-01
    2.707464e+01    1.842210e+02    3.685268e-03    1.174162e+06    1.352459e-08    4.248719e-12    9.782250e-09   -1.089288e-01
    2.694003e+01    1.842921e+02    4.218081e-03    1.322156e+06    1.367888e-08    4.421356e-12    9.987750e-09   -1.039288e-01
    2.680462e+01    1.844695e+02    4.824670e-03    1.488016e+06    1.383216e-08    4.600181e-12    1.019170e-08   -9.892880e-02
    2.666869e+01    1.847652e+02    5.514745e-03    1.673816e+06    1.398426e-08    4.785378e-12    1.039392e-08   -9.392880e-02
    2.653236e+01    1.851915e+02    6.299235e-03    1.881855e+06    1.413506e-08    4.977133e-12    1.059424e-08   -8.892880e-02
    2.639571e+01    1.857600e+02    7.190415e-03    2.114680e+06    1.428442e-08    5.175640e-12    1.079251e-08   -8.392880e-02
    2.625869e+01    1.864818e+02    8.202055e-03    2.375102e+06    1.443224e-08    5.381095e-12    1.098858e-08   -7.892880e-02
    2.612106e+01    1.873672e+02    9.349610e-03    2.666215e+06    1.457838e-08    5.593705e-12    1.118230e-08   -7.392880e-02
    2.598245e+01    1.884252e+02    1.065037e-02    2.991411e+06    1.472274e-08    5.813675e-12    1.137354e-08   -6.892880e-02
    2.584231e+01    1.896634e+02    1.212364e-02    3.354385e+06    1.486522e-08    6.041225e-12    1.156219e-08   -6.392880e-02
    2.569988e+01    1.910874e+02    1.379096e-02    3.759139e+06    1.500574e-08    6.276570e-12    1.174813e-08   -5.892880e-02
    2.555421e+01    1.927005e+02    1.567630e-02    4.209983e+06    1.514418e-08    6.519935e-12    1.193127e-08   -5.392880e-02
    2.540421e+01    1.945036e+02    1.780623e-02    4.711509e+06    1.528051e-08    6.771560e-12    1.211150e-08   -4.892880e-02
    2.524860e+01    1.964946e+02    2.021011e-02    5.268577e+06    1.541462e-08    7.031685e-12    1.228876e-08   -4.392880e-02
    2.508602e+01    1.986686e+02    2.292030e-02    5.886272e+06    1.554647e-08    7.300550e-12    1.246297e-08   -3.892880e-02
    2.491497e+01    2.010171e+02    2.597226e-02    6.569842e+06    1.567600e-08    7.578415e-12    1.263406e-08   -3.392880e-02
    2.473394e+01    2.035288e+02    2.940474e-02    7.324649e+06    1.580316e-08    7.865540e-12    1.280198e-08   -2.892880e-02
    2.454145e+01    2.061887e+02    3.325980e-02    8.156072e+06    1.592791e-08    8.162195e-12    1.296669e-08   -2.392880e-02
    2.433605e+01    2.089787e+02    3.758288e-02    9.069417e+06    1.605022e-08    8.468655e-12    1.312815e-08   -1.892880e-02
    2.411645e+01    2.118778e+02    4.242281e-02    1.006981e+07    1.617005e-08    8.785215e-12    1.328634e-08   -1.392880e-02
    2.388154e+01    2.148622e+02    4.783166e-02    1.116210e+07    1.628740e-08    9.112160e-12    1.344123e-08   -8.928800e-03
    2.363041e+01    2.179056e+02    5.386465e-02    1.235071e+07    1.640224e-08    9.449805e-12    1.359281e-08   -3.928800e-03
    2.336241e+01    2.209804e+02    6.057995e-02    1.363953e+07    1.651456e-08    9.798455e-12    1.374108e-08    1.071200e-03
    2.307720e+01    2.240567e+02    6.803825e-02    1.503181e+07    1.662437e-08    1.015844e-11    1.388604e-08    6.071200e-03
    2.277472e+01    2.271043e+02    7.630260e-02    1.653003e+07    1.673165e-08    1.053009e-11    1.402769e-08    1.107120e-02
    2.245524e+01    2.300930e+02    8.543780e-02    1.813585e+07    1.683643e-08    1.091376e-11    1.416604e-08    1.607120e-02
    2.211926e+01    2.329923e+02    9.551010e-02    1.984997e+07    1.693871e-08    1.130978e-11    1.430113e-08    2.107120e-02
    2.176764e+01    2.357734e+02    1.065863e-01    2.167215e+07    1.703849e-08    1.171856e-11    1.443297e-08    2.607120e-02
    2.140142e+01    2.384081e+02    1.187338e-01    2.360110e+07    1.713581e-08    1.214045e-11    1.456159e-08    3.107120e-02
    2.102187e+01    2.408711e+02    1.320192e-01    2.563457e+07    1.723068e-08    1.257585e-11    1.468702e-08    3.607120e-02
    2.063045e+01    2.431387e+02    1.465084e-01    2.776929e+07    1.732313e-08    1.302516e-11    1.480930e-08    4.107120e-02
    2.022874e+01    2.451906e+02    1.622656e-01    3.000108e+07    1.741320e-08    1.348881e-11    1.492848e-08    4.607120e-02
    1.981840e+01    2.470090e+02    1.793530e-01    3.232487e+07    1.750090e-08    1.396723e-11    1.504459e-08    5.107120e-02
    1.940115e+01    2.485795e+02    1.978298e-01    3.473486e+07    1.758628e-08    1.446087e-11    1.515770e-08    5.607120e-02
    1.897873e+01    2.498911e+02    2.177524e-01    3.722454e+07    1.766937e-08    1.497018e-11    1.526783e-08    6.107120e-02
    1.855285e+01    2.509358e+02    2.391734e-01    3.978691e+07    1.775021e-08    1.549566e-11    1.537506e-08    6.607120e-02
    1.812518e+01    2.517090e+02    2.621414e-01    4.241458e+07    1.782883e-08    1.603779e-11    1.547943e-08    7.107120e-02
    1.769728e+01    2.522090e+02    2.867011e-01    4.509981e+07    1.790529e-08    1.659709e-11    1.558099e-08    7.607120e-02
    1.727070e+01    2.524373e+02    3.128923e-01    4.783485e+07    1.797963e-08    1.717410e-11    1.567980e-08    8.107120e-02
    1.684678e+01    2.523974e+02    3.407508e-01    5.061180e+07    1.805187e-08    1.776935e-11    1.577594e-08    8.607120e-02
    1.642682e+01    2.520959e+02    3.703075e-01    5.342297e+07    1.812208e-08    1.838342e-11    1.586944e-08    9.107120e-02
    1.601196e+01    2.515408e+02    4.015886e-01    5.626081e+07    1.819031e-08    1.901690e-11    1.596038e-08    9.607120e-02
    1.560322e+01    2.507424e+02    4.346163e-01    5.911818e+07    1.825658e-08    1.967039e-11    1.604881e-08    1.010712e-01
    1.520149e+01    2.497116e+02    4.694079e-01    6.198816e+07    1.832095e-08    2.034452e-11    1.613479e-08    1.060712e-01
    1.480756e+01    2.484616e+02    5.059770e-01    6.486446e+07    1.838347e-08    2.103996e-11    1.621840e-08    1.110712e-01
    1.442205e+01    2.470055e+02    5.443335e-01    6.774116e+07    1.844419e-08    2.175737e-11    1.629967e-08    1.160712e-01
    1.404553e+01    2.453573e+02    5.844825e-01    7.061292e+07    1.850315e-08    2.249746e-11    1.637869e-08    1.210712e-01
    1.367840e+01    2.435314e+02    6.264275e-01    7.347492e+07    1.856039e-08    2.326094e-11    1.645551e-08    1.260712e-01
    1.332102e+01    2.415422e+02    6.701670e-01    7.632294e+07    1.861597e-08    2.404858e-11    1.653018e-08    1.310712e-01
    1.297362e+01    2.394040e+02    7.156990e-01    7.915328e+07    1.866993e-08    2.486115e-11    1.660278e-08    1.360712e-01
    1.263636e+01    2.371310e+02    7.630170e-01    8.196278e+07    1.872232e-08    2.569947e-11    1.667335e-08    1.410712e-01
    1.230933e+01    2.347368e+02    8.121135e-01    8.474877e+07    1.877318e-08    2.656436e-11    1.674195e-08    1.460712e-01
    1.199255e+01    2.322347e+02    8.629790e-01    8.750915e+07    1.882255e-08    2.745669e-11    1.680866e-08    1.510712e-01
    1.168599e+01    2.296374e+02    9.156030e-01    9.024222e+07    1.887049e-08    2.837736e-11    1.687351e-08    1.560712e-01
    1.138958e+01    2.269567e+02    9.699720e-01    9.294669e+07    1.891703e-08    2.932730e-11    1.693656e-08    1.610712e-01
