# sky130 nfet_01v8 gm/ID Processed Lookup Table
# Corner: ss
# Temperature: 0C
# W = 2.0 um
# L = 1.44 um (1440 nm)
# Columns: gm/id [1/V]  gm/gds [V/V]  id/W [A/m]  ft [Hz]  Cgg/W [F/m]  Cgd/W [F/m]  Cgs/W [F/m]  Vov [V]
#         gm/id          gm/gds            id/W              ft           Cgg/W           Cgd/W           Cgs/W             Vov
    2.965554e+01    1.518938e+02    4.383813e-09    6.833700e+00    3.027765e-09    2.454572e-14    7.378615e-11   -6.178387e-01
    2.965531e+01    1.518926e+02    5.084495e-09    7.947136e+00    3.019673e-09    2.549744e-14    7.638570e-11   -6.128387e-01
    2.965505e+01    1.518912e+02    5.897165e-09    9.241435e+00    3.011777e-09    2.648706e-14    7.910550e-11   -6.078387e-01
    2.965477e+01    1.518898e+02    6.839720e-09    1.074587e+01    3.004080e-09    2.751626e-14    8.195235e-11   -6.028387e-01
    2.965447e+01    1.518883e+02    7.932910e-09    1.249442e+01    2.996586e-09    2.858678e-14    8.493360e-11   -5.978387e-01
    2.965416e+01    1.518867e+02    9.200810e-09    1.452654e+01    2.989301e-09    2.970045e-14    8.805680e-11   -5.928387e-01
    2.965382e+01    1.518849e+02    1.067134e-08    1.688802e+01    2.982228e-09    3.085919e-14    9.133020e-11   -5.878387e-01
    2.965345e+01    1.518830e+02    1.237687e-08    1.963201e+01    2.975373e-09    3.206501e-14    9.476225e-11   -5.828387e-01
    2.965305e+01    1.518810e+02    1.435497e-08    2.282019e+01    2.968742e-09    3.332004e-14    9.836215e-11   -5.778387e-01
    2.965263e+01    1.518788e+02    1.664916e-08    2.652411e+01    2.962341e-09    3.462648e-14    1.021395e-10   -5.728387e-01
    2.965215e+01    1.518764e+02    1.930998e-08    3.082677e+01    2.956175e-09    3.598666e-14    1.061042e-10   -5.678387e-01
    2.965168e+01    1.518740e+02    2.239598e-08    3.582451e+01    2.950254e-09    3.740304e-14    1.102672e-10   -5.628387e-01
    2.965114e+01    1.518712e+02    2.597511e-08    4.162893e+01    2.944582e-09    3.887818e-14    1.146393e-10   -5.578387e-01
    2.965056e+01    1.518683e+02    3.012613e-08    4.836953e+01    2.939168e-09    4.041478e-14    1.192325e-10   -5.528387e-01
    2.964992e+01    1.518650e+02    3.494041e-08    5.619638e+01    2.934022e-09    4.201566e-14    1.240596e-10   -5.478387e-01
    2.964925e+01    1.518615e+02    4.052390e-08    6.528347e+01    2.929152e-09    4.368378e-14    1.291338e-10   -5.428387e-01
    2.964853e+01    1.518579e+02    4.699948e-08    7.583237e+01    2.924568e-09    4.542228e-14    1.344689e-10   -5.378387e-01
    2.964774e+01    1.518539e+02    5.450965e-08    8.807664e+01    2.920280e-09    4.723442e-14    1.400796e-10   -5.328387e-01
    2.964691e+01    1.518496e+02    6.321960e-08    1.022867e+02    2.916298e-09    4.912363e-14    1.459812e-10   -5.278387e-01
    2.964602e+01    1.518450e+02    7.332095e-08    1.187760e+02    2.912635e-09    5.109350e-14    1.521898e-10   -5.228387e-01
    2.964504e+01    1.518400e+02    8.503595e-08    1.379069e+02    2.909301e-09    5.314785e-14    1.587223e-10   -5.178387e-01
    2.964400e+01    1.518347e+02    9.862225e-08    1.600994e+02    2.906312e-09    5.529065e-14    1.655966e-10   -5.128387e-01
    2.964287e+01    1.518289e+02    1.143786e-07    1.858390e+02    2.903678e-09    5.752600e-14    1.728312e-10   -5.078387e-01
    2.964167e+01    1.518228e+02    1.326515e-07    2.156875e+02    2.901416e-09    5.985835e-14    1.804456e-10   -5.028387e-01
    2.964037e+01    1.518161e+02    1.538427e-07    2.502947e+02    2.899538e-09    6.229225e-14    1.884602e-10   -4.978387e-01
    2.963897e+01    1.518090e+02    1.784180e-07    2.904117e+02    2.898063e-09    6.483250e-14    1.968964e-10   -4.928387e-01
    2.963745e+01    1.518012e+02    2.069175e-07    3.369061e+02    2.897005e-09    6.748415e-14    2.057763e-10   -4.878387e-01
    2.963584e+01    1.517930e+02    2.399674e-07    3.907814e+02    2.896381e-09    7.025250e-14    2.151232e-10   -4.828387e-01
    2.963407e+01    1.517840e+02    2.782940e-07    4.531950e+02    2.896211e-09    7.314310e-14    2.249612e-10   -4.778387e-01
    2.963220e+01    1.517744e+02    3.227389e-07    5.254846e+02    2.896513e-09    7.616175e-14    2.353156e-10   -4.728387e-01
    2.963018e+01    1.517640e+02    3.742784e-07    6.091930e+02    2.897305e-09    7.931455e-14    2.462125e-10   -4.678387e-01
    2.962800e+01    1.517530e+02    4.340437e-07    7.061001e+02    2.898610e-09    8.260790e-14    2.576791e-10   -4.628387e-01
    2.962565e+01    1.517410e+02    5.033470e-07    8.182583e+02    2.900448e-09    8.604850e-14    2.697437e-10   -4.578387e-01
    2.962313e+01    1.517281e+02    5.837085e-07    9.480341e+02    2.902841e-09    8.964330e-14    2.824353e-10   -4.528387e-01
    2.962043e+01    1.517142e+02    6.768910e-07    1.098153e+03    2.905811e-09    9.339965e-14    2.957841e-10   -4.478387e-01
    2.961750e+01    1.516993e+02    7.849385e-07    1.271754e+03    2.909384e-09    9.732530e-14    3.098213e-10   -4.428387e-01
    2.961435e+01    1.516833e+02    9.102190e-07    1.472451e+03    2.913583e-09    1.014282e-13    3.245790e-10   -4.378387e-01
    2.961097e+01    1.516661e+02    1.055478e-06    1.704402e+03    2.918434e-09    1.057168e-13    3.400902e-10   -4.328387e-01
    2.960732e+01    1.516475e+02    1.223896e-06    1.972387e+03    2.923961e-09    1.101999e-13    3.563887e-10   -4.278387e-01
    2.960341e+01    1.516276e+02    1.419162e-06    2.281903e+03    2.930194e-09    1.148867e-13    3.735094e-10   -4.228387e-01
    2.959919e+01    1.516061e+02    1.645547e-06    2.639265e+03    2.937158e-09    1.197868e-13    3.914878e-10   -4.178387e-01
    2.959465e+01    1.515830e+02    1.908004e-06    3.051720e+03    2.944881e-09    1.249101e-13    4.103601e-10   -4.128387e-01
    2.958978e+01    1.515582e+02    2.212269e-06    3.527594e+03    2.953393e-09    1.302673e-13    4.301634e-10   -4.078387e-01
    2.958453e+01    1.515316e+02    2.564990e-06    4.076428e+03    2.962722e-09    1.358692e-13    4.509350e-10   -4.028387e-01
    2.957890e+01    1.515030e+02    2.973868e-06    4.709164e+03    2.972898e-09    1.417273e-13    4.727130e-10   -3.978387e-01
    2.957282e+01    1.514721e+02    3.447823e-06    5.438337e+03    2.983951e-09    1.478534e-13    4.955358e-10   -3.928387e-01
    2.956630e+01    1.514390e+02    3.997188e-06    6.278310e+03    2.995911e-09    1.542600e-13    5.194420e-10   -3.878387e-01
    2.955929e+01    1.514035e+02    4.633930e-06    7.245510e+03    3.008809e-09    1.609600e-13    5.444705e-10   -3.828387e-01
    2.955175e+01    1.513653e+02    5.371905e-06    8.358733e+03    3.022674e-09    1.679668e-13    5.706600e-10   -3.778387e-01
    2.954362e+01    1.513243e+02    6.227170e-06    9.639467e+03    3.037537e-09    1.752945e-13    5.980495e-10   -3.728387e-01
    2.953492e+01    1.512802e+02    7.218290e-06    1.111226e+04    3.053430e-09    1.829577e-13    6.266765e-10   -3.678387e-01
    2.952554e+01    1.512329e+02    8.366785e-06    1.280514e+04    3.070380e-09    1.909714e-13    6.565800e-10   -3.628387e-01
    2.951549e+01    1.511821e+02    9.697540e-06    1.475012e+04    3.088419e-09    1.993515e-13    6.877970e-10   -3.578387e-01
    2.950466e+01    1.511276e+02    1.123937e-05    1.698366e+04    3.107575e-09    2.081144e-13    7.203635e-10   -3.528387e-01
    2.949304e+01    1.510692e+02    1.302562e-05    1.954736e+04    3.127878e-09    2.172769e-13    7.543155e-10   -3.478387e-01
    2.948056e+01    1.510065e+02    1.509483e-05    2.248862e+04    3.149353e-09    2.268568e-13    7.896870e-10   -3.428387e-01
    2.946717e+01    1.509393e+02    1.749162e-05    2.586138e+04    3.172026e-09    2.368724e-13    8.265105e-10   -3.378387e-01
    2.945278e+01    1.508673e+02    2.026758e-05    2.972704e+04    3.195925e-09    2.473425e-13    8.648175e-10   -3.328387e-01
    2.943735e+01    1.507902e+02    2.348233e-05    3.415541e+04    3.221073e-09    2.582868e-13    9.046365e-10   -3.278387e-01
    2.942079e+01    1.507075e+02    2.720481e-05    3.922585e+04    3.247490e-09    2.697256e-13    9.459960e-10   -3.228387e-01
    2.940303e+01    1.506191e+02    3.151469e-05    4.502853e+04    3.275198e-09    2.816799e-13    9.889190e-10   -3.178387e-01
    2.938398e+01    1.505245e+02    3.650401e-05    5.166576e+04    3.304216e-09    2.941715e-13    1.033429e-09   -3.128387e-01
    2.936357e+01    1.504234e+02    4.227905e-05    5.925373e+04    3.334559e-09    3.072227e-13    1.079545e-09   -3.078387e-01
    2.934168e+01    1.503152e+02    4.896253e-05    6.792407e+04    3.366242e-09    3.208569e-13    1.127283e-09   -3.028387e-01
    2.931826e+01    1.501997e+02    5.669610e-05    7.782608e+04    3.399276e-09    3.350978e-13    1.176656e-09   -2.978387e-01
    2.929316e+01    1.500764e+02    6.564325e-05    8.912876e+04    3.433670e-09    3.499701e-13    1.227674e-09   -2.928387e-01
    2.926628e+01    1.499450e+02    7.599250e-05    1.020235e+05    3.469429e-09    3.654994e-13    1.280342e-09   -2.878387e-01
    2.923756e+01    1.498048e+02    8.796110e-05    1.167269e+05    3.506558e-09    3.817117e-13    1.334665e-09   -2.828387e-01
    2.920684e+01    1.496556e+02    1.017997e-04    1.334836e+05    3.545056e-09    3.986341e-13    1.390637e-09   -2.778387e-01
    2.917400e+01    1.494968e+02    1.177966e-04    1.525702e+05    3.584920e-09    4.162944e-13    1.448254e-09   -2.728387e-01
    2.913894e+01    1.493280e+02    1.362843e-04    1.742990e+05    3.626142e-09    4.347211e-13    1.507505e-09   -2.678387e-01
    2.910153e+01    1.491487e+02    1.576449e-04    1.990224e+05    3.668713e-09    4.539436e-13    1.568377e-09   -2.628387e-01
    2.906162e+01    1.489587e+02    1.823183e-04    2.271380e+05    3.712620e-09    4.739921e-13    1.630848e-09   -2.578387e-01
    2.901906e+01    1.487572e+02    2.108099e-04    2.590931e+05    3.757844e-09    4.948974e-13    1.694895e-09   -2.528387e-01
    2.897376e+01    1.485442e+02    2.437005e-04    2.953924e+05    3.804365e-09    5.166915e-13    1.760490e-09   -2.478387e-01
    2.892555e+01    1.483191e+02    2.816569e-04    3.366030e+05    3.852158e-09    5.394070e-13    1.827598e-09   -2.428387e-01
    2.887429e+01    1.480818e+02    3.254440e-04    3.833629e+05    3.901195e-09    5.630775e-13    1.896184e-09   -2.378387e-01
    2.881985e+01    1.478319e+02    3.759391e-04    4.363888e+05    3.951444e-09    5.877370e-13    1.966203e-09   -2.328387e-01
    2.876209e+01    1.475693e+02    4.341471e-04    4.964850e+05    4.002869e-09    6.134205e-13    2.037608e-09   -2.278387e-01
    2.870090e+01    1.472940e+02    5.012185e-04    5.645542e+05    4.055432e-09    6.401650e-13    2.110350e-09   -2.228387e-01
    2.863608e+01    1.470059e+02    5.784700e-04    6.416071e+05    4.109088e-09    6.680060e-13    2.184371e-09   -2.178387e-01
    2.856759e+01    1.467052e+02    6.674050e-04    7.287760e+05    4.163794e-09    6.969825e-13    2.259612e-09   -2.128387e-01
    2.849528e+01    1.463923e+02    7.697425e-04    8.273277e+05    4.219499e-09    7.271325e-13    2.336009e-09   -2.078387e-01
    2.841906e+01    1.460676e+02    8.874420e-04    9.386780e+05    4.276152e-09    7.584955e-13    2.413496e-09   -2.028387e-01
    2.833882e+01    1.457318e+02    1.022739e-03    1.064408e+06    4.333697e-09    7.911120e-13    2.492001e-09   -1.978387e-01
    2.825450e+01    1.453860e+02    1.178179e-03    1.206282e+06    4.392078e-09    8.250235e-13    2.571450e-09   -1.928387e-01
    2.816607e+01    1.450311e+02    1.356656e-03    1.366267e+06    4.451234e-09    8.602725e-13    2.651766e-09   -1.878387e-01
    2.807350e+01    1.446687e+02    1.561463e-03    1.546556e+06    4.511103e-09    8.969015e-13    2.732870e-09   -1.828387e-01
    2.797676e+01    1.443005e+02    1.796339e-03    1.749588e+06    4.571621e-09    9.349555e-13    2.814680e-09   -1.778387e-01
    2.787592e+01    1.439287e+02    2.065525e-03    1.978078e+06    4.632723e-09    9.744795e-13    2.897113e-09   -1.728387e-01
    2.777101e+01    1.435558e+02    2.373827e-03    2.235045e+06    4.694340e-09    1.015519e-12    2.980083e-09   -1.678387e-01
    2.766215e+01    1.431847e+02    2.726688e-03    2.523845e+06    4.756406e-09    1.058122e-12    3.063503e-09   -1.628387e-01
    2.754944e+01    1.428189e+02    3.130267e-03    2.848202e+06    4.818851e-09    1.102336e-12    3.147288e-09   -1.578387e-01
    2.743306e+01    1.424618e+02    3.591522e-03    3.212257e+06    4.881605e-09    1.148211e-12    3.231348e-09   -1.528387e-01
    2.731324e+01    1.421182e+02    4.118311e-03    3.620606e+06    4.944600e-09    1.195798e-12    3.315596e-09   -1.478387e-01
    2.719019e+01    1.417925e+02    4.719501e-03    4.078349e+06    5.007765e-09    1.245146e-12    3.399945e-09   -1.428387e-01
    2.706418e+01    1.414902e+02    5.405085e-03    4.591149e+06    5.071030e-09    1.296311e-12    3.484307e-09   -1.378387e-01
    2.693554e+01    1.412168e+02    6.186320e-03    5.165291e+06    5.134325e-09    1.349343e-12    3.568598e-09   -1.328387e-01
    2.680456e+01    1.409787e+02    7.075880e-03    5.807747e+06    5.197585e-09    1.404301e-12    3.652730e-09   -1.278387e-01
    2.667162e+01    1.407823e+02    8.088010e-03    6.526254e+06    5.260745e-09    1.461239e-12    3.736623e-09   -1.228387e-01
    2.653703e+01    1.406346e+02    9.238735e-03    7.329402e+06    5.323735e-09    1.520215e-12    3.820195e-09   -1.178387e-01
    2.640113e+01    1.405427e+02    1.054605e-02    8.226708e+06    5.386495e-09    1.581289e-12    3.903367e-09   -1.128387e-01
    2.626423e+01    1.405140e+02    1.203013e-02    9.228725e+06    5.448960e-09    1.644520e-12    3.986063e-09   -1.078387e-01
    2.612659e+01    1.405558e+02    1.371366e-02    1.034714e+07    5.511070e-09    1.709970e-12    4.068208e-09   -1.028387e-01
    2.598841e+01    1.406755e+02    1.562199e-02    1.159485e+07    5.572770e-09    1.777703e-12    4.149731e-09   -9.783870e-02
    2.584980e+01    1.408799e+02    1.778357e-02    1.298612e+07    5.634000e-09    1.847783e-12    4.230565e-09   -9.283870e-02
    2.571078e+01    1.411756e+02    2.023021e-02    1.453663e+07    5.694715e-09    1.920277e-12    4.310646e-09   -8.783870e-02
    2.557125e+01    1.415684e+02    2.299743e-02    1.626361e+07    5.754855e-09    1.995253e-12    4.389912e-09   -8.283870e-02
    2.543095e+01    1.420631e+02    2.612488e-02    1.818585e+07    5.814380e-09    2.072780e-12    4.468305e-09   -7.783870e-02
    2.528950e+01    1.426638e+02    2.965675e-02    2.032386e+07    5.873240e-09    2.152931e-12    4.545772e-09   -7.283870e-02
    2.514634e+01    1.433728e+02    3.364217e-02    2.269980e+07    5.931395e-09    2.235778e-12    4.622261e-09   -6.783870e-02
    2.500073e+01    1.441909e+02    3.813564e-02    2.533750e+07    5.988805e-09    2.321397e-12    4.697728e-09   -6.283870e-02
    2.485184e+01    1.451175e+02    4.319749e-02    2.826241e+07    6.045440e-09    2.409864e-12    4.772127e-09   -5.783870e-02
    2.469862e+01    1.461497e+02    4.889428e-02    3.150153e+07    6.101255e-09    2.501261e-12    4.845422e-09   -5.283870e-02
    2.453993e+01    1.472826e+02    5.529925e-02    3.508309e+07    6.156230e-09    2.595667e-12    4.917574e-09   -4.783870e-02
    2.437456e+01    1.485095e+02    6.249260e-02    3.903649e+07    6.210330e-09    2.693166e-12    4.988555e-09   -4.283870e-02
    2.420118e+01    1.498211e+02    7.056200e-02    4.339185e+07    6.263535e-09    2.793846e-12    5.058335e-09   -3.783870e-02
    2.401854e+01    1.512062e+02    7.960245e-02    4.817960e+07    6.315825e-09    2.897793e-12    5.126890e-09   -3.283870e-02
    2.382534e+01    1.526514e+02    8.971690e-02    5.343014e+07    6.367180e-09    3.005099e-12    5.194200e-09   -2.783870e-02
    2.362037e+01    1.541416e+02    1.010160e-01    5.917331e+07    6.417575e-09    3.115858e-12    5.260245e-09   -2.283870e-02
    2.340257e+01    1.556599e+02    1.136179e-01    6.543755e+07    6.467010e-09    3.230165e-12    5.325010e-09   -1.783870e-02
    2.317100e+01    1.571880e+02    1.276487e-01    7.224966e+07    6.515465e-09    3.348121e-12    5.388485e-09   -1.283870e-02
    2.292499e+01    1.587066e+02    1.432409e-01    7.963390e+07    6.562935e-09    3.469826e-12    5.450665e-09   -7.838700e-03
    2.266400e+01    1.601957e+02    1.605341e-01    8.761154e+07    6.609410e-09    3.595387e-12    5.511540e-09   -2.838700e-03
    2.238781e+01    1.616350e+02    1.796737e-01    9.620005e+07    6.654890e-09    3.724910e-12    5.571105e-09    2.161300e-03
    2.209643e+01    1.630043e+02    2.008099e-01    1.054128e+08    6.699370e-09    3.858507e-12    5.629370e-09    7.161300e-03
    2.179010e+01    1.642840e+02    2.240976e-01    1.152585e+08    6.742850e-09    3.996293e-12    5.686330e-09    1.216130e-02
    2.146934e+01    1.654554e+02    2.496939e-01    1.257406e+08    6.785335e-09    4.138387e-12    5.741990e-09    1.716130e-02
    2.113490e+01    1.665012e+02    2.777585e-01    1.368576e+08    6.826825e-09    4.284910e-12    5.796360e-09    2.216130e-02
    2.078770e+01    1.674055e+02    3.084512e-01    1.486021e+08    6.867330e-09    4.435988e-12    5.849445e-09    2.716130e-02
    2.042883e+01    1.681545e+02    3.419312e-01    1.609616e+08    6.906850e-09    4.591751e-12    5.901260e-09    3.216130e-02
    2.005960e+01    1.687366e+02    3.783557e-01    1.739184e+08    6.945400e-09    4.752332e-12    5.951815e-09    3.716130e-02
    1.968134e+01    1.691422e+02    4.178784e-01    1.874493e+08    6.982980e-09    4.917870e-12    6.001120e-09    4.216130e-02
    1.929549e+01    1.693644e+02    4.606486e-01    2.015266e+08    7.019615e-09    5.088505e-12    6.049200e-09    4.716130e-02
    1.890354e+01    1.693982e+02    5.068095e-01    2.161187e+08    7.055305e-09    5.264390e-12    6.096065e-09    5.216130e-02
    1.850698e+01    1.692417e+02    5.564980e-01    2.311901e+08    7.090065e-09    5.445670e-12    6.141735e-09    5.716130e-02
    1.810732e+01    1.688943e+02    6.098420e-01    2.467022e+08    7.123915e-09    5.632505e-12    6.186230e-09    6.216130e-02
    1.770597e+01    1.683583e+02    6.669625e-01    2.626145e+08    7.156860e-09    5.825060e-12    6.229565e-09    6.716130e-02
    1.730432e+01    1.676376e+02    7.279695e-01    2.788841e+08    7.188925e-09    6.023495e-12    6.271765e-09    7.216130e-02
    1.690368e+01    1.667378e+02    7.929645e-01    2.954682e+08    7.220120e-09    6.227985e-12    6.312850e-09    7.716130e-02
    1.650527e+01    1.656663e+02    8.620385e-01    3.123226e+08    7.250465e-09    6.438710e-12    6.352845e-09    8.216130e-02
    1.611022e+01    1.644316e+02    9.352715e-01    3.294045e+08    7.279970e-09    6.655855e-12    6.391770e-09    8.716130e-02
    1.571953e+01    1.630430e+02    1.012734e+00    3.466709e+08    7.308660e-09    6.879610e-12    6.429645e-09    9.216130e-02
    1.533413e+01    1.615111e+02    1.094487e+00    3.640812e+08    7.336545e-09    7.110175e-12    6.466500e-09    9.716130e-02
    1.495482e+01    1.598466e+02    1.180579e+00    3.815954e+08    7.363655e-09    7.347745e-12    6.502350e-09    1.021613e-01
    1.458231e+01    1.580612e+02    1.271053e+00    3.991773e+08    7.389995e-09    7.592535e-12    6.537225e-09    1.071613e-01
    1.421720e+01    1.561660e+02    1.365937e+00    4.167917e+08    7.415590e-09    7.844765e-12    6.571150e-09    1.121613e-01
    1.385998e+01    1.541727e+02    1.465256e+00    4.344071e+08    7.440455e-09    8.104655e-12    6.604145e-09    1.171613e-01
    1.351108e+01    1.520928e+02    1.569025e+00    4.519941e+08    7.464610e-09    8.372440e-12    6.636230e-09    1.221613e-01
    1.317081e+01    1.499371e+02    1.677250e+00    4.695265e+08    7.488075e-09    8.648360e-12    6.667435e-09    1.271613e-01
    1.283943e+01    1.477166e+02    1.789932e+00    4.869812e+08    7.510865e-09    8.932670e-12    6.697785e-09    1.321613e-01
    1.251711e+01    1.454414e+02    1.907064e+00    5.043377e+08    7.533000e-09    9.225615e-12    6.727295e-09    1.371613e-01
