# sky130 nfet_01v8 gm/ID Processed Lookup Table
# Corner: ff
# Temperature: 25C
# W = 2.0 um
# L = 3 um (3000 nm)
# Columns: gm/id [1/V]  gm/gds [V/V]  id/W [A/m]  ft [Hz]  Cgg/W [F/m]  Cgd/W [F/m]  Cgs/W [F/m]  Cdb/W [F/m]  vgs [V]  vth [V]  vdsat [V]
# vdsat = BSIM4 saturation voltage (|VDS|_sat, positive); use for headroom / saturation / cascode-bias calculations
#           gm/id          gm/gds            id/W              ft           Cgg/W           Cgd/W           Cgs/W           Cdb/W             vgs             vth           vdsat
    2.619045e+01    1.714264e+02    5.399265e-05    2.812403e+04    8.002400e-09    1.094427e-12    3.225986e-09    4.246486e-10    2.400000e-01    5.268626e-01    3.866925e-02
    2.617799e+01    1.711429e+02    7.015465e-05    3.577330e+04    8.170600e-09    1.185140e-12    3.471144e-09    4.511958e-10    2.500000e-01    5.268626e-01    3.867524e-02
    2.615169e+01    1.708279e+02    9.113680e-05    4.543370e+04    8.349020e-09    1.283261e-12    3.728375e-09    4.787267e-10    2.600000e-01    5.268626e-01    3.868302e-02
    2.611281e+01    1.704793e+02    1.183557e-04    5.761503e+04    8.537425e-09    1.389333e-12    3.997361e-09    5.071895e-10    2.700000e-01    5.268626e-01    3.869310e-02
    2.606215e+01    1.700956e+02    1.536349e-04    7.295113e+04    8.735505e-09    1.503928e-12    4.277676e-09    5.365230e-10    2.800000e-01    5.268626e-01    3.870616e-02
    2.600021e+01    1.696758e+02    1.993176e-04    9.222879e+04    8.942855e-09    1.627650e-12    4.568779e-09    5.666565e-10    2.900000e-01    5.268626e-01    3.872305e-02
    2.592721e+01    1.692196e+02    2.584096e-04    1.164226e+05    9.158980e-09    1.761140e-12    4.870024e-09    5.975100e-10    3.000000e-01    5.268626e-01    3.874489e-02
    2.584324e+01    1.687283e+02    3.347578e-04    1.467377e+05    9.383310e-09    1.905067e-12    5.180655e-09    6.289960e-10    3.100000e-01    5.268626e-01    3.877308e-02
    2.574830e+01    1.682048e+02    4.332757e-04    1.846611e+05    9.615180e-09    2.060143e-12    5.499830e-09    6.610195e-10    3.200000e-01    5.268626e-01    3.880939e-02
    2.564235e+01    1.676540e+02    5.602240e-04    2.320241e+05    9.853865e-09    2.227115e-12    5.826605e-09    6.934800e-10    3.300000e-01    5.268626e-01    3.885608e-02
    2.552545e+01    1.670838e+02    7.235610e-04    2.910773e+05    1.009858e-08    2.406768e-12    6.159975e-09    7.262715e-10    3.400000e-01    5.268626e-01    3.891602e-02
    2.539776e+01    1.665055e+02    9.333775e-04    3.645831e+05    1.034848e-08    2.599933e-12    6.498860e-09    7.592860e-10    3.500000e-01    5.268626e-01    3.899276e-02
    2.525965e+01    1.659348e+02    1.202437e-03    4.559264e+05    1.060266e-08    2.807480e-12    6.842140e-09    7.924125e-10    3.600000e-01    5.268626e-01    3.909077e-02
    2.511172e+01    1.653926e+02    1.546841e-03    5.692503e+05    1.086022e-08    3.030329e-12    7.188650e-09    8.255400e-10    3.700000e-01    5.268626e-01    3.921557e-02
    2.495490e+01    1.649057e+02    1.986858e-03    7.096255e+05    1.112023e-08    3.269447e-12    7.537225e-09    8.585580e-10    3.800000e-01    5.268626e-01    3.937399e-02
    2.479043e+01    1.645078e+02    2.547945e-03    8.832551e+05    1.138173e-08    3.525854e-12    7.886680e-09    8.913595e-10    3.900000e-01    5.268626e-01    3.957434e-02
    2.461991e+01    1.642397e+02    3.262008e-03    1.097734e+06    1.164379e-08    3.800626e-12    8.235855e-09    9.238410e-10    4.000000e-01    5.268626e-01    3.982670e-02
    2.444514e+01    1.641494e+02    4.168978e-03    1.362369e+06    1.190550e-08    4.094896e-12    8.583620e-09    9.559035e-10    4.100000e-01    5.268626e-01    4.014316e-02
    2.426811e+01    1.642925e+02    5.318750e-03    1.688571e+06    1.216596e-08    4.409861e-12    8.928875e-09    9.874550e-10    4.200000e-01    5.268626e-01    4.053807e-02
    2.409067e+01    1.647299e+02    6.773595e-03    2.090332e+06    1.242433e-08    4.746783e-12    9.270580e-09    1.018410e-09    4.300000e-01    5.268626e-01    4.102823e-02
    2.391435e+01    1.655270e+02    8.611130e-03    2.584795e+06    1.267981e-08    5.107000e-12    9.607775e-09    1.048691e-09    4.400000e-01    5.268626e-01    4.163304e-02
    2.373985e+01    1.667495e+02    1.092797e-02    3.192885e+06    1.293166e-08    5.491920e-12    9.939545e-09    1.078230e-09    4.500000e-01    5.268626e-01    4.237457e-02
    2.356676e+01    1.684603e+02    1.384408e-02    3.939992e+06    1.317919e-08    5.903045e-12    1.026508e-08    1.106965e-09    4.600000e-01    5.268626e-01    4.327749e-02
    2.339302e+01    1.707130e+02    1.750801e-02    4.856606e+06    1.342178e-08    6.341955e-12    1.058365e-08    1.134846e-09    4.700000e-01    5.268626e-01    4.436882e-02
    2.321472e+01    1.735465e+02    2.210277e-02    5.978808e+06    1.365890e-08    6.810325e-12    1.089459e-08    1.161831e-09    4.800000e-01    5.268626e-01    4.567749e-02
    2.302596e+01    1.769783e+02    2.785237e-02    7.348455e+06    1.389005e-08    7.309945e-12    1.119737e-08    1.187887e-09    4.900000e-01    5.268626e-01    4.723375e-02
    2.281904e+01    1.809982e+02    3.502849e-02    9.012860e+06    1.411485e-08    7.842705e-12    1.149152e-08    1.212987e-09    5.000000e-01    5.268626e-01    4.906827e-02
    2.258499e+01    1.855634e+02    4.395685e-02    1.102379e+07    1.433295e-08    8.410610e-12    1.177666e-08    1.237116e-09    5.100000e-01    5.268626e-01    5.121113e-02
    2.231434e+01    1.905953e+02    5.502235e-02    1.343559e+07    1.454409e-08    9.015810e-12    1.205250e-08    1.260264e-09    5.200000e-01    5.268626e-01    5.369062e-02
    2.199820e+01    1.959798e+02    6.867210e-02    1.630244e+07    1.474807e-08    9.660575e-12    1.231883e-08    1.282430e-09    5.300000e-01    5.268626e-01    5.653199e-02
    2.162922e+01    2.015704e+02    8.541545e-02    1.967476e+07    1.494473e-08    1.034733e-11    1.257551e-08    1.303619e-09    5.400000e-01    5.268626e-01    5.975625e-02
    2.120262e+01    2.071947e+02    1.058195e-01    2.359509e+07    1.513400e-08    1.107867e-11    1.282249e-08    1.323839e-09    5.500000e-01    5.268626e-01    6.337902e-02
    2.071662e+01    2.126643e+02    1.305010e-01    2.809387e+07    1.531586e-08    1.185735e-11    1.305975e-08    1.343109e-09    5.600000e-01    5.268626e-01    6.740973e-02
    2.017278e+01    2.177863e+02    1.601122e-01    3.318562e+07    1.549031e-08    1.268632e-11    1.328737e-08    1.361446e-09    5.700000e-01    5.268626e-01    7.185104e-02
    1.957569e+01    2.223761e+02    1.953238e-01    3.886622e+07    1.565742e-08    1.356871e-11    1.350544e-08    1.378876e-09    5.800000e-01    5.268626e-01    7.669865e-02
    1.893256e+01    2.262687e+02    2.368044e-01    4.511155e+07    1.581728e-08    1.450792e-11    1.371411e-08    1.395425e-09    5.900000e-01    5.268626e-01    8.194149e-02
    1.825241e+01    2.293286e+02    2.851988e-01    5.187795e+07    1.597001e-08    1.550752e-11    1.391360e-08    1.411123e-09    6.000000e-01    5.268626e-01    8.756228e-02
    1.754535e+01    2.314572e+02    3.411060e-01    5.910442e+07    1.611579e-08    1.657138e-11    1.410411e-08    1.426002e-09    6.100000e-01    5.268626e-01    9.353839e-02
    1.682175e+01    2.325949e+02    4.050612e-01    6.671613e+07    1.625478e-08    1.770362e-11    1.428590e-08    1.440095e-09    6.200000e-01    5.268626e-01    9.984290e-02
    1.609167e+01    2.327224e+02    4.775204e-01    7.462911e+07    1.638720e-08    1.890867e-11    1.445924e-08    1.453436e-09    6.300000e-01    5.268626e-01    1.064458e-01
    1.536434e+01    2.318570e+02    5.588500e-01    8.275541e+07    1.651326e-08    2.019126e-11    1.462442e-08    1.466061e-09    6.400000e-01    5.268626e-01    1.133150e-01
    1.464783e+01    2.300473e+02    6.493225e-01    9.100779e+07    1.663318e-08    2.155648e-11    1.478174e-08    1.478005e-09    6.500000e-01    5.268626e-01    1.204181e-01
    1.394887e+01    2.273662e+02    7.491175e-01    9.930406e+07    1.674720e-08    2.300979e-11    1.493152e-08    1.489304e-09    6.600000e-01    5.268626e-01    1.277224e-01
    1.327288e+01    2.239050e+02    8.583260e-01    1.075707e+08    1.685557e-08    2.455705e-11    1.507407e-08    1.499992e-09    6.700000e-01    5.268626e-01    1.351969e-01
    1.262391e+01    2.197644e+02    9.769580e-01    1.157448e+08    1.695853e-08    2.620454e-11    1.520971e-08    1.510104e-09    6.800000e-01    5.268626e-01    1.428120e-01
    1.200479e+01    2.150500e+02    1.104957e+00    1.237755e+08    1.705632e-08    2.795904e-11    1.533875e-08    1.519676e-09    6.900000e-01    5.268626e-01    1.505407e-01
    1.141735e+01    2.098663e+02    1.242208e+00    1.316242e+08    1.714920e-08    2.982782e-11    1.546151e-08    1.528738e-09    7.000000e-01    5.268626e-01    1.583584e-01
    1.086244e+01    2.043124e+02    1.388553e+00    1.392637e+08    1.723741e-08    3.181869e-11    1.557829e-08    1.537324e-09    7.100000e-01    5.268626e-01    1.662435e-01
    1.034023e+01    1.984800e+02    1.543802e+00    1.466778e+08    1.732118e-08    3.394008e-11    1.568939e-08    1.545464e-09    7.200000e-01    5.268626e-01    1.741768e-01
    9.850265e+00    1.924511e+02    1.707746e+00    1.538590e+08    1.740077e-08    3.620103e-11    1.579513e-08    1.553189e-09    7.300000e-01    5.268626e-01    1.821423e-01
    9.391659e+00    1.862971e+02    1.880162e+00    1.608075e+08    1.747638e-08    3.861130e-11    1.589577e-08    1.560528e-09    7.400000e-01    5.268626e-01    1.901262e-01
    8.963201e+00    1.800793e+02    2.060828e+00    1.675295e+08    1.754825e-08    4.118140e-11    1.599158e-08    1.567508e-09    7.500000e-01    5.268626e-01    1.981172e-01
    8.563453e+00    1.738483e+02    2.249522e+00    1.740352e+08    1.761660e-08    4.392265e-11    1.608283e-08    1.574156e-09    7.600000e-01    5.268626e-01    2.061061e-01
    8.190835e+00    1.676456e+02    2.446032e+00    1.803384e+08    1.768163e-08    4.684723e-11    1.616979e-08    1.580496e-09    7.700000e-01    5.268626e-01    2.140855e-01
    7.843693e+00    1.615043e+02    2.650158e+00    1.864542e+08    1.774354e-08    4.996832e-11    1.625268e-08    1.586555e-09    7.800000e-01    5.268626e-01    2.220498e-01
    7.520349e+00    1.554499e+02    2.861713e+00    1.923988e+08    1.780253e-08    5.330010e-11    1.633175e-08    1.592354e-09    7.900000e-01    5.268626e-01    2.299947e-01
    7.219144e+00    1.495018e+02    3.080525e+00    1.981886e+08    1.785879e-08    5.685780e-11    1.640719e-08    1.597916e-09    8.000000e-01    5.268626e-01    2.379172e-01
    6.938463e+00    1.436740e+02    3.306439e+00    2.038393e+08    1.791249e-08    6.065805e-11    1.647924e-08    1.603261e-09    8.100000e-01    5.268626e-01    2.458150e-01
    6.676751e+00    1.379761e+02    3.539313e+00    2.093659e+08    1.796381e-08    6.471855e-11    1.654807e-08    1.608409e-09    8.200000e-01    5.268626e-01    2.536871e-01
    6.432540e+00    1.324142e+02    3.779021e+00    2.147822e+08    1.801290e-08    6.905860e-11    1.661388e-08    1.613381e-09    8.300000e-01    5.268626e-01    2.615327e-01
    6.204444e+00    1.269918e+02    4.025451e+00    2.201007e+08    1.805994e-08    7.369885e-11    1.667685e-08    1.618193e-09    8.400000e-01    5.268626e-01    2.693519e-01
    5.991170e+00    1.217102e+02    4.278504e+00    2.253325e+08    1.810505e-08    7.866180e-11    1.673712e-08    1.622864e-09    8.500000e-01    5.268626e-01    2.771449e-01
    5.791511e+00    1.165692e+02    4.538089e+00    2.304870e+08    1.814841e-08    8.397160e-11    1.679487e-08    1.627410e-09    8.600000e-01    5.268626e-01    2.849125e-01
    5.604358e+00    1.115674e+02    4.804127e+00    2.355725e+08    1.819013e-08    8.965430e-11    1.685024e-08    1.631847e-09    8.700000e-01    5.268626e-01    2.926556e-01
    5.428687e+00    1.067027e+02    5.076545e+00    2.405958e+08    1.823036e-08    9.573805e-11    1.690335e-08    1.636191e-09    8.800000e-01    5.268626e-01    3.003752e-01
    5.263549e+00    1.019725e+02    5.355285e+00    2.455623e+08    1.826921e-08    1.022533e-10    1.695434e-08    1.640456e-09    8.900000e-01    5.268626e-01    3.080726e-01
    5.108085e+00    9.737417e+01    5.640285e+00    2.504762e+08    1.830682e-08    1.092328e-10    1.700332e-08    1.644658e-09    9.000000e-01    5.268626e-01    3.157491e-01
    4.961505e+00    9.290473e+01    5.931490e+00    2.553408e+08    1.834329e-08    1.167119e-10    1.705040e-08    1.648808e-09    9.100000e-01    5.268626e-01    3.234059e-01
    4.823088e+00    8.856145e+01    6.228850e+00    2.601579e+08    1.837875e-08    1.247288e-10    1.709568e-08    1.652923e-09    9.200000e-01    5.268626e-01    3.310445e-01
    4.692170e+00    8.434174e+01    6.532320e+00    2.649290e+08    1.841331e-08    1.333244e-10    1.713927e-08    1.657014e-09    9.300000e-01    5.268626e-01    3.386660e-01
    4.568153e+00    8.024325e+01    6.841850e+00    2.696540e+08    1.844707e-08    1.425432e-10    1.718122e-08    1.661095e-09    9.400000e-01    5.268626e-01    3.462719e-01
    4.450487e+00    7.626391e+01    7.157395e+00    2.743326e+08    1.848014e-08    1.524326e-10    1.722164e-08    1.665178e-09    9.500000e-01    5.268626e-01    3.538633e-01
    4.338670e+00    7.240195e+01    7.478910e+00    2.789635e+08    1.851261e-08    1.630440e-10    1.726059e-08    1.669276e-09    9.600000e-01    5.268626e-01    3.614414e-01
    4.232245e+00    6.865591e+01    7.806350e+00    2.835448e+08    1.854459e-08    1.744324e-10    1.729812e-08    1.673401e-09    9.700000e-01    5.268626e-01    3.690074e-01
    4.130794e+00    6.502460e+01    8.139665e+00    2.880738e+08    1.857618e-08    1.866569e-10    1.733431e-08    1.677566e-09    9.800000e-01    5.268626e-01    3.765623e-01
    4.033938e+00    6.150725e+01    8.478800e+00    2.925474e+08    1.860748e-08    1.997808e-10    1.736920e-08    1.681784e-09    9.900000e-01    5.268626e-01    3.841073e-01
    3.941324e+00    5.810309e+01    8.823705e+00    2.969619e+08    1.863856e-08    2.138718e-10    1.740284e-08    1.686065e-09    1.000000e+00    5.268626e-01    3.916432e-01
    3.852634e+00    5.481187e+01    9.174320e+00    3.013130e+08    1.866955e-08    2.290026e-10    1.743525e-08    1.690423e-09    1.010000e+00    5.268626e-01    3.991709e-01
    3.767570e+00    5.163337e+01    9.530590e+00    3.055958e+08    1.870053e-08    2.452504e-10    1.746650e-08    1.694870e-09    1.020000e+00    5.268626e-01    4.066913e-01
    3.685865e+00    4.856756e+01    9.892440e+00    3.098051e+08    1.873158e-08    2.626974e-10    1.749659e-08    1.699418e-09    1.030000e+00    5.268626e-01    4.142052e-01
    3.607264e+00    4.561464e+01    1.025981e+01    3.139348e+08    1.876281e-08    2.814313e-10    1.752555e-08    1.704080e-09    1.040000e+00    5.268626e-01    4.217133e-01
    3.531541e+00    4.277471e+01    1.063261e+01    3.179785e+08    1.879432e-08    3.015445e-10    1.755339e-08    1.708867e-09    1.050000e+00    5.268626e-01    4.292162e-01
    3.458477e+00    4.004810e+01    1.101077e+01    3.219293e+08    1.882618e-08    3.231349e-10    1.758014e-08    1.713795e-09    1.060000e+00    5.268626e-01    4.367147e-01
    3.387877e+00    3.743500e+01    1.139419e+01    3.257794e+08    1.885852e-08    3.463058e-10    1.760579e-08    1.718873e-09    1.070000e+00    5.268626e-01    4.442093e-01
    3.319550e+00    3.493561e+01    1.178278e+01    3.295208e+08    1.889141e-08    3.711650e-10    1.763035e-08    1.724116e-09    1.080000e+00    5.268626e-01    4.517005e-01
    3.253327e+00    3.255002e+01    1.217643e+01    3.331448e+08    1.892495e-08    3.978255e-10    1.765380e-08    1.729534e-09    1.090000e+00    5.268626e-01    4.591890e-01
    3.189043e+00    3.027819e+01    1.257502e+01    3.366419e+08    1.895924e-08    4.264049e-10    1.767615e-08    1.735143e-09    1.100000e+00    5.268626e-01    4.666750e-01
    3.126545e+00    2.811987e+01    1.297842e+01    3.400023e+08    1.899437e-08    4.570245e-10    1.769738e-08    1.740954e-09    1.110000e+00    5.268626e-01    4.741592e-01
    3.065689e+00    2.607460e+01    1.338652e+01    3.432157e+08    1.903044e-08    4.898093e-10    1.771747e-08    1.746978e-09    1.120000e+00    5.268626e-01    4.816419e-01
    3.006341e+00    2.414162e+01    1.379916e+01    3.462709e+08    1.906755e-08    5.248870e-10    1.773641e-08    1.753227e-09    1.130000e+00    5.268626e-01    4.891234e-01
    2.948374e+00    2.231989e+01    1.421617e+01    3.491568e+08    1.910578e-08    5.623870e-10    1.775416e-08    1.759716e-09    1.140000e+00    5.268626e-01    4.966042e-01
    2.891670e+00    2.060800e+01    1.463739e+01    3.518617e+08    1.914522e-08    6.024395e-10    1.777069e-08    1.766452e-09    1.150000e+00    5.268626e-01    5.040846e-01
    2.836118e+00    1.900418e+01    1.506263e+01    3.543737e+08    1.918597e-08    6.451745e-10    1.778598e-08    1.773447e-09    1.160000e+00    5.268626e-01    5.115649e-01
    2.781618e+00    1.750625e+01    1.549170e+01    3.566813e+08    1.922811e-08    6.907185e-10    1.779999e-08    1.780712e-09    1.170000e+00    5.268626e-01    5.190455e-01
    2.728078e+00    1.611162e+01    1.592440e+01    3.587729e+08    1.927172e-08    7.391960e-10    1.781268e-08    1.788254e-09    1.180000e+00    5.268626e-01    5.265265e-01
    2.675416e+00    1.481731e+01    1.636049e+01    3.606377e+08    1.931686e-08    7.907255e-10    1.782401e-08    1.796083e-09    1.190000e+00    5.268626e-01    5.340082e-01
    2.623560e+00    1.361991e+01    1.679974e+01    3.622657e+08    1.936362e-08    8.454180e-10    1.783395e-08    1.804204e-09    1.200000e+00    5.268626e-01    5.414910e-01
    2.572450e+00    1.251563e+01    1.724191e+01    3.636482e+08    1.941203e-08    9.033740e-10    1.784246e-08    1.812622e-09    1.210000e+00    5.268626e-01    5.489751e-01
    2.522041e+00    1.150035e+01    1.768674e+01    3.647781e+08    1.946217e-08    9.646845e-10    1.784949e-08    1.821343e-09    1.220000e+00    5.268626e-01    5.564606e-01
    2.472297e+00    1.056962e+01    1.813396e+01    3.656502e+08    1.951405e-08    1.029425e-09    1.785502e-08    1.830370e-09    1.230000e+00    5.268626e-01    5.639478e-01
    2.423196e+00    9.718748e+00    1.858329e+01    3.662615e+08    1.956772e-08    1.097655e-09    1.785900e-08    1.839700e-09    1.240000e+00    5.268626e-01    5.714370e-01
    2.374729e+00    8.942852e+00    1.903448e+01    3.666115e+08    1.962317e-08    1.169417e-09    1.786141e-08    1.849337e-09    1.250000e+00    5.268626e-01    5.789283e-01
    2.326900e+00    8.236948e+00    1.948724e+01    3.667023e+08    1.968043e-08    1.244733e-09    1.786223e-08    1.859274e-09    1.260000e+00    5.268626e-01    5.864219e-01
    2.279722e+00    7.595965e+00    1.994129e+01    3.665389e+08    1.973946e-08    1.323605e-09    1.786143e-08    1.869509e-09    1.270000e+00    5.268626e-01    5.939180e-01
    2.233218e+00    7.014899e+00    2.039636e+01    3.661286e+08    1.980024e-08    1.406010e-09    1.785900e-08    1.880036e-09    1.280000e+00    5.268626e-01    6.014169e-01
    2.187419e+00    6.488819e+00    2.085219e+01    3.654811e+08    1.986272e-08    1.491903e-09    1.785493e-08    1.890845e-09    1.290000e+00    5.268626e-01    6.089186e-01
    2.142359e+00    6.012950e+00    2.130852e+01    3.646084e+08    1.992687e-08    1.581215e-09    1.784923e-08    1.901926e-09    1.300000e+00    5.268626e-01    6.164234e-01
    2.098075e+00    5.582718e+00    2.176512e+01    3.635241e+08    1.999259e-08    1.673852e-09    1.784191e-08    1.913271e-09    1.310000e+00    5.268626e-01    6.239314e-01
    2.054605e+00    5.193803e+00    2.222175e+01    3.622432e+08    2.005979e-08    1.769695e-09    1.783297e-08    1.924863e-09    1.320000e+00    5.268626e-01    6.314429e-01
