# sky130 nfet_01v8 gm/ID Processed Lookup Table
# Corner: ff
# Temperature: 25C
# W = 2.0 um
# L = 3.5 um (3500 nm)
# Columns: gm/id [1/V]  gm/gds [V/V]  id/W [A/m]  ft [Hz]  Cgg/W [F/m]  Cgd/W [F/m]  Cgs/W [F/m]  Cdb/W [F/m]  vgs [V]  vth [V]  vdsat [V]
# vdsat = BSIM4 saturation voltage (|VDS|_sat, positive); use for headroom / saturation / cascode-bias calculations
#           gm/id          gm/gds            id/W              ft           Cgg/W           Cgd/W           Cgs/W           Cdb/W             vgs             vth           vdsat
    2.602617e+01    1.824960e+02    5.182225e-05    2.288434e+04    9.380115e-09    1.343119e-12    3.842569e-09    5.085180e-10    2.400000e-01    5.241192e-01    3.895106e-02
    2.601286e+01    1.821822e+02    6.722380e-05    2.905598e+04    9.578460e-09    1.454141e-12    4.131217e-09    5.398920e-10    2.500000e-01    5.241192e-01    3.895781e-02
    2.598538e+01    1.818344e+02    8.718475e-05    3.683603e+04    9.788515e-09    1.574201e-12    4.433671e-09    5.723870e-10    2.600000e-01    5.241192e-01    3.896656e-02
    2.594501e+01    1.814508e+02    1.130343e-04    4.662848e+04    1.000998e-08    1.703960e-12    4.749524e-09    6.059395e-10    2.700000e-01    5.241192e-01    3.897788e-02
    2.589262e+01    1.810300e+02    1.464801e-04    5.893465e+04    1.024246e-08    1.844114e-12    5.078240e-09    6.404745e-10    2.800000e-01    5.241192e-01    3.899253e-02
    2.582873e+01    1.805713e+02    1.897117e-04    7.437555e+04    1.048546e-08    1.995404e-12    5.419160e-09    6.759065e-10    2.900000e-01    5.241192e-01    3.901144e-02
    2.575363e+01    1.800754e+02    2.455320e-04    9.371914e+04    1.073837e-08    2.158607e-12    5.771505e-09    7.121400e-10    3.000000e-01    5.241192e-01    3.903583e-02
    2.566746e+01    1.795441e+02    3.175203e-04    1.179129e+05    1.100052e-08    2.334546e-12    6.134370e-09    7.490715e-10    3.100000e-01    5.241192e-01    3.906724e-02
    2.557030e+01    1.789816e+02    4.102389e-04    1.481241e+05    1.127112e-08    2.524088e-12    6.506750e-09    7.865885e-10    3.200000e-01    5.241192e-01    3.910764e-02
    2.546217e+01    1.783942e+02    5.294885e-04    1.857872e+05    1.154932e-08    2.728150e-12    6.887545e-09    8.245730e-10    3.300000e-01    5.241192e-01    3.915948e-02
    2.534326e+01    1.777920e+02    6.826260e-04    2.326630e+05    1.183418e-08    2.947696e-12    7.275565e-09    8.629015e-10    3.400000e-01    5.241192e-01    3.922586e-02
    2.521383e+01    1.771889e+02    8.789615e-04    2.909088e+05    1.212473e-08    3.183743e-12    7.669570e-09    9.014480e-10    3.500000e-01    5.241192e-01    3.931068e-02
    2.507437e+01    1.766038e+02    1.130245e-03    3.631645e+05    1.241994e-08    3.437364e-12    8.068245e-09    9.400840e-10    3.600000e-01    5.241192e-01    3.941874e-02
    2.492562e+01    1.760613e+02    1.451275e-03    4.526593e+05    1.271875e-08    3.709691e-12    8.470270e-09    9.786820e-10    3.700000e-01    5.241192e-01    3.955602e-02
    2.476865e+01    1.755927e+02    1.860639e-03    5.633410e+05    1.302007e-08    4.001918e-12    8.874285e-09    1.017115e-09    3.800000e-01    5.241192e-01    3.972983e-02
    2.460485e+01    1.752368e+02    2.381648e-03    7.000378e+05    1.332284e-08    4.315306e-12    9.278950e-09    1.055261e-09    3.900000e-01    5.241192e-01    3.994906e-02
    2.443592e+01    1.750400e+02    3.043475e-03    8.686612e+05    1.362599e-08    4.651184e-12    9.682935e-09    1.093001e-09    4.000000e-01    5.241192e-01    4.022446e-02
    2.426369e+01    1.750564e+02    3.882580e-03    1.076450e+06    1.392847e-08    5.010960e-12    1.008496e-08    1.130224e-09    4.100000e-01    5.241192e-01    4.056883e-02
    2.409014e+01    1.753476e+02    4.944468e-03    1.332283e+06    1.422928e-08    5.396115e-12    1.048377e-08    1.166825e-09    4.200000e-01    5.241192e-01    4.099729e-02
    2.391706e+01    1.759809e+02    6.285870e-03    1.647039e+06    1.452745e-08    5.808225e-12    1.087821e-08    1.202708e-09    4.300000e-01    5.241192e-01    4.152748e-02
    2.374564e+01    1.770265e+02    7.977430e-03    2.034031e+06    1.482209e-08    6.248960e-12    1.126718e-08    1.237787e-09    4.400000e-01    5.241192e-01    4.217962e-02
    2.357629e+01    1.785546e+02    1.010696e-02    2.509480e+06    1.511236e-08    6.720070e-12    1.164967e-08    1.271984e-09    4.500000e-01    5.241192e-01    4.297658e-02
    2.340803e+01    1.806300e+02    1.278338e-02    3.093004e+06    1.539750e-08    7.223435e-12    1.202476e-08    1.305233e-09    4.600000e-01    5.241192e-01    4.394375e-02
    2.323823e+01    1.833064e+02    1.614128e-02    3.808054e+06    1.567682e-08    7.761035e-12    1.239165e-08    1.337478e-09    4.700000e-01    5.241192e-01    4.510874e-02
    2.306233e+01    1.866196e+02    2.034612e-02    4.682224e+06    1.594971e-08    8.334980e-12    1.274960e-08    1.368671e-09    4.800000e-01    5.241192e-01    4.650091e-02
    2.287385e+01    1.905810e+02    2.559981e-02    5.747274e+06    1.621564e-08    8.947505e-12    1.309803e-08    1.398778e-09    4.900000e-01    5.241192e-01    4.815064e-02
    2.266466e+01    1.951708e+02    3.214633e-02    7.038775e+06    1.647417e-08    9.600995e-12    1.343641e-08    1.427772e-09    5.000000e-01    5.241192e-01    5.008849e-02
    2.242562e+01    2.003339e+02    4.027691e-02    8.595210e+06    1.672493e-08    1.029799e-11    1.376433e-08    1.455635e-09    5.100000e-01    5.241192e-01    5.234407e-02
    2.214739e+01    2.059771e+02    5.033395e-02    1.045641e+07    1.696763e-08    1.104117e-11    1.408147e-08    1.482360e-09    5.200000e-01    5.241192e-01    5.494487e-02
    2.182156e+01    2.119698e+02    6.271290e-02    1.266143e+07    1.720204e-08    1.183344e-11    1.438763e-08    1.507946e-09    5.300000e-01    5.241192e-01    5.791503e-02
    2.144153e+01    2.181492e+02    7.786135e-02    1.524577e+07    1.742804e-08    1.267787e-11    1.468266e-08    1.532399e-09    5.400000e-01    5.241192e-01    6.127415e-02
    2.100339e+01    2.243265e+02    9.627450e-02    1.823839e+07    1.764551e-08    1.357773e-11    1.496650e-08    1.555734e-09    5.500000e-01    5.241192e-01    6.503629e-02
    2.050635e+01    2.302992e+02    1.184867e-01    2.165865e+07    1.785446e-08    1.453653e-11    1.523916e-08    1.577970e-09    5.600000e-01    5.241192e-01    6.920914e-02
    1.995284e+01    2.358631e+02    1.450592e-01    2.551380e+07    1.805489e-08    1.555802e-11    1.550072e-08    1.599131e-09    5.700000e-01    5.241192e-01    7.379362e-02
    1.934820e+01    2.408245e+02    1.765646e-01    2.979719e+07    1.824690e-08    1.664621e-11    1.575133e-08    1.619245e-09    5.800000e-01    5.241192e-01    7.878377e-02
    1.870010e+01    2.450133e+02    2.135692e-01    3.448764e+07    1.843059e-08    1.780540e-11    1.599115e-08    1.638345e-09    5.900000e-01    5.241192e-01    8.416705e-02
    1.801782e+01    2.482918e+02    2.566145e-01    3.955011e+07    1.860612e-08    1.904019e-11    1.622041e-08    1.656465e-09    6.000000e-01    5.241192e-01    8.992495e-02
    1.731145e+01    2.505616e+02    3.061996e-01    4.493752e+07    1.877367e-08    2.035550e-11    1.643938e-08    1.673642e-09    6.100000e-01    5.241192e-01    9.603387e-02
    1.659123e+01    2.517662e+02    3.627660e-01    5.059357e+07    1.893346e-08    2.175662e-11    1.664836e-08    1.689916e-09    6.200000e-01    5.241192e-01    1.024663e-01
    1.586687e+01    2.518900e+02    4.266859e-01    5.645614e+07    1.908572e-08    2.324923e-11    1.684765e-08    1.705327e-09    6.300000e-01    5.241192e-01    1.091917e-01
    1.514722e+01    2.509555e+02    4.982546e-01    6.246105e+07    1.923070e-08    2.483942e-11    1.703760e-08    1.719915e-09    6.400000e-01    5.241192e-01    1.161782e-01
    1.443991e+01    2.490171e+02    5.776880e-01    6.854541e+07    1.936865e-08    2.653375e-11    1.721855e-08    1.733721e-09    6.500000e-01    5.241192e-01    1.233933e-01
    1.375128e+01    2.461537e+02    6.651230e-01    7.465061e+07    1.949987e-08    2.833923e-11    1.739085e-08    1.746786e-09    6.600000e-01    5.241192e-01    1.308049e-01
    1.308632e+01    2.424620e+02    7.606235e-01    8.072463e+07    1.962462e-08    3.026342e-11    1.755487e-08    1.759152e-09    6.700000e-01    5.241192e-01    1.383822e-01
    1.244875e+01    2.380485e+02    8.641875e-01    8.672348e+07    1.974319e-08    3.231447e-11    1.771098e-08    1.770858e-09    6.800000e-01    5.241192e-01    1.460964e-01
    1.184114e+01    2.330238e+02    9.757570e-01    9.261191e+07    1.985585e-08    3.450113e-11    1.785954e-08    1.781942e-09    6.900000e-01    5.241192e-01    1.539210e-01
    1.126504e+01    2.274971e+02    1.095228e+00    9.836342e+07    1.996290e-08    3.683282e-11    1.800089e-08    1.792446e-09    7.000000e-01    5.241192e-01    1.618320e-01
    1.072115e+01    2.215717e+02    1.222462e+00    1.039599e+08    2.006461e-08    3.931970e-11    1.813540e-08    1.802404e-09    7.100000e-01    5.241192e-01    1.698084e-01
    1.020948e+01    2.153435e+02    1.357294e+00    1.093906e+08    2.016126e-08    4.197270e-11    1.826343e-08    1.811852e-09    7.200000e-01    5.241192e-01    1.778318e-01
    9.729515e+00    2.088977e+02    1.499545e+00    1.146513e+08    2.025311e-08    4.480361e-11    1.838528e-08    1.820826e-09    7.300000e-01    5.241192e-01    1.858863e-01
    9.280300e+00    2.023092e+02    1.649028e+00    1.197428e+08    2.034045e-08    4.782516e-11    1.850130e-08    1.829360e-09    7.400000e-01    5.241192e-01    1.939588e-01
    8.860606e+00    1.956417e+02    1.805551e+00    1.246703e+08    2.042351e-08    5.105105e-11    1.861179e-08    1.837485e-09    7.500000e-01    5.241192e-01    2.020383e-01
    8.468977e+00    1.889485e+02    1.968932e+00    1.294416e+08    2.050255e-08    5.449605e-11    1.871706e-08    1.845231e-09    7.600000e-01    5.241192e-01    2.101159e-01
    8.103851e+00    1.822736e+02    2.138991e+00    1.340669e+08    2.057780e-08    5.817620e-11    1.881739e-08    1.852629e-09    7.700000e-01    5.241192e-01    2.181846e-01
    7.763596e+00    1.756516e+02    2.315559e+00    1.385573e+08    2.064951e-08    6.210875e-11    1.891306e-08    1.859706e-09    7.800000e-01    5.241192e-01    2.262389e-01
    7.446562e+00    1.691101e+02    2.498482e+00    1.429245e+08    2.071788e-08    6.631225e-11    1.900435e-08    1.866490e-09    7.900000e-01    5.241192e-01    2.342747e-01
    7.151127e+00    1.626700e+02    2.687615e+00    1.471806e+08    2.078315e-08    7.080685e-11    1.909148e-08    1.873006e-09    8.000000e-01    5.241192e-01    2.422890e-01
    6.875708e+00    1.563464e+02    2.882830e+00    1.513367e+08    2.084551e-08    7.561430e-11    1.917470e-08    1.879279e-09    8.100000e-01    5.241192e-01    2.502799e-01
    6.618798e+00    1.501504e+02    3.084008e+00    1.554037e+08    2.090516e-08    8.075805e-11    1.925424e-08    1.885332e-09    8.200000e-01    5.241192e-01    2.582462e-01
    6.378961e+00    1.440893e+02    3.291046e+00    1.593915e+08    2.096230e-08    8.626350e-11    1.933030e-08    1.891187e-09    8.300000e-01    5.241192e-01    2.661873e-01
    6.154848e+00    1.381674e+02    3.503849e+00    1.633090e+08    2.101710e-08    9.215810e-11    1.940309e-08    1.896867e-09    8.400000e-01    5.241192e-01    2.741032e-01
    5.945202e+00    1.323871e+02    3.722333e+00    1.671640e+08    2.106974e-08    9.847145e-11    1.947280e-08    1.902392e-09    8.500000e-01    5.241192e-01    2.819942e-01
    5.748850e+00    1.267489e+02    3.946426e+00    1.709634e+08    2.112039e-08    1.052357e-10    1.953959e-08    1.907780e-09    8.600000e-01    5.241192e-01    2.898612e-01
    5.564712e+00    1.212523e+02    4.176061e+00    1.747130e+08    2.116920e-08    1.124853e-10    1.960364e-08    1.913053e-09    8.700000e-01    5.241192e-01    2.977049e-01
    5.391792e+00    1.158961e+02    4.411179e+00    1.784174e+08    2.121635e-08    1.202577e-10    1.966509e-08    1.918228e-09    8.800000e-01    5.241192e-01    3.055264e-01
    5.229171e+00    1.106785e+02    4.651726e+00    1.820806e+08    2.126197e-08    1.285933e-10    1.972410e-08    1.923324e-09    8.900000e-01    5.241192e-01    3.133271e-01
    5.076010e+00    1.055976e+02    4.897657e+00    1.857055e+08    2.130621e-08    1.375358e-10    1.978079e-08    1.928356e-09    9.000000e-01    5.241192e-01    3.211080e-01
    4.931538e+00    1.006513e+02    5.148925e+00    1.892942e+08    2.134921e-08    1.471323e-10    1.983528e-08    1.933342e-09    9.100000e-01    5.241192e-01    3.288706e-01
    4.795056e+00    9.583765e+01    5.405485e+00    1.928481e+08    2.139110e-08    1.574334e-10    1.988770e-08    1.938300e-09    9.200000e-01    5.241192e-01    3.366161e-01
    4.665919e+00    9.115501e+01    5.667300e+00    1.963678e+08    2.143203e-08    1.684942e-10    1.993813e-08    1.943245e-09    9.300000e-01    5.241192e-01    3.443458e-01
    4.543536e+00    8.660183e+01    5.934335e+00    1.998534e+08    2.147210e-08    1.803735e-10    1.998670e-08    1.948193e-09    9.400000e-01    5.241192e-01    3.520611e-01
    4.427378e+00    8.217698e+01    6.206545e+00    2.033044e+08    2.151146e-08    1.931349e-10    2.003347e-08    1.953159e-09    9.500000e-01    5.241192e-01    3.597630e-01
    4.316951e+00    7.787956e+01    6.483895e+00    2.067194e+08    2.155023e-08    2.068468e-10    2.007853e-08    1.958160e-09    9.600000e-01    5.241192e-01    3.674529e-01
    4.211809e+00    7.370906e+01    6.766345e+00    2.100971e+08    2.158852e-08    2.215827e-10    2.012195e-08    1.963211e-09    9.700000e-01    5.241192e-01    3.751318e-01
    4.111544e+00    6.966525e+01    7.053855e+00    2.134353e+08    2.162646e-08    2.374212e-10    2.016380e-08    1.968327e-09    9.800000e-01    5.241192e-01    3.828007e-01
    4.015784e+00    6.574816e+01    7.346375e+00    2.167312e+08    2.166417e-08    2.544469e-10    2.020412e-08    1.973525e-09    9.900000e-01    5.241192e-01    3.904608e-01
    3.924183e+00    6.195813e+01    7.643865e+00    2.199821e+08    2.170176e-08    2.727500e-10    2.024298e-08    1.978819e-09    1.000000e+00    5.241192e-01    3.981129e-01
    3.836425e+00    5.829566e+01    7.946280e+00    2.231845e+08    2.173935e-08    2.924270e-10    2.028040e-08    1.984225e-09    1.010000e+00    5.241192e-01    4.057579e-01
    3.752224e+00    5.476150e+01    8.253555e+00    2.263344e+08    2.177707e-08    3.135805e-10    2.031644e-08    1.989759e-09    1.020000e+00    5.241192e-01    4.133967e-01
    3.671312e+00    5.135643e+01    8.565640e+00    2.294276e+08    2.181502e-08    3.363194e-10    2.035110e-08    1.995438e-09    1.030000e+00    5.241192e-01    4.210300e-01
    3.593439e+00    4.808130e+01    8.882475e+00    2.324593e+08    2.185332e-08    3.607595e-10    2.038443e-08    2.001276e-09    1.040000e+00    5.241192e-01    4.286585e-01
    3.518378e+00    4.493708e+01    9.203990e+00    2.354244e+08    2.189210e-08    3.870227e-10    2.041643e-08    2.007290e-09    1.050000e+00    5.241192e-01    4.362830e-01
    3.445916e+00    4.192460e+01    9.530115e+00    2.383171e+08    2.193148e-08    4.152376e-10    2.044711e-08    2.013496e-09    1.060000e+00    5.241192e-01    4.439040e-01
    3.375856e+00    3.904460e+01    9.860765e+00    2.411314e+08    2.197156e-08    4.455389e-10    2.047647e-08    2.019910e-09    1.070000e+00    5.241192e-01    4.515221e-01
    3.308012e+00    3.629763e+01    1.019586e+01    2.438608e+08    2.201248e-08    4.780671e-10    2.050451e-08    2.026548e-09    1.080000e+00    5.241192e-01    4.591378e-01
    3.242210e+00    3.368409e+01    1.053529e+01    2.464981e+08    2.205435e-08    5.129685e-10    2.053122e-08    2.033426e-09    1.090000e+00    5.241192e-01    4.667517e-01
    3.178287e+00    3.120403e+01    1.087897e+01    2.490358e+08    2.209730e-08    5.503935e-10    2.055659e-08    2.040560e-09    1.100000e+00    5.241192e-01    4.743642e-01
    3.116089e+00    2.885718e+01    1.122678e+01    2.514661e+08    2.214143e-08    5.904970e-10    2.058060e-08    2.047966e-09    1.110000e+00    5.241192e-01    4.819757e-01
    3.055473e+00    2.664285e+01    1.157860e+01    2.537807e+08    2.218687e-08    6.334365e-10    2.060322e-08    2.055658e-09    1.120000e+00    5.241192e-01    4.895867e-01
    2.996302e+00    2.455996e+01    1.193430e+01    2.559706e+08    2.223374e-08    6.793720e-10    2.062441e-08    2.063652e-09    1.130000e+00    5.241192e-01    4.971975e-01
    2.938451e+00    2.260688e+01    1.229373e+01    2.580270e+08    2.228214e-08    7.284620e-10    2.064415e-08    2.071962e-09    1.140000e+00    5.241192e-01    5.048085e-01
    2.881800e+00    2.078151e+01    1.265673e+01    2.599409e+08    2.233218e-08    7.808655e-10    2.066240e-08    2.080600e-09    1.150000e+00    5.241192e-01    5.124199e-01
    2.826243e+00    1.908121e+01    1.302315e+01    2.617030e+08    2.238396e-08    8.367360e-10    2.067912e-08    2.089578e-09    1.160000e+00    5.241192e-01    5.200322e-01
    2.771678e+00    1.750278e+01    1.339281e+01    2.633045e+08    2.243759e-08    8.962220e-10    2.069425e-08    2.098908e-09    1.170000e+00    5.241192e-01    5.276455e-01
    2.718018e+00    1.604247e+01    1.376550e+01    2.647368e+08    2.249314e-08    9.594655e-10    2.070778e-08    2.108600e-09    1.180000e+00    5.241192e-01    5.352602e-01
    2.665187e+00    1.469603e+01    1.414103e+01    2.659922e+08    2.255070e-08    1.026595e-09    2.071963e-08    2.118660e-09    1.190000e+00    5.241192e-01    5.428765e-01
    2.613119e+00    1.345870e+01    1.451919e+01    2.670637e+08    2.261033e-08    1.097728e-09    2.072976e-08    2.129095e-09    1.200000e+00    5.241192e-01    5.504946e-01
    2.561762e+00    1.232531e+01    1.489977e+01    2.679458e+08    2.267209e-08    1.172964e-09    2.073815e-08    2.139911e-09    1.210000e+00    5.241192e-01    5.581148e-01
    2.511080e+00    1.129031e+01    1.528251e+01    2.686341e+08    2.273601e-08    1.252386e-09    2.074474e-08    2.151108e-09    1.220000e+00    5.241192e-01    5.657373e-01
    2.461049e+00    1.034787e+01    1.566720e+01    2.691265e+08    2.280212e-08    1.336054e-09    2.074949e-08    2.162686e-09    1.230000e+00    5.241192e-01    5.733622e-01
    2.411659e+00    9.491936e+00    1.605359e+01    2.694224e+08    2.287043e-08    1.424004e-09    2.075238e-08    2.174643e-09    1.240000e+00    5.241192e-01    5.809899e-01
    2.362913e+00    8.716368e+00    1.644143e+01    2.695235e+08    2.294092e-08    1.516248e-09    2.075338e-08    2.186975e-09    1.250000e+00    5.241192e-01    5.886204e-01
    2.314825e+00    8.015004e+00    1.683050e+01    2.694334e+08    2.301357e-08    1.612767e-09    2.075246e-08    2.199673e-09    1.260000e+00    5.241192e-01    5.962541e-01
    2.267423e+00    7.381754e+00    1.722054e+01    2.691578e+08    2.308833e-08    1.713516e-09    2.074962e-08    2.212728e-09    1.270000e+00    5.241192e-01    6.038909e-01
    2.220736e+00    6.810693e+00    1.761135e+01    2.687045e+08    2.316513e-08    1.818418e-09    2.074485e-08    2.226128e-09    1.280000e+00    5.241192e-01    6.115312e-01
    2.174804e+00    6.296115e+00    1.800268e+01    2.680824e+08    2.324390e-08    1.927368e-09    2.073817e-08    2.239860e-09    1.290000e+00    5.241192e-01    6.191750e-01
    2.129665e+00    5.832608e+00    1.839433e+01    2.673023e+08    2.332451e-08    2.040228e-09    2.072959e-08    2.253906e-09    1.300000e+00    5.241192e-01    6.268226e-01
    2.085360e+00    5.415104e+00    1.878609e+01    2.663756e+08    2.340686e-08    2.156834e-09    2.071912e-08    2.268250e-09    1.310000e+00    5.241192e-01    6.344741e-01
    2.041927e+00    5.038877e+00    1.917778e+01    2.653145e+08    2.349080e-08    2.276994e-09    2.070682e-08    2.282872e-09    1.320000e+00    5.241192e-01    6.421296e-01
