# sky130 nfet_01v8 gm/ID Processed Lookup Table
# Corner: ff
# Temperature: 25C
# W = 2.0 um
# L = 2.5 um (2500 nm)
# Columns: gm/id [1/V]  gm/gds [V/V]  id/W [A/m]  ft [Hz]  Cgg/W [F/m]  Cgd/W [F/m]  Cgs/W [F/m]  Cdb/W [F/m]  vgs [V]  vth [V]  vdsat [V]
# vdsat = BSIM4 saturation voltage (|VDS|_sat, positive); use for headroom / saturation / cascode-bias calculations
#           gm/id          gm/gds            id/W              ft           Cgg/W           Cgd/W           Cgs/W           Cdb/W             vgs             vth           vdsat
    2.641778e+01    1.582703e+02    5.513480e-05    3.500389e+04    6.622560e-09    8.503590e-13    2.606565e-09    3.408477e-10    2.400000e-01    5.307406e-01    3.828972e-02
    2.640775e+01    1.580233e+02    7.180260e-05    4.463983e+04    6.760350e-09    9.211360e-13    2.807892e-09    3.625519e-10    2.500000e-01    5.307406e-01    3.829477e-02
    2.638409e+01    1.577477e+02    9.349335e-05    5.684111e+04    6.906855e-09    9.977230e-13    3.019541e-09    3.851013e-10    2.600000e-01    5.307406e-01    3.830134e-02
    2.634803e+01    1.574416e+02    1.217003e-04    7.226653e+04    7.061915e-09    1.080546e-12    3.241287e-09    4.084564e-10    2.700000e-01    5.307406e-01    3.830988e-02
    2.630042e+01    1.571030e+02    1.583508e-04    9.173752e+04    7.225300e-09    1.170055e-12    3.472814e-09    4.325695e-10    2.800000e-01    5.307406e-01    3.832097e-02
    2.624170e+01    1.567307e+02    2.059292e-04    1.162765e+05    7.396695e-09    1.266727e-12    3.713706e-09    4.573848e-10    2.900000e-01    5.307406e-01    3.833536e-02
    2.617207e+01    1.563239e+02    2.676313e-04    1.471536e+05    7.575725e-09    1.371061e-12    3.963453e-09    4.828383e-10    3.000000e-01    5.307406e-01    3.835400e-02
    2.609157e+01    1.558826e+02    3.475600e-04    1.859435e+05    7.761920e-09    1.483586e-12    4.221455e-09    5.088595e-10    3.100000e-01    5.307406e-01    3.837813e-02
    2.600012e+01    1.554085e+02    4.509719e-04    2.345948e+05    7.954750e-09    1.604857e-12    4.487022e-09    5.353705e-10    3.200000e-01    5.307406e-01    3.840931e-02
    2.589759e+01    1.549048e+02    5.845855e-04    2.955131e+05    8.153625e-09    1.735458e-12    4.759390e-09    5.622880e-10    3.300000e-01    5.307406e-01    3.844952e-02
    2.578394e+01    1.543770e+02    7.569670e-04    3.716635e+05    8.357885e-09    1.876002e-12    5.037720e-09    5.895255e-10    3.400000e-01    5.307406e-01    3.850130e-02
    2.565915e+01    1.538336e+02    9.790125e-04    4.666919e+05    8.566835e-09    2.027137e-12    5.321115e-09    6.169920e-10    3.500000e-01    5.307406e-01    3.856780e-02
    2.552344e+01    1.532867e+02    1.264544e-03    5.850755e+05    8.779730e-09    2.189539e-12    5.608635e-09    6.445935e-10    3.600000e-01    5.307406e-01    3.865301e-02
    2.537724e+01    1.527526e+02    1.631048e-03    7.323053e+05    8.995785e-09    2.363923e-12    5.899300e-09    6.722365e-10    3.700000e-01    5.307406e-01    3.876189e-02
    2.522125e+01    1.522530e+02    2.100600e-03    9.151061e+05    9.214220e-09    2.551037e-12    6.192115e-09    6.998280e-10    3.800000e-01    5.307406e-01    3.890058e-02
    2.505654e+01    1.518154e+02    2.700991e-03    1.141717e+06    9.434220e-09    2.751670e-12    6.486065e-09    7.272750e-10    3.900000e-01    5.307406e-01    3.907663e-02
    2.488452e+01    1.514738e+02    3.467138e-03    1.422228e+06    9.654980e-09    2.966651e-12    6.780155e-09    7.544890e-10    4.000000e-01    5.307406e-01    3.929924e-02
    2.470688e+01    1.512691e+02    4.442825e-03    1.769003e+06    9.875720e-09    3.196852e-12    7.073410e-09    7.813850e-10    4.100000e-01    5.307406e-01    3.957952e-02
    2.452559e+01    1.512490e+02    5.682860e-03    2.197210e+06    1.009567e-08    3.443192e-12    7.364880e-09    8.078820e-10    4.200000e-01    5.307406e-01    3.993072e-02
    2.434259e+01    1.514672e+02    7.255765e-03    2.725459e+06    1.031408e-08    3.706638e-12    7.653655e-09    8.339055e-10    4.300000e-01    5.307406e-01    4.036852e-02
    2.415966e+01    1.519823e+02    9.247070e-03    3.376572e+06    1.053026e-08    3.988212e-12    7.938885e-09    8.593880e-10    4.400000e-01    5.307406e-01    4.091114e-02
    2.397800e+01    1.528548e+02    1.176341e-02    4.178478e+06    1.074356e-08    4.288989e-12    8.219780e-09    8.842675e-10    4.500000e-01    5.307406e-01    4.157949e-02
    2.379781e+01    1.541442e+02    1.493746e-02    5.165187e+06    1.095337e-08    4.610108e-12    8.495615e-09    9.084910e-10    4.600000e-01    5.307406e-01    4.239715e-02
    2.361789e+01    1.559040e+02    1.893385e-02    6.377769e+06    1.115916e-08    4.952769e-12    8.765745e-09    9.320115e-10    4.700000e-01    5.307406e-01    4.339024e-02
    2.343523e+01    1.581765e+02    2.395605e-02    7.865207e+06    1.136042e-08    5.318245e-12    9.029585e-09    9.547915e-10    4.800000e-01    5.307406e-01    4.458702e-02
    2.324479e+01    1.609861e+02    3.025405e-02    9.684873e+06    1.155674e-08    5.707880e-12    9.286640e-09    9.767995e-10    4.900000e-01    5.307406e-01    4.601738e-02
    2.303963e+01    1.643344e+02    3.813253e-02    1.190245e+07    1.174776e-08    6.123105e-12    9.536490e-09    9.980115e-10    5.000000e-01    5.307406e-01    4.771203e-02
    2.281114e+01    1.681934e+02    4.795893e-02    1.459087e+07    1.193316e-08    6.565430e-12    9.778790e-09    1.018412e-09    5.100000e-01    5.307406e-01    4.970155e-02
    2.254988e+01    1.725037e+02    6.017045e-02    1.782816e+07    1.211271e-08    7.036460e-12    1.001328e-08    1.037991e-09    5.200000e-01    5.307406e-01    5.201522e-02
    2.224642e+01    1.771714e+02    7.527905e-02    2.169384e+07    1.228621e-08    7.537905e-12    1.023973e-08    1.056745e-09    5.300000e-01    5.307406e-01    5.467975e-02
    2.189254e+01    1.820714e+02    9.387285e-02    2.626418e+07    1.245353e-08    8.071575e-12    1.045805e-08    1.074675e-09    5.400000e-01    5.307406e-01    5.771801e-02
    2.148216e+01    1.870517e+02    1.166134e-01    3.160627e+07    1.261459e-08    8.639405e-12    1.066814e-08    1.091790e-09    5.500000e-01    5.307406e-01    6.114786e-02
    2.101217e+01    1.919421e+02    1.442266e-01    3.777180e+07    1.276935e-08    9.243445e-12    1.087000e-08    1.108100e-09    5.600000e-01    5.307406e-01    6.498115e-02
    2.048278e+01    1.965645e+02    1.774891e-01    4.479108e+07    1.291782e-08    9.885890e-12    1.106365e-08    1.123623e-09    5.700000e-01    5.307406e-01    6.922302e-02
    1.989745e+01    2.007450e+02    2.172078e-01    5.266827e+07    1.306002e-08    1.056908e-11    1.124918e-08    1.138376e-09    5.800000e-01    5.307406e-01    7.387159e-02
    1.926255e+01    2.043245e+02    2.641963e-01    6.137857e+07    1.319605e-08    1.129549e-11    1.142672e-08    1.152383e-09    5.900000e-01    5.307406e-01    7.891801e-02
    1.858665e+01    2.071699e+02    3.192482e-01    7.086796e+07    1.332600e-08    1.206780e-11    1.159642e-08    1.165666e-09    6.000000e-01    5.307406e-01    8.434688e-02
    1.787975e+01    2.091805e+02    3.831100e-01    8.105548e+07    1.345001e-08    1.288884e-11    1.175846e-08    1.178254e-09    6.100000e-01    5.307406e-01    9.013704e-02
    1.715237e+01    2.102922e+02    4.564574e-01    9.183782e+07    1.356822e-08    1.376166e-11    1.191306e-08    1.190174e-09    6.200000e-01    5.307406e-01    9.626260e-02
    1.641498e+01    2.104791e+02    5.398740e-01    1.030958e+08    1.368081e-08    1.468949e-11    1.206044e-08    1.201454e-09    6.300000e-01    5.307406e-01    1.026941e-01
    1.567734e+01    2.097508e+02    6.338385e-01    1.147021e+08    1.378795e-08    1.567584e-11    1.220086e-08    1.212124e-09    6.400000e-01    5.307406e-01    1.093999e-01
    1.494813e+01    2.081473e+02    7.387145e-01    1.265279e+08    1.388985e-08    1.672440e-11    1.233456e-08    1.222213e-09    6.500000e-01    5.307406e-01    1.163470e-01
    1.423474e+01    2.057338e+02    8.547505e-01    1.384504e+08    1.398669e-08    1.783918e-11    1.246181e-08    1.231753e-09    6.600000e-01    5.307406e-01    1.235026e-01
    1.354311e+01    2.025929e+02    9.820860e-01    1.503578e+08    1.407868e-08    1.902445e-11    1.258289e-08    1.240771e-09    6.700000e-01    5.307406e-01    1.308348e-01
    1.287784e+01    1.988187e+02    1.120758e+00    1.621534e+08    1.416605e-08    2.028479e-11    1.269805e-08    1.249298e-09    6.800000e-01    5.307406e-01    1.383134e-01
    1.224222e+01    1.945099e+02    1.270715e+00    1.737579e+08    1.424898e-08    2.162511e-11    1.280757e-08    1.257362e-09    6.900000e-01    5.307406e-01    1.459103e-01
    1.163840e+01    1.897648e+02    1.431833e+00    1.851096e+08    1.432771e-08    2.305070e-11    1.291173e-08    1.264991e-09    7.000000e-01    5.307406e-01    1.536002e-01
    1.106755e+01    1.846778e+02    1.603930e+00    1.961649e+08    1.440243e-08    2.456721e-11    1.301078e-08    1.272212e-09    7.100000e-01    5.307406e-01    1.613604e-01
    1.053001e+01    1.793358e+02    1.786784e+00    2.068958e+08    1.447335e-08    2.618073e-11    1.310497e-08    1.279052e-09    7.200000e-01    5.307406e-01    1.691711e-01
    1.002548e+01    1.738166e+02    1.980140e+00    2.172885e+08    1.454067e-08    2.789779e-11    1.319458e-08    1.285536e-09    7.300000e-01    5.307406e-01    1.770155e-01
    9.553182e+00    1.681883e+02    2.183730e+00    2.273410e+08    1.460459e-08    2.972541e-11    1.327983e-08    1.291688e-09    7.400000e-01    5.307406e-01    1.848790e-01
    9.111939e+00    1.625087e+02    2.397280e+00    2.370602e+08    1.466530e-08    3.167114e-11    1.336096e-08    1.297532e-09    7.500000e-01    5.307406e-01    1.927499e-01
    8.700328e+00    1.568261e+02    2.620518e+00    2.464604e+08    1.472298e-08    3.374311e-11    1.343820e-08    1.303091e-09    7.600000e-01    5.307406e-01    2.006184e-01
    8.316761e+00    1.511794e+02    2.853181e+00    2.555605e+08    1.477781e-08    3.595003e-11    1.351177e-08    1.308384e-09    7.700000e-01    5.307406e-01    2.084768e-01
    7.959554e+00    1.455997e+02    3.095022e+00    2.643825e+08    1.482996e-08    3.830132e-11    1.358188e-08    1.313433e-09    7.800000e-01    5.307406e-01    2.163191e-01
    7.626990e+00    1.401108e+02    3.345807e+00    2.729499e+08    1.487960e-08    4.080709e-11    1.364872e-08    1.318257e-09    7.900000e-01    5.307406e-01    2.241407e-01
    7.317356e+00    1.347303e+02    3.605323e+00    2.812867e+08    1.492689e-08    4.347823e-11    1.371247e-08    1.322876e-09    8.000000e-01    5.307406e-01    2.319385e-01
    7.028984e+00    1.294710e+02    3.873374e+00    2.894163e+08    1.497197e-08    4.632648e-11    1.377333e-08    1.327305e-09    8.100000e-01    5.307406e-01    2.397101e-01
    6.760267e+00    1.243411e+02    4.149784e+00    2.973611e+08    1.501500e-08    4.936446e-11    1.383145e-08    1.331563e-09    8.200000e-01    5.307406e-01    2.474541e-01
    6.509677e+00    1.193458e+02    4.434397e+00    3.051415e+08    1.505611e-08    5.260580e-11    1.388701e-08    1.335664e-09    8.300000e-01    5.307406e-01    2.551700e-01
    6.275773e+00    1.144877e+02    4.727070e+00    3.127763e+08    1.509544e-08    5.606515e-11    1.394014e-08    1.339623e-09    8.400000e-01    5.307406e-01    2.628576e-01
    6.057209e+00    1.097670e+02    5.027680e+00    3.202819e+08    1.513310e-08    5.975835e-11    1.399099e-08    1.343456e-09    8.500000e-01    5.307406e-01    2.705172e-01
    5.852739e+00    1.051828e+02    5.336110e+00    3.276730e+08    1.516923e-08    6.370235e-11    1.403969e-08    1.347176e-09    8.600000e-01    5.307406e-01    2.781496e-01
    5.661200e+00    1.007331e+02    5.652265e+00    3.349618e+08    1.520393e-08    6.791560e-11    1.408637e-08    1.350797e-09    8.700000e-01    5.307406e-01    2.857555e-01
    5.481526e+00    9.641482e+01    5.976055e+00    3.421587e+08    1.523732e-08    7.241785e-11    1.413114e-08    1.354329e-09    8.800000e-01    5.307406e-01    2.933362e-01
    5.312741e+00    9.222489e+01    6.307395e+00    3.492721e+08    1.526950e-08    7.723040e-11    1.417411e-08    1.357787e-09    8.900000e-01    5.307406e-01    3.008927e-01
    5.153939e+00    8.815977e+01    6.646220e+00    3.563084e+08    1.530059e-08    8.237625e-11    1.421538e-08    1.361180e-09    9.000000e-01    5.307406e-01    3.084266e-01
    5.004303e+00    8.421594e+01    6.992460e+00    3.632729e+08    1.533066e-08    8.788010e-11    1.425505e-08    1.364521e-09    9.100000e-01    5.307406e-01    3.159390e-01
    4.863084e+00    8.038993e+01    7.346050e+00    3.701689e+08    1.535981e-08    9.376865e-11    1.429320e-08    1.367820e-09    9.200000e-01    5.307406e-01    3.234313e-01
    4.729596e+00    7.667842e+01    7.706930e+00    3.769984e+08    1.538814e-08    1.000706e-10    1.432991e-08    1.371088e-09    9.300000e-01    5.307406e-01    3.309049e-01
    4.603215e+00    7.307838e+01    8.075045e+00    3.837621e+08    1.541574e-08    1.068167e-10    1.436526e-08    1.374334e-09    9.400000e-01    5.307406e-01    3.383611e-01
    4.483374e+00    6.958687e+01    8.450335e+00    3.904600e+08    1.544268e-08    1.140404e-10    1.439932e-08    1.377569e-09    9.500000e-01    5.307406e-01    3.458012e-01
    4.369554e+00    6.620146e+01    8.832745e+00    3.970906e+08    1.546904e-08    1.217773e-10    1.443214e-08    1.380802e-09    9.600000e-01    5.307406e-01    3.532263e-01
    4.261282e+00    6.291982e+01    9.222215e+00    4.036514e+08    1.549492e-08    1.300657e-10    1.446379e-08    1.384043e-09    9.700000e-01    5.307406e-01    3.606376e-01
    4.158124e+00    5.974006e+01    9.618695e+00    4.101396e+08    1.552037e-08    1.389468e-10    1.449431e-08    1.387301e-09    9.800000e-01    5.307406e-01    3.680364e-01
    4.059692e+00    5.666045e+01    1.002211e+01    4.165509e+08    1.554549e-08    1.484649e-10    1.452375e-08    1.390585e-09    9.900000e-01    5.307406e-01    3.754235e-01
    3.965622e+00    5.367963e+01    1.043241e+01    4.228808e+08    1.557034e-08    1.586672e-10    1.455215e-08    1.393906e-09    1.000000e+00    5.307406e-01    3.827999e-01
    3.875587e+00    5.079641e+01    1.084951e+01    4.291235e+08    1.559500e-08    1.696044e-10    1.457956e-08    1.397271e-09    1.010000e+00    5.307406e-01    3.901667e-01
    3.789282e+00    4.800981e+01    1.127335e+01    4.352730e+08    1.561954e-08    1.813306e-10    1.460599e-08    1.400690e-09    1.020000e+00    5.307406e-01    3.975246e-01
    3.706435e+00    4.531911e+01    1.170384e+01    4.413225e+08    1.564403e-08    1.939035e-10    1.463147e-08    1.404173e-09    1.030000e+00    5.307406e-01    4.048745e-01
    3.626785e+00    4.272370e+01    1.214091e+01    4.472643e+08    1.566855e-08    2.073845e-10    1.465605e-08    1.407728e-09    1.040000e+00    5.307406e-01    4.122171e-01
    3.550101e+00    4.022312e+01    1.258446e+01    4.530904e+08    1.569316e-08    2.218389e-10    1.467971e-08    1.411365e-09    1.050000e+00    5.307406e-01    4.195532e-01
    3.476162e+00    3.781699e+01    1.303439e+01    4.587914e+08    1.571795e-08    2.373358e-10    1.470248e-08    1.415093e-09    1.060000e+00    5.307406e-01    4.268833e-01
    3.404770e+00    3.550505e+01    1.349062e+01    4.643581e+08    1.574297e-08    2.539488e-10    1.472438e-08    1.418920e-09    1.070000e+00    5.307406e-01    4.342081e-01
    3.335736e+00    3.328704e+01    1.395301e+01    4.697800e+08    1.576831e-08    2.717547e-10    1.474540e-08    1.422858e-09    1.080000e+00    5.307406e-01    4.415281e-01
    3.268885e+00    3.116270e+01    1.442144e+01    4.750461e+08    1.579402e-08    2.908349e-10    1.476554e-08    1.426914e-09    1.090000e+00    5.307406e-01    4.488439e-01
    3.204053e+00    2.913175e+01    1.489580e+01    4.801442e+08    1.582020e-08    3.112742e-10    1.478481e-08    1.431097e-09    1.100000e+00    5.307406e-01    4.561560e-01
    3.141089e+00    2.719387e+01    1.537593e+01    4.850621e+08    1.584690e-08    3.331613e-10    1.480320e-08    1.435419e-09    1.110000e+00    5.307406e-01    4.634649e-01
    3.079848e+00    2.534861e+01    1.586169e+01    4.897865e+08    1.587421e-08    3.565881e-10    1.482069e-08    1.439887e-09    1.120000e+00    5.307406e-01    4.707709e-01
    3.020198e+00    2.359542e+01    1.635291e+01    4.943031e+08    1.590220e-08    3.816500e-10    1.483728e-08    1.444510e-09    1.130000e+00    5.307406e-01    4.780744e-01
    2.962010e+00    2.193359e+01    1.684941e+01    4.985977e+08    1.593092e-08    4.084445e-10    1.485295e-08    1.449299e-09    1.140000e+00    5.307406e-01    4.853760e-01
    2.905166e+00    2.036221e+01    1.735101e+01    5.026550e+08    1.596047e-08    4.370712e-10    1.486767e-08    1.454261e-09    1.150000e+00    5.307406e-01    4.926758e-01
    2.849558e+00    1.888018e+01    1.785749e+01    5.064596e+08    1.599091e-08    4.676313e-10    1.488143e-08    1.459405e-09    1.160000e+00    5.307406e-01    4.999743e-01
    2.795081e+00    1.748615e+01    1.836865e+01    5.099960e+08    1.602230e-08    5.002260e-10    1.489420e-08    1.464738e-09    1.170000e+00    5.307406e-01    5.072718e-01
    2.741640e+00    1.617850e+01    1.888425e+01    5.132482e+08    1.605472e-08    5.349570e-10    1.490594e-08    1.470269e-09    1.180000e+00    5.307406e-01    5.145685e-01
    2.689146e+00    1.495534e+01    1.940404e+01    5.162007e+08    1.608823e-08    5.719235e-10    1.491664e-08    1.476004e-09    1.190000e+00    5.307406e-01    5.218648e-01
    2.637526e+00    1.381452e+01    1.992777e+01    5.188393e+08    1.612288e-08    6.112220e-10    1.492626e-08    1.481951e-09    1.200000e+00    5.307406e-01    5.291610e-01
    2.586711e+00    1.275357e+01    2.045515e+01    5.211506e+08    1.615874e-08    6.529460e-10    1.493476e-08    1.488114e-09    1.210000e+00    5.307406e-01    5.364572e-01
    2.536639e+00    1.176976e+01    2.098590e+01    5.231216e+08    1.619585e-08    6.971815e-10    1.494212e-08    1.494499e-09    1.220000e+00    5.307406e-01    5.437538e-01
    2.487268e+00    1.086008e+01    2.151972e+01    5.247431e+08    1.623426e-08    7.440090e-10    1.494831e-08    1.501110e-09    1.230000e+00    5.307406e-01    5.510510e-01
    2.438560e+00    1.002130e+01    2.205630e+01    5.260071e+08    1.627401e-08    7.935000e-10    1.495328e-08    1.507949e-09    1.240000e+00    5.307406e-01    5.583490e-01
    2.390488e+00    9.249913e+00    2.259532e+01    5.269081e+08    1.631513e-08    8.457150e-10    1.495703e-08    1.515019e-09    1.250000e+00    5.307406e-01    5.656480e-01
    2.343044e+00    8.542302e+00    2.313647e+01    5.274448e+08    1.635763e-08    9.007035e-10    1.495950e-08    1.522319e-09    1.260000e+00    5.307406e-01    5.729484e-01
    2.296223e+00    7.894676e+00    2.367940e+01    5.276190e+08    1.640154e-08    9.585010e-10    1.496067e-08    1.529850e-09    1.270000e+00    5.307406e-01    5.802502e-01
    2.250033e+00    7.303170e+00    2.422382e+01    5.274350e+08    1.644685e-08    1.019128e-09    1.496054e-08    1.537611e-09    1.280000e+00    5.307406e-01    5.875537e-01
    2.204493e+00    6.763892e+00    2.476939e+01    5.269019e+08    1.649356e-08    1.082590e-09    1.495908e-08    1.545597e-09    1.290000e+00    5.307406e-01    5.948591e-01
    2.159626e+00    6.272943e+00    2.531580e+01    5.260313e+08    1.654164e-08    1.148874e-09    1.495628e-08    1.553804e-09    1.300000e+00    5.307406e-01    6.021666e-01
    2.115464e+00    5.826524e+00    2.586275e+01    5.248388e+08    1.659107e-08    1.217950e-09    1.495214e-08    1.562227e-09    1.310000e+00    5.307406e-01    6.094765e-01
    2.072037e+00    5.420913e+00    2.640994e+01    5.233406e+08    1.664180e-08    1.289768e-09    1.494664e-08    1.570859e-09    1.320000e+00    5.307406e-01    6.167888e-01
