# sky130 nfet_01v8 gm/ID Processed Lookup Table
# Corner: ff
# Temperature: 25C
# W = 2.0 um
# L = 4 um (4000 nm)
# Columns: gm/id [1/V]  gm/gds [V/V]  id/W [A/m]  ft [Hz]  Cgg/W [F/m]  Cgd/W [F/m]  Cgs/W [F/m]  Cdb/W [F/m]  vgs [V]  vth [V]  vdsat [V]
# vdsat = BSIM4 saturation voltage (|VDS|_sat, positive); use for headroom / saturation / cascode-bias calculations
#           gm/id          gm/gds            id/W              ft           Cgg/W           Cgd/W           Cgs/W           Cdb/W             vgs             vth           vdsat
    2.590090e+01    1.919358e+02    4.930512e-05    1.889600e+04    1.075616e-08    1.595128e-12    4.456930e-09    5.924255e-10    2.400000e-01    5.220761e-01    3.916857e-02
    2.588766e+01    1.915965e+02    6.387855e-05    2.396013e+04    1.098447e-08    1.726729e-12    4.788833e-09    6.286160e-10    2.500000e-01    5.220761e-01    3.917595e-02
    2.585984e+01    1.912211e+02    8.274245e-05    3.033546e+04    1.122597e-08    1.869021e-12    5.136265e-09    6.660645e-10    2.600000e-01    5.220761e-01    3.918549e-02
    2.581880e+01    1.908081e+02    1.071400e-04    3.834909e+04    1.148029e-08    2.022785e-12    5.498725e-09    7.046950e-10    2.700000e-01    5.220761e-01    3.919783e-02
    2.576546e+01    1.903562e+02    1.386660e-04    4.840633e+04    1.174696e-08    2.188846e-12    5.875585e-09    7.444195e-10    2.800000e-01    5.220761e-01    3.921376e-02
    2.570039e+01    1.898653e+02    1.793621e-04    6.100859e+04    1.202540e-08    2.368080e-12    6.266055e-09    7.851380e-10    2.900000e-01    5.220761e-01    3.923431e-02
    2.562395e+01    1.893365e+02    2.318378e-04    7.677495e+04    1.231490e-08    2.561407e-12    6.669225e-09    8.267400e-10    3.000000e-01    5.220761e-01    3.926078e-02
    2.553634e+01    1.887723e+02    2.994204e-04    9.646828e+04    1.261466e-08    2.769804e-12    7.084055e-09    8.691050e-10    3.100000e-01    5.220761e-01    3.929482e-02
    2.543769e+01    1.881781e+02    3.863438e-04    1.210269e+05    1.292379e-08    2.994299e-12    7.509370e-09    9.121040e-10    3.200000e-01    5.220761e-01    3.933852e-02
    2.532814e+01    1.875616e+02    4.979830e-04    1.516030e+05    1.324129e-08    3.235980e-12    7.943915e-09    9.556015e-10    3.300000e-01    5.220761e-01    3.939451e-02
    2.520791e+01    1.869345e+02    6.411445e-04    1.896085e+05    1.356610e-08    3.495995e-12    8.386335e-09    9.994565e-10    3.400000e-01    5.220761e-01    3.946611e-02
    2.507736e+01    1.863133e+02    8.244280e-04    2.367719e+05    1.389711e-08    3.775555e-12    8.835205e-09    1.043525e-09    3.500000e-01    5.220761e-01    3.955742e-02
    2.493712e+01    1.857193e+02    1.058671e-03    2.952067e+05    1.423316e-08    4.075938e-12    9.289045e-09    1.087662e-09    3.600000e-01    5.220761e-01    3.967356e-02
    2.478800e+01    1.851806e+02    1.357503e-03    3.674961e+05    1.457303e-08    4.398494e-12    9.746350e-09    1.131723e-09    3.700000e-01    5.220761e-01    3.982082e-02
    2.463120e+01    1.847322e+02    1.738024e-03    4.567972e+05    1.491551e-08    4.744649e-12    1.020560e-08    1.175564e-09    3.800000e-01    5.220761e-01    4.000692e-02
    2.446817e+01    1.844172e+02    2.221650e-03    5.669699e+05    1.525939e-08    5.115910e-12    1.066527e-08    1.219048e-09    3.900000e-01    5.220761e-01    4.024120e-02
    2.430068e+01    1.842870e+02    2.835157e-03    7.027395e+05    1.560348e-08    5.513875e-12    1.112387e-08    1.262041e-09    4.000000e-01    5.220761e-01    4.053489e-02
    2.413062e+01    1.844006e+02    3.611977e-03    8.698926e+05    1.594660e-08    5.940220e-12    1.157998e-08    1.304420e-09    4.100000e-01    5.220761e-01    4.090136e-02
    2.395994e+01    1.848251e+02    4.593802e-03    1.075525e+06    1.628762e-08    6.396740e-12    1.203220e-08    1.346068e-09    4.200000e-01    5.220761e-01    4.135632e-02
    2.379024e+01    1.856322e+02    5.832570e-03    1.328326e+06    1.662549e-08    6.885320e-12    1.247922e-08    1.386878e-09    4.300000e-01    5.220761e-01    4.191800e-02
    2.362261e+01    1.868970e+02    7.392900e-03    1.638920e+06    1.695918e-08    7.407965e-12    1.291984e-08    1.426753e-09    4.400000e-01    5.220761e-01    4.260726e-02
    2.345708e+01    1.886925e+02    9.355055e-03    2.020230e+06    1.728779e-08    7.966800e-12    1.335293e-08    1.465610e-09    4.500000e-01    5.220761e-01    4.344755e-02
    2.329228e+01    1.910854e+02    1.181848e-02    2.487842e+06    1.761046e-08    8.564080e-12    1.377748e-08    1.503374e-09    4.600000e-01    5.220761e-01    4.446477e-02
    2.312512e+01    1.941291e+02    1.490587e-02    3.060325e+06    1.792643e-08    9.202205e-12    1.419260e-08    1.539983e-09    4.700000e-01    5.220761e-01    4.568694e-02
    2.295059e+01    1.978569e+02    1.876779e-02    3.759418e+06    1.823503e-08    9.883725e-12    1.459749e-08    1.575389e-09    4.800000e-01    5.220761e-01    4.714368e-02
    2.276179e+01    2.022748e+02    2.358755e-02    4.609999e+06    1.853569e-08    1.061135e-11    1.499148e-08    1.609550e-09    4.900000e-01    5.220761e-01    4.886545e-02
    2.255036e+01    2.073556e+02    2.958604e-02    5.639735e+06    1.882790e-08    1.138798e-11    1.537402e-08    1.642441e-09    5.000000e-01    5.220761e-01    5.088264e-02
    2.230705e+01    2.130336e+02    3.702599e-02    6.878268e+06    1.911128e-08    1.221669e-11    1.574467e-08    1.674043e-09    5.100000e-01    5.220761e-01    5.322447e-02
    2.202272e+01    2.192037e+02    4.621511e-02    8.355994e+06    1.938550e-08    1.310075e-11    1.610308e-08    1.704349e-09    5.200000e-01    5.220761e-01    5.591779e-02
    2.168934e+01    2.257224e+02    5.750725e-02    1.010227e+07    1.965034e-08    1.404369e-11    1.644903e-08    1.733359e-09    5.300000e-01    5.220761e-01    5.898587e-02
    2.130093e+01    2.324129e+02    7.130095e-02    1.214333e+07    1.990564e-08    1.504924e-11    1.678238e-08    1.761083e-09    5.400000e-01    5.220761e-01    6.244724e-02
    2.085422e+01    2.390742e+02    8.803505e-02    1.449995e+07    2.015131e-08    1.612142e-11    1.710305e-08    1.787537e-09    5.500000e-01    5.220761e-01    6.631475e-02
    2.034917e+01    2.454917e+02    1.081803e-01    1.718521e+07    2.038732e-08    1.726450e-11    1.741109e-08    1.812745e-09    5.600000e-01    5.220761e-01    7.059482e-02
    1.978880e+01    2.514515e+02    1.322288e-01    2.020267e+07    2.061374e-08    1.848308e-11    1.770658e-08    1.836734e-09    5.700000e-01    5.220761e-01    7.528710e-02
    1.917896e+01    2.567529e+02    1.606793e-01    2.354521e+07    2.083062e-08    1.978206e-11    1.798969e-08    1.859538e-09    5.800000e-01    5.220761e-01    8.038443e-02
    1.852762e+01    2.612212e+02    1.940225e-01    2.719471e+07    2.103814e-08    2.116672e-11    1.826063e-08    1.881193e-09    5.900000e-01    5.220761e-01    8.587321e-02
    1.784421e+01    2.647162e+02    2.327246e-01    3.112274e+07    2.123645e-08    2.264269e-11    1.851967e-08    1.901740e-09    6.000000e-01    5.220761e-01    9.173404e-02
    1.713879e+01    2.671390e+02    2.772126e-01    3.529204e+07    2.142578e-08    2.421604e-11    1.876710e-08    1.921221e-09    6.100000e-01    5.220761e-01    9.794269e-02
    1.642142e+01    2.684345e+02    3.278617e-01    3.965884e+07    2.160635e-08    2.589328e-11    1.900325e-08    1.939682e-09    6.200000e-01    5.220761e-01    1.044711e-01
    1.570159e+01    2.685898e+02    3.849853e-01    4.417544e+07    2.177845e-08    2.768139e-11    1.922848e-08    1.957166e-09    6.300000e-01    5.220761e-01    1.112888e-01
    1.498784e+01    2.676311e+02    4.488299e-01    4.879303e+07    2.194235e-08    2.958789e-11    1.944319e-08    1.973722e-09    6.400000e-01    5.220761e-01    1.183636e-01
    1.428752e+01    2.656169e+02    5.195725e-01    5.346421e+07    2.209835e-08    3.162086e-11    1.964774e-08    1.989395e-09    6.500000e-01    5.220761e-01    1.256633e-01
    1.360660e+01    2.626298e+02    5.973235e-01    5.814501e+07    2.224676e-08    3.378899e-11    1.984257e-08    2.004232e-09    6.600000e-01    5.220761e-01    1.331559e-01
    1.294984e+01    2.587713e+02    6.821295e-01    6.279688e+07    2.238789e-08    3.610164e-11    2.002806e-08    2.018280e-09    6.700000e-01    5.220761e-01    1.408112e-01
    1.232070e+01    2.541519e+02    7.739815e-01    6.738725e+07    2.252206e-08    3.856888e-11    2.020463e-08    2.031584e-09    6.800000e-01    5.220761e-01    1.486007e-01
    1.172154e+01    2.488865e+02    8.728235e-01    7.189035e+07    2.264961e-08    4.120158e-11    2.037268e-08    2.044189e-09    6.900000e-01    5.220761e-01    1.564983e-01
    1.115375e+01    2.430878e+02    9.785610e-01    7.628692e+07    2.277083e-08    4.401144e-11    2.053264e-08    2.056137e-09    7.000000e-01    5.220761e-01    1.644806e-01
    1.061791e+01    2.368630e+02    1.091071e+00    8.056403e+07    2.288605e-08    4.701108e-11    2.068488e-08    2.067473e-09    7.100000e-01    5.220761e-01    1.725269e-01
    1.011395e+01    2.303111e+02    1.210209e+00    8.471427e+07    2.299558e-08    5.021410e-11    2.082980e-08    2.078235e-09    7.200000e-01    5.220761e-01    1.806191e-01
    9.641272e+00    2.235205e+02    1.335816e+00    8.873488e+07    2.309973e-08    5.363525e-11    2.096777e-08    2.088465e-09    7.300000e-01    5.220761e-01    1.887420e-01
    9.198897e+00    2.165684e+02    1.467733e+00    9.262701e+07    2.319879e-08    5.729030e-11    2.109916e-08    2.098198e-09    7.400000e-01    5.220761e-01    1.968825e-01
    8.785572e+00    2.095214e+02    1.605793e+00    9.639473e+07    2.329305e-08    6.119645e-11    2.122432e-08    2.107474e-09    7.500000e-01    5.220761e-01    2.050300e-01
    8.399853e+00    2.024351e+02    1.749837e+00    1.000444e+08    2.338280e-08    6.537220e-11    2.134360e-08    2.116326e-09    7.600000e-01    5.220761e-01    2.131758e-01
    8.040178e+00    1.953553e+02    1.899711e+00    1.035837e+08    2.346830e-08    6.983755e-11    2.145730e-08    2.124788e-09    7.700000e-01    5.220761e-01    2.213131e-01
    7.704927e+00    1.883186e+02    2.055271e+00    1.070213e+08    2.354981e-08    7.461405e-11    2.156576e-08    2.132892e-09    7.800000e-01    5.220761e-01    2.294366e-01
    7.392482e+00    1.813541e+02    2.216382e+00    1.103660e+08    2.362761e-08    7.972515e-11    2.166925e-08    2.140668e-09    7.900000e-01    5.220761e-01    2.375422e-01
    7.101244e+00    1.744842e+02    2.382923e+00    1.136269e+08    2.370191e-08    8.519610e-11    2.176806e-08    2.148147e-09    8.000000e-01    5.220761e-01    2.456271e-01
    6.829656e+00    1.677255e+02    2.554781e+00    1.168125e+08    2.377296e-08    9.105420e-11    2.186246e-08    2.155357e-09    8.100000e-01    5.220761e-01    2.536895e-01
    6.576239e+00    1.610900e+02    2.731857e+00    1.199310e+08    2.384098e-08    9.732905e-11    2.195270e-08    2.162324e-09    8.200000e-01    5.220761e-01    2.617281e-01
    6.339586e+00    1.545862e+02    2.914060e+00    1.229898e+08    2.390620e-08    1.040526e-10    2.203901e-08    2.169074e-09    8.300000e-01    5.220761e-01    2.697424e-01
    6.118374e+00    1.482195e+02    3.101310e+00    1.259955e+08    2.396881e-08    1.112594e-10    2.212163e-08    2.175632e-09    8.400000e-01    5.220761e-01    2.777325e-01
    5.911372e+00    1.419932e+02    3.293537e+00    1.289540e+08    2.402902e-08    1.189870e-10    2.220075e-08    2.182022e-09    8.500000e-01    5.220761e-01    2.856987e-01
    5.717433e+00    1.359087e+02    3.490677e+00    1.318705e+08    2.408703e-08    1.272758e-10    2.227659e-08    2.188268e-09    8.600000e-01    5.220761e-01    2.936417e-01
    5.535497e+00    1.299663e+02    3.692673e+00    1.347493e+08    2.414300e-08    1.361696e-10    2.234932e-08    2.194391e-09    8.700000e-01    5.220761e-01    3.015625e-01
    5.364587e+00    1.241659e+02    3.899477e+00    1.375938e+08    2.419713e-08    1.457158e-10    2.241911e-08    2.200413e-09    8.800000e-01    5.220761e-01    3.094621e-01
    5.203805e+00    1.185065e+02    4.111041e+00    1.404069e+08    2.424960e-08    1.559654e-10    2.248613e-08    2.206355e-09    8.900000e-01    5.220761e-01    3.173417e-01
    5.052328e+00    1.129869e+02    4.327324e+00    1.431907e+08    2.430056e-08    1.669739e-10    2.255052e-08    2.212237e-09    9.000000e-01    5.220761e-01    3.252026e-01
    4.909402e+00    1.076061e+02    4.548290e+00    1.459469e+08    2.435017e-08    1.788009e-10    2.261243e-08    2.218080e-09    9.100000e-01    5.220761e-01    3.330460e-01
    4.774336e+00    1.023631e+02    4.773900e+00    1.486762e+08    2.439860e-08    1.915110e-10    2.267198e-08    2.223903e-09    9.200000e-01    5.220761e-01    3.408733e-01
    4.646502e+00    9.725713e+01    5.004120e+00    1.513792e+08    2.444600e-08    2.051736e-10    2.272927e-08    2.229724e-09    9.300000e-01    5.220761e-01    3.486857e-01
    4.525321e+00    9.228762e+01    5.238920e+00    1.540557e+08    2.449252e-08    2.198637e-10    2.278444e-08    2.235564e-09    9.400000e-01    5.220761e-01    3.564844e-01
    4.410269e+00    8.745448e+01    5.478265e+00    1.567053e+08    2.453831e-08    2.356621e-10    2.283757e-08    2.241442e-09    9.500000e-01    5.220761e-01    3.642708e-01
    4.300860e+00    8.275780e+01    5.722125e+00    1.593268e+08    2.458352e-08    2.526554e-10    2.288874e-08    2.247376e-09    9.600000e-01    5.220761e-01    3.720459e-01
    4.196665e+00    7.819807e+01    5.970455e+00    1.619190e+08    2.462829e-08    2.709369e-10    2.293804e-08    2.253386e-09    9.700000e-01    5.220761e-01    3.798109e-01
    4.097273e+00    7.377612e+01    6.223230e+00    1.644801e+08    2.467275e-08    2.906064e-10    2.298554e-08    2.259488e-09    9.800000e-01    5.220761e-01    3.875668e-01
    4.002317e+00    6.949301e+01    6.480410e+00    1.670080e+08    2.471706e-08    3.117712e-10    2.303129e-08    2.265705e-09    9.900000e-01    5.220761e-01    3.953147e-01
    3.911461e+00    6.535004e+01    6.741950e+00    1.695002e+08    2.476137e-08    3.345454e-10    2.307536e-08    2.272053e-09    1.000000e+00    5.220761e-01    4.030553e-01
    3.824393e+00    6.134873e+01    7.007810e+00    1.719538e+08    2.480580e-08    3.590509e-10    2.311778e-08    2.278553e-09    1.010000e+00    5.220761e-01    4.107897e-01
    3.740826e+00    5.749068e+01    7.277945e+00    1.743658e+08    2.485049e-08    3.854174e-10    2.315859e-08    2.285223e-09    1.020000e+00    5.220761e-01    4.185187e-01
    3.660494e+00    5.377758e+01    7.552305e+00    1.767326e+08    2.489560e-08    4.137821e-10    2.319783e-08    2.292083e-09    1.030000e+00    5.220761e-01    4.262429e-01
    3.583155e+00    5.021108e+01    7.830830e+00    1.790502e+08    2.494127e-08    4.442905e-10    2.323550e-08    2.299152e-09    1.040000e+00    5.220761e-01    4.339632e-01
    3.508580e+00    4.679283e+01    8.113465e+00    1.813146e+08    2.498764e-08    4.770953e-10    2.327163e-08    2.306451e-09    1.050000e+00    5.220761e-01    4.416801e-01
    3.436557e+00    4.352420e+01    8.400145e+00    1.835209e+08    2.503485e-08    5.123570e-10    2.330622e-08    2.313998e-09    1.060000e+00    5.220761e-01    4.493944e-01
    3.366891e+00    4.040640e+01    8.690790e+00    1.856642e+08    2.508305e-08    5.502435e-10    2.333927e-08    2.321815e-09    1.070000e+00    5.220761e-01    4.571064e-01
    3.299391e+00    3.744038e+01    8.985335e+00    1.877390e+08    2.513238e-08    5.909280e-10    2.337077e-08    2.329919e-09    1.080000e+00    5.220761e-01    4.648169e-01
    3.233889e+00    3.462664e+01    9.283685e+00    1.897397e+08    2.518299e-08    6.345910e-10    2.340071e-08    2.338331e-09    1.090000e+00    5.220761e-01    4.725262e-01
    3.170218e+00    3.196522e+01    9.585750e+00    1.916601e+08    2.523502e-08    6.814160e-10    2.342905e-08    2.347070e-09    1.100000e+00    5.220761e-01    4.802348e-01
    3.108224e+00    2.945570e+01    9.891430e+00    1.934936e+08    2.528861e-08    7.315915e-10    2.345579e-08    2.356154e-09    1.110000e+00    5.220761e-01    4.879432e-01
    3.047767e+00    2.709708e+01    1.020061e+01    1.952335e+08    2.534390e-08    7.853065e-10    2.348088e-08    2.365602e-09    1.120000e+00    5.220761e-01    4.956518e-01
    2.988705e+00    2.488769e+01    1.051317e+01    1.968727e+08    2.540103e-08    8.427505e-10    2.350428e-08    2.375430e-09    1.130000e+00    5.220761e-01    5.033608e-01
    2.930914e+00    2.282527e+01    1.082898e+01    1.984039e+08    2.546011e-08    9.041105e-10    2.352595e-08    2.385655e-09    1.140000e+00    5.220761e-01    5.110706e-01
    2.874276e+00    2.090684e+01    1.114790e+01    1.998200e+08    2.552129e-08    9.695695e-10    2.354585e-08    2.396290e-09    1.150000e+00    5.220761e-01    5.187816e-01
    2.818685e+00    1.912872e+01    1.146977e+01    2.011137e+08    2.558466e-08    1.039303e-09    2.356392e-08    2.407351e-09    1.160000e+00    5.220761e-01    5.264941e-01
    2.764043e+00    1.748659e+01    1.179443e+01    2.022781e+08    2.565033e-08    1.113475e-09    2.358012e-08    2.418847e-09    1.170000e+00    5.220761e-01    5.342082e-01
    2.710264e+00    1.597547e+01    1.212172e+01    2.033067e+08    2.571841e-08    1.192238e-09    2.359439e-08    2.430789e-09    1.180000e+00    5.220761e-01    5.419244e-01
    2.657278e+00    1.458977e+01    1.245143e+01    2.041939e+08    2.578895e-08    1.275727e-09    2.360668e-08    2.443183e-09    1.190000e+00    5.220761e-01    5.496428e-01
    2.605027e+00    1.332339e+01    1.278338e+01    2.049348e+08    2.586202e-08    1.364055e-09    2.361695e-08    2.456035e-09    1.200000e+00    5.220761e-01    5.573636e-01
    2.553465e+00    1.216978e+01    1.311738e+01    2.055256e+08    2.593768e-08    1.457316e-09    2.362514e-08    2.469347e-09    1.210000e+00    5.220761e-01    5.650871e-01
    2.502563e+00    1.112206e+01    1.345321e+01    2.059642e+08    2.601593e-08    1.555573e-09    2.363122e-08    2.483117e-09    1.220000e+00    5.220761e-01    5.728135e-01
    2.452308e+00    1.017310e+01    1.379066e+01    2.062496e+08    2.609679e-08    1.658863e-09    2.363514e-08    2.497342e-09    1.230000e+00    5.220761e-01    5.805430e-01
    2.402699e+00    9.315652e+00    1.412952e+01    2.063827e+08    2.618024e-08    1.767190e-09    2.363689e-08    2.512016e-09    1.240000e+00    5.220761e-01    5.882757e-01
    2.353750e+00    8.542489e+00    1.446957e+01    2.063661e+08    2.626624e-08    1.880522e-09    2.363643e-08    2.527128e-09    1.250000e+00    5.220761e-01    5.960119e-01
    2.305484e+00    7.846472e+00    1.481061e+01    2.062038e+08    2.635472e-08    1.998794e-09    2.363375e-08    2.542666e-09    1.260000e+00    5.220761e-01    6.037516e-01
    2.257933e+00    7.220677e+00    1.515242e+01    2.059017e+08    2.644559e-08    2.121905e-09    2.362886e-08    2.558614e-09    1.270000e+00    5.220761e-01    6.114952e-01
    2.211137e+00    6.658470e+00    1.549480e+01    2.054667e+08    2.653874e-08    2.249717e-09    2.362176e-08    2.574955e-09    1.280000e+00    5.220761e-01    6.192427e-01
    2.165136e+00    6.153571e+00    1.583758e+01    2.049070e+08    2.663405e-08    2.382056e-09    2.361249e-08    2.591668e-09    1.290000e+00    5.220761e-01    6.269942e-01
    2.119972e+00    5.700121e+00    1.618055e+01    2.042315e+08    2.673136e-08    2.518712e-09    2.360107e-08    2.608728e-09    1.300000e+00    5.220761e-01    6.347500e-01
    2.075688e+00    5.292682e+00    1.652357e+01    2.034498e+08    2.683051e-08    2.659450e-09    2.358754e-08    2.626113e-09    1.310000e+00    5.220761e-01    6.425102e-01
    2.032319e+00    4.926292e+00    1.686646e+01    2.025717e+08    2.693129e-08    2.803997e-09    2.357197e-08    2.643796e-09    1.320000e+00    5.220761e-01    6.502749e-01
