# sky130 nfet_01v8 gm/ID Processed Lookup Table
# Corner: sf
# Temperature: 25C
# W = 2.0 um
# L = 0.72 um (720 nm)
# Columns: gm/id [1/V]  gm/gds [V/V]  id/W [A/m]  ft [Hz]  Cgg/W [F/m]  Cgd/W [F/m]  Cgs/W [F/m]  Vov [V]
#         gm/id          gm/gds            id/W              ft           Cgg/W           Cgd/W           Cgs/W             Vov
    2.842378e+01    1.706823e+02    8.579685e-08    2.598726e+02    1.493526e-09    5.994100e-15    5.197665e-11   -5.856065e-01
    2.842313e+01    1.706792e+02    9.889905e-08    3.002959e+02    1.489824e-09    6.186735e-15    5.390495e-11   -5.806065e-01
    2.842245e+01    1.706759e+02    1.140017e-07    3.469767e+02    1.486253e-09    6.381635e-15    5.592865e-11   -5.756065e-01
    2.842171e+01    1.706723e+02    1.314103e-07    4.008772e+02    1.482819e-09    6.578555e-15    5.805335e-11   -5.706065e-01
    2.842092e+01    1.706684e+02    1.514765e-07    4.631072e+02    1.479524e-09    6.777235e-15    6.028470e-11   -5.656065e-01
    2.842007e+01    1.706641e+02    1.746062e-07    5.349447e+02    1.476372e-09    6.977385e-15    6.262890e-11   -5.606065e-01
    2.841915e+01    1.706595e+02    2.012668e-07    6.178621e+02    1.473370e-09    7.178700e-15    6.509230e-11   -5.556065e-01
    2.841817e+01    1.706545e+02    2.319970e-07    7.135563e+02    1.470518e-09    7.380845e-15    6.768175e-11   -5.506065e-01
    2.841711e+01    1.706491e+02    2.674179e-07    8.239796e+02    1.467825e-09    7.583465e-15    7.040435e-11   -5.456065e-01
    2.841599e+01    1.706434e+02    3.082452e-07    9.513814e+02    1.465293e-09    7.786180e-15    7.326755e-11   -5.406065e-01
    2.841476e+01    1.706370e+02    3.553035e-07    1.098349e+03    1.462930e-09    7.988585e-15    7.627935e-11   -5.356065e-01
    2.841346e+01    1.706302e+02    4.095434e-07    1.267860e+03    1.460740e-09    8.190250e-15    7.944795e-11   -5.306065e-01
    2.841207e+01    1.706228e+02    4.720603e-07    1.463342e+03    1.458730e-09    8.390730e-15    8.278210e-11   -5.256065e-01
    2.841056e+01    1.706149e+02    5.441165e-07    1.688730e+03    1.456906e-09    8.589540e-15    8.629085e-11   -5.206065e-01
    2.840896e+01    1.706063e+02    6.271665e-07    1.948556e+03    1.455276e-09    8.786190e-15    8.998385e-11   -5.156065e-01
    2.840721e+01    1.705971e+02    7.228870e-07    2.248023e+03    1.453846e-09    8.980160e-15    9.387100e-11   -5.106065e-01
    2.840537e+01    1.705872e+02    8.332085e-07    2.593109e+03    1.452625e-09    9.170915e-15    9.796290e-11   -5.056065e-01
    2.840337e+01    1.705766e+02    9.603580e-07    2.990681e+03    1.451620e-09    9.357890e-15    1.022703e-10   -5.006065e-01
    2.840122e+01    1.705650e+02    1.106899e-06    3.448623e+03    1.450840e-09    9.540530e-15    1.068046e-10   -4.956065e-01
    2.839892e+01    1.705525e+02    1.275787e-06    3.975980e+03    1.450293e-09    9.718235e-15    1.115777e-10   -4.906065e-01
    2.839645e+01    1.705392e+02    1.470425e-06    4.583131e+03    1.449989e-09    9.890430e-15    1.166021e-10   -4.856065e-01
    2.839380e+01    1.705248e+02    1.694736e-06    5.281974e+03    1.449938e-09    1.005651e-14    1.218907e-10   -4.806065e-01
    2.839095e+01    1.705092e+02    1.953239e-06    6.086149e+03    1.450150e-09    1.021588e-14    1.274569e-10   -4.756065e-01
    2.838790e+01    1.704926e+02    2.251139e-06    7.011285e+03    1.450635e-09    1.036794e-14    1.333146e-10   -4.706065e-01
    2.838463e+01    1.704747e+02    2.594432e-06    8.075276e+03    1.451404e-09    1.051213e-14    1.394781e-10   -4.656065e-01
    2.838112e+01    1.704555e+02    2.990026e-06    9.298605e+03    1.452469e-09    1.064787e-14    1.459623e-10   -4.606065e-01
    2.837736e+01    1.704349e+02    3.445877e-06    1.070471e+04    1.453841e-09    1.077463e-14    1.527826e-10   -4.556065e-01
    2.837332e+01    1.704127e+02    3.971148e-06    1.232039e+04    1.455533e-09    1.089191e-14    1.599548e-10   -4.506065e-01
    2.836899e+01    1.703888e+02    4.576393e-06    1.417626e+04    1.457557e-09    1.099924e-14    1.674953e-10   -4.456065e-01
    2.836434e+01    1.703631e+02    5.273765e-06    1.630732e+04    1.459927e-09    1.109624e-14    1.754207e-10   -4.406065e-01
    2.835936e+01    1.703356e+02    6.077260e-06    1.875352e+04    1.462654e-09    1.118255e-14    1.837482e-10   -4.356065e-01
    2.835402e+01    1.703061e+02    7.002990e-06    2.156042e+04    1.465754e-09    1.125793e-14    1.924956e-10   -4.306065e-01
    2.834828e+01    1.702744e+02    8.069515e-06    2.478001e+04    1.469241e-09    1.132220e-14    2.016806e-10   -4.256065e-01
    2.834214e+01    1.702405e+02    9.298190e-06    2.847153e+04    1.473128e-09    1.137531e-14    2.113217e-10   -4.206065e-01
    2.833556e+01    1.702039e+02    1.071360e-05    3.270248e+04    1.477429e-09    1.141732e-14    2.214373e-10   -4.156065e-01
    2.832849e+01    1.701648e+02    1.234405e-05    3.754966e+04    1.482161e-09    1.144846e-14    2.320464e-10   -4.106065e-01
    2.832093e+01    1.701229e+02    1.422211e-05    4.310047e+04    1.487339e-09    1.146907e-14    2.431683e-10   -4.056065e-01
    2.831281e+01    1.700778e+02    1.638527e-05    4.945430e+04    1.492976e-09    1.147974e-14    2.548219e-10   -4.006065e-01
    2.830413e+01    1.700297e+02    1.887665e-05    5.672408e+04    1.499088e-09    1.148120e-14    2.670268e-10   -3.956065e-01
    2.829480e+01    1.699779e+02    2.174585e-05    6.503793e+04    1.505693e-09    1.147444e-14    2.798025e-10   -3.906065e-01
    2.828483e+01    1.699226e+02    2.504996e-05    7.454153e+04    1.512804e-09    1.146070e-14    2.931683e-10   -3.856065e-01
    2.827414e+01    1.698632e+02    2.885462e-05    8.539974e+04    1.520437e-09    1.144148e-14    3.071437e-10   -3.806065e-01
    2.826269e+01    1.697997e+02    3.323529e-05    9.779970e+04    1.528607e-09    1.141860e-14    3.217477e-10   -3.756065e-01
    2.825043e+01    1.697316e+02    3.827878e-05    1.119532e+05    1.537329e-09    1.139419e-14    3.369995e-10   -3.706065e-01
    2.823731e+01    1.696588e+02    4.408482e-05    1.280999e+05    1.546620e-09    1.137078e-14    3.529176e-10   -3.656065e-01
    2.822325e+01    1.695809e+02    5.076805e-05    1.465111e+05    1.556493e-09    1.135124e-14    3.695204e-10   -3.606065e-01
    2.820823e+01    1.694975e+02    5.846020e-05    1.674934e+05    1.566963e-09    1.133890e-14    3.868254e-10   -3.556065e-01
    2.819214e+01    1.694084e+02    6.731260e-05    1.913929e+05    1.578043e-09    1.133751e-14    4.048501e-10   -3.506065e-01
    2.817494e+01    1.693132e+02    7.749905e-05    2.186006e+05    1.589748e-09    1.135136e-14    4.236108e-10   -3.456065e-01
    2.815653e+01    1.692113e+02    8.921910e-05    2.495575e+05    1.602089e-09    1.138519e-14    4.431232e-10   -3.406065e-01
    2.813686e+01    1.691026e+02    1.027018e-04    2.847606e+05    1.615079e-09    1.144435e-14    4.634020e-10   -3.356065e-01
    2.811584e+01    1.689866e+02    1.182099e-04    3.247699e+05    1.628730e-09    1.153475e-14    4.844612e-10   -3.306065e-01
    2.809339e+01    1.688627e+02    1.360449e-04    3.702161e+05    1.643052e-09    1.166291e-14    5.063135e-10   -3.256065e-01
    2.806940e+01    1.687306e+02    1.565527e-04    4.218083e+05    1.658055e-09    1.183604e-14    5.289700e-10   -3.206065e-01
    2.804379e+01    1.685897e+02    1.801296e-04    4.803437e+05    1.673747e-09    1.206201e-14    5.524415e-10   -3.156065e-01
    2.801647e+01    1.684397e+02    2.072297e-04    5.467190e+05    1.690135e-09    1.234943e-14    5.767365e-10   -3.106065e-01
    2.798734e+01    1.682800e+02    2.383734e-04    6.219395e+05    1.707227e-09    1.270764e-14    6.018625e-10   -3.056065e-01
    2.795626e+01    1.681099e+02    2.741562e-04    7.071331e+05    1.725028e-09    1.314678e-14    6.278250e-10   -3.006065e-01
    2.792314e+01    1.679291e+02    3.152599e-04    8.035652e+05    1.743540e-09    1.367781e-14    6.546275e-10   -2.956065e-01
    2.788789e+01    1.677371e+02    3.624642e-04    9.126535e+05    1.762767e-09    1.431253e-14    6.822730e-10   -2.906065e-01
    2.785034e+01    1.675332e+02    4.166608e-04    1.035983e+06    1.782709e-09    1.506358e-14    7.107620e-10   -2.856065e-01
    2.781041e+01    1.673168e+02    4.788681e-04    1.175329e+06    1.803366e-09    1.594454e-14    7.400920e-10   -2.806065e-01
    2.776796e+01    1.670876e+02    5.502500e-04    1.332675e+06    1.824735e-09    1.696987e-14    7.702600e-10   -2.756065e-01
    2.772288e+01    1.668449e+02    6.321335e-04    1.510234e+06    1.846813e-09    1.815498e-14    8.012605e-10   -2.706065e-01
    2.767503e+01    1.665882e+02    7.260335e-04    1.710478e+06    1.869594e-09    1.951624e-14    8.330850e-10   -2.656065e-01
    2.762426e+01    1.663170e+02    8.336770e-04    1.936162e+06    1.893071e-09    2.107097e-14    8.657250e-10   -2.606065e-01
    2.757046e+01    1.660308e+02    9.570295e-04    2.190353e+06    1.917235e-09    2.283750e-14    8.991675e-10   -2.556065e-01
    2.751352e+01    1.657294e+02    1.098329e-03    2.476469e+06    1.942075e-09    2.483511e-14    9.333985e-10   -2.506065e-01
    2.745329e+01    1.654122e+02    1.260122e-03    2.798305e+06    1.967578e-09    2.708410e-14    9.684015e-10   -2.456065e-01
    2.738965e+01    1.650790e+02    1.445301e-03    3.160081e+06    1.993731e-09    2.960575e-14    1.004159e-09   -2.406065e-01
    2.732249e+01    1.647295e+02    1.657150e-03    3.566479e+06    2.020517e-09    3.242236e-14    1.040649e-09   -2.356065e-01
    2.725171e+01    1.643636e+02    1.899396e-03    4.022691e+06    2.047919e-09    3.555718e-14    1.077849e-09   -2.306065e-01
    2.717719e+01    1.639813e+02    2.176264e-03    4.534467e+06    2.075918e-09    3.903450e-14    1.115735e-09   -2.256065e-01
    2.709884e+01    1.635828e+02    2.492539e-03    5.108173e+06    2.104491e-09    4.287952e-14    1.154279e-09   -2.206065e-01
    2.701659e+01    1.631681e+02    2.853630e-03    5.750848e+06    2.133617e-09    4.711844e-14    1.193453e-09   -2.156065e-01
    2.693038e+01    1.627378e+02    3.265657e-03    6.470267e+06    2.163271e-09    5.177840e-14    1.233226e-09   -2.106065e-01
    2.684019e+01    1.622926e+02    3.735528e-03    7.275017e+06    2.193429e-09    5.688740e-14    1.273567e-09   -2.056065e-01
    2.674594e+01    1.618330e+02    4.271035e-03    8.174556e+06    2.224063e-09    6.247445e-14    1.314440e-09   -2.006065e-01
    2.664767e+01    1.613602e+02    4.880960e-03    9.179318e+06    2.255144e-09    6.856935e-14    1.355811e-09   -1.956065e-01
    2.654538e+01    1.608756e+02    5.575190e-03    1.030079e+07    2.286644e-09    7.520275e-14    1.397643e-09   -1.906065e-01
    2.643915e+01    1.603805e+02    6.364840e-03    1.155160e+07    2.318531e-09    8.240615e-14    1.439898e-09   -1.856065e-01
    2.632903e+01    1.598770e+02    7.262405e-03    1.294567e+07    2.350775e-09    9.021185e-14    1.482536e-09   -1.806065e-01
    2.621513e+01    1.593670e+02    8.281905e-03    1.449826e+07    2.383343e-09    9.865285e-14    1.525517e-09   -1.756065e-01
    2.609760e+01    1.588530e+02    9.439060e-03    1.622618e+07    2.416202e-09    1.077629e-13    1.568801e-09   -1.706065e-01
    2.597661e+01    1.583378e+02    1.075148e-02    1.814786e+07    2.449319e-09    1.175765e-13    1.612345e-09   -1.656065e-01
    2.585235e+01    1.578245e+02    1.223887e-02    2.028357e+07    2.482660e-09    1.281287e-13    1.656108e-09   -1.606065e-01
    2.572506e+01    1.573163e+02    1.392328e-02    2.265555e+07    2.516190e-09    1.394553e-13    1.700047e-09   -1.556065e-01
    2.559499e+01    1.568170e+02    1.582931e-02    2.528821e+07    2.549875e-09    1.515926e-13    1.744120e-09   -1.506065e-01
    2.546240e+01    1.563304e+02    1.798445e-02    2.820837e+07    2.583680e-09    1.645774e-13    1.788284e-09   -1.456065e-01
    2.532761e+01    1.558606e+02    2.041936e-02    3.144547e+07    2.617570e-09    1.784473e-13    1.832498e-09   -1.406065e-01
    2.519088e+01    1.554118e+02    2.316819e-02    3.503176e+07    2.651512e-09    1.932400e-13    1.876717e-09   -1.356065e-01
    2.505252e+01    1.549884e+02    2.626899e-02    3.900268e+07    2.685471e-09    2.089942e-13    1.920902e-09   -1.306065e-01
    2.491284e+01    1.545949e+02    2.976411e-02    4.339711e+07    2.719415e-09    2.257486e-13    1.965011e-09   -1.256065e-01
    2.477206e+01    1.542352e+02    3.370061e-02    4.825754e+07    2.753308e-09    2.435425e-13    2.009004e-09   -1.206065e-01
    2.463044e+01    1.539135e+02    3.813081e-02    5.363059e+07    2.787120e-09    2.624157e-13    2.052842e-09   -1.156065e-01
    2.448813e+01    1.536334e+02    4.311276e-02    5.956709e+07    2.820819e-09    2.824083e-13    2.096485e-09   -1.106065e-01
    2.434524e+01    1.533980e+02    4.871090e-02    6.612254e+07    2.854374e-09    3.035609e-13    2.139899e-09   -1.056065e-01
    2.420183e+01    1.532101e+02    5.499655e-02    7.335733e+07    2.887754e-09    3.259144e-13    2.183046e-09   -1.006065e-01
    2.405780e+01    1.530712e+02    6.204875e-02    8.133691e+07    2.920932e-09    3.495101e-13    2.225892e-09   -9.560650e-02
    2.391305e+01    1.529824e+02    6.995465e-02    9.013198e+07    2.953879e-09    3.743897e-13    2.268403e-09   -9.060650e-02
    2.376725e+01    1.529435e+02    7.881070e-02    9.981862e+07    2.986571e-09    4.005953e-13    2.310548e-09   -8.560650e-02
    2.362008e+01    1.529531e+02    8.872290e-02    1.104783e+08    3.018979e-09    4.281695e-13    2.352296e-09   -8.060650e-02
    2.347103e+01    1.530086e+02    9.980780e-02    1.221977e+08    3.051081e-09    4.571552e-13    2.393621e-09   -7.560650e-02
    2.331949e+01    1.531060e+02    1.121934e-01    1.350683e+08    3.082855e-09    4.875957e-13    2.434493e-09   -7.060650e-02
    2.316479e+01    1.532401e+02    1.260195e-01    1.491862e+08    3.114278e-09    5.195350e-13    2.474890e-09   -6.560650e-02
    2.300611e+01    1.534039e+02    1.414386e-01    1.646512e+08    3.145330e-09    5.530170e-13    2.514785e-09   -6.060650e-02
    2.284263e+01    1.535895e+02    1.586165e-01    1.815662e+08    3.175994e-09    5.880870e-13    2.554160e-09   -5.560650e-02
    2.267344e+01    1.537874e+02    1.777330e-01    2.000359e+08    3.206252e-09    6.247905e-13    2.592992e-09   -5.060650e-02
    2.249764e+01    1.539871e+02    1.989817e-01    2.201659e+08    3.236087e-09    6.631730e-13    2.631265e-09   -4.560650e-02
    2.231432e+01    1.541771e+02    2.225709e-01    2.420608e+08    3.265486e-09    7.032810e-13    2.668961e-09   -4.060650e-02
    2.212263e+01    1.543452e+02    2.487235e-01    2.658232e+08    3.294435e-09    7.451625e-13    2.706066e-09   -3.560650e-02
    2.192176e+01    1.544784e+02    2.776766e-01    2.915510e+08    3.322923e-09    7.888650e-13    2.742566e-09   -3.060650e-02
    2.171103e+01    1.545637e+02    3.096811e-01    3.193366e+08    3.350939e-09    8.344375e-13    2.778450e-09   -2.560650e-02
    2.148986e+01    1.545882e+02    3.450019e-01    3.492645e+08    3.378474e-09    8.819290e-13    2.813709e-09   -2.060650e-02
    2.125781e+01    1.545390e+02    3.839159e-01    3.814092e+08    3.405521e-09    9.313910e-13    2.848332e-09   -1.560650e-02
    2.101460e+01    1.544040e+02    4.267120e-01    4.158337e+08    3.432072e-09    9.828745e-13    2.882315e-09   -1.060650e-02
    2.076011e+01    1.541718e+02    4.736888e-01    4.525875e+08    3.458122e-09    1.036433e-12    2.915652e-09   -5.606500e-03
    2.049440e+01    1.538324e+02    5.251540e-01    4.917059e+08    3.483666e-09    1.092118e-12    2.948338e-09   -6.065000e-04
    2.021769e+01    1.533769e+02    5.814215e-01    5.332075e+08    3.508703e-09    1.149986e-12    2.980370e-09    4.393500e-03
    1.993034e+01    1.527980e+02    6.428110e-01    5.770937e+08    3.533229e-09    1.210092e-12    3.011748e-09    9.393500e-03
    1.963289e+01    1.520897e+02    7.096435e-01    6.233487e+08    3.557242e-09    1.272495e-12    3.042470e-09    1.439350e-02
    1.932600e+01    1.512481e+02    7.822415e-01    6.719386e+08    3.580745e-09    1.337252e-12    3.072539e-09    1.939350e-02
    1.901044e+01    1.502707e+02    8.609260e-01    7.228116e+08    3.603736e-09    1.404424e-12    3.101956e-09    2.439350e-02
    1.868709e+01    1.491570e+02    9.460120e-01    7.758979e+08    3.626217e-09    1.474073e-12    3.130723e-09    2.939350e-02
    1.835690e+01    1.479079e+02    1.037810e+00    8.311121e+08    3.648192e-09    1.546263e-12    3.158846e-09    3.439350e-02
    1.802087e+01    1.465260e+02    1.136621e+00    8.883526e+08    3.669662e-09    1.621057e-12    3.186329e-09    3.939350e-02
    1.768005e+01    1.450154e+02    1.242733e+00    9.475040e+08    3.690630e-09    1.698525e-12    3.213176e-09    4.439350e-02
    1.733549e+01    1.433814e+02    1.356426e+00    1.008438e+09    3.711104e-09    1.778733e-12    3.239395e-09    4.939350e-02
    1.698824e+01    1.416304e+02    1.477961e+00    1.071017e+09    3.731086e-09    1.861755e-12    3.264994e-09    5.439350e-02
    1.663936e+01    1.397699e+02    1.607585e+00    1.135095e+09    3.750583e-09    1.947662e-12    3.289978e-09    5.939350e-02
    1.628984e+01    1.378082e+02    1.745527e+00    1.200516e+09    3.769600e-09    2.036531e-12    3.314358e-09    6.439350e-02
    1.594065e+01    1.357540e+02    1.891996e+00    1.267126e+09    3.788144e-09    2.128437e-12    3.338141e-09    6.939350e-02
    1.559271e+01    1.336166e+02    2.047184e+00    1.334764e+09    3.806222e-09    2.223463e-12    3.361337e-09    7.439350e-02
    1.524686e+01    1.314055e+02    2.211261e+00    1.403269e+09    3.823841e-09    2.321691e-12    3.383955e-09    7.939350e-02
    1.490392e+01    1.291304e+02    2.384378e+00    1.472483e+09    3.841009e-09    2.423206e-12    3.406006e-09    8.439350e-02
    1.456458e+01    1.268008e+02    2.566667e+00    1.542253e+09    3.857733e-09    2.528096e-12    3.427499e-09    8.939350e-02
    1.422952e+01    1.244262e+02    2.758236e+00    1.612426e+09    3.874021e-09    2.636452e-12    3.448447e-09    9.439350e-02
    1.389932e+01    1.220158e+02    2.959177e+00    1.682860e+09    3.889883e-09    2.748368e-12    3.468858e-09    9.939350e-02
    1.357448e+01    1.195785e+02    3.169562e+00    1.753417e+09    3.905326e-09    2.863942e-12    3.488744e-09    1.043935e-01
    1.325546e+01    1.171225e+02    3.389444e+00    1.823969e+09    3.920359e-09    2.983274e-12    3.508117e-09    1.093935e-01
    1.294263e+01    1.146559e+02    3.618858e+00    1.894395e+09    3.934991e-09    3.106469e-12    3.526987e-09    1.143935e-01
    1.263633e+01    1.121861e+02    3.857822e+00    1.964585e+09    3.949230e-09    3.233632e-12    3.545365e-09    1.193935e-01
    1.233680e+01    1.097200e+02    4.106343e+00    2.034438e+09    3.963086e-09    3.364876e-12    3.563265e-09    1.243935e-01
    1.204426e+01    1.072639e+02    4.364408e+00    2.103862e+09    3.976567e-09    3.500315e-12    3.580696e-09    1.293935e-01
    1.175885e+01    1.048234e+02    4.631994e+00    2.172773e+09    3.989683e-09    3.640069e-12    3.597669e-09    1.343935e-01
    1.148069e+01    1.024039e+02    4.909063e+00    2.241103e+09    4.002442e-09    3.784261e-12    3.614197e-09    1.393935e-01
    1.120985e+01    1.000097e+02    5.195570e+00    2.308785e+09    4.014853e-09    3.933017e-12    3.630290e-09    1.443935e-01
    1.094635e+01    9.764526e+01    5.491460e+00    2.375767e+09    4.026925e-09    4.086470e-12    3.645960e-09    1.493935e-01
    1.069020e+01    9.531401e+01    5.796660e+00    2.442000e+09    4.038668e-09    4.244756e-12    3.661217e-09    1.543935e-01
    1.044134e+01    9.301893e+01    6.111105e+00    2.507447e+09    4.050088e-09    4.408017e-12    3.676074e-09    1.593935e-01
    1.019973e+01    9.076274e+01    6.434715e+00    2.572077e+09    4.061197e-09    4.576398e-12    3.690540e-09    1.643935e-01
    9.965282e+00    8.854772e+01    6.767400e+00    2.635868e+09    4.072001e-09    4.750052e-12    3.704625e-09    1.693935e-01
