# sky130 nfet_01v8 gm/ID Processed Lookup Table
# Corner: sf
# Temperature: 25C
# W = 2.0 um
# L = 5.4 um (5400 nm)
# Columns: gm/id [1/V]  gm/gds [V/V]  id/W [A/m]  ft [Hz]  Cgg/W [F/m]  Cgd/W [F/m]  Cgs/W [F/m]  Vov [V]
#         gm/id          gm/gds            id/W              ft           Cgg/W           Cgd/W           Cgs/W             Vov
    2.649882e+01    2.350416e+02    9.057565e-08    3.195003e+01    1.195603e-08    3.770439e-13    9.245480e-10   -5.083948e-01
    2.649743e+01    2.350294e+02    1.034074e-07    3.648863e+01    1.195137e-08    3.910261e-13    9.642865e-10   -5.033948e-01
    2.649594e+01    2.350163e+02    1.180561e-07    4.166507e+01    1.194857e-08    4.055748e-13    1.005959e-09   -4.983948e-01
    2.649437e+01    2.350024e+02    1.347789e-07    4.756768e+01    1.194768e-08    4.207147e-13    1.049654e-09   -4.933948e-01
    2.649268e+01    2.349875e+02    1.538693e-07    5.429686e+01    1.194877e-08    4.364717e-13    1.095461e-09   -4.883948e-01
    2.649088e+01    2.349716e+02    1.756621e-07    6.196652e+01    1.195191e-08    4.528730e-13    1.143473e-09   -4.833948e-01
    2.648896e+01    2.349546e+02    2.005396e-07    7.070599e+01    1.195719e-08    4.699467e-13    1.193788e-09   -4.783948e-01
    2.648690e+01    2.349365e+02    2.289381e-07    8.066206e+01    1.196465e-08    4.877224e-13    1.246506e-09   -4.733948e-01
    2.648470e+01    2.349171e+02    2.613552e-07    9.200109e+01    1.197439e-08    5.062305e-13    1.301728e-09   -4.683948e-01
    2.648235e+01    2.348964e+02    2.983593e-07    1.049118e+02    1.198648e-08    5.255040e-13    1.359560e-09   -4.633948e-01
    2.647984e+01    2.348743e+02    3.405983e-07    1.196081e+02    1.200101e-08    5.455755e-13    1.420109e-09   -4.583948e-01
    2.647717e+01    2.348507e+02    3.888122e-07    1.363320e+02    1.201805e-08    5.664800e-13    1.483483e-09   -4.533948e-01
    2.647432e+01    2.348257e+02    4.438449e-07    1.553579e+02    1.203768e-08    5.882535e-13    1.549795e-09   -4.483948e-01
    2.647127e+01    2.347988e+02    5.066595e-07    1.769961e+02    1.206001e-08    6.109345e-13    1.619158e-09   -4.433948e-01
    2.646800e+01    2.347702e+02    5.783550e-07    2.015976e+02    1.208511e-08    6.345625e-13    1.691687e-09   -4.383948e-01
    2.646455e+01    2.347398e+02    6.601840e-07    2.295596e+02    1.211307e-08    6.591780e-13    1.767500e-09   -4.333948e-01
    2.646083e+01    2.347072e+02    7.535780e-07    2.613309e+02    1.214398e-08    6.848240e-13    1.846716e-09   -4.283948e-01
    2.645689e+01    2.346726e+02    8.601670e-07    2.974184e+02    1.217794e-08    7.115450e-13    1.929453e-09   -4.233948e-01
    2.645265e+01    2.346355e+02    9.818130e-07    3.383945e+02    1.221504e-08    7.393865e-13    2.015833e-09   -4.183948e-01
    2.644815e+01    2.345961e+02    1.120637e-06    3.849056e+02    1.225537e-08    7.683980e-13    2.105976e-09   -4.133948e-01
    2.644335e+01    2.345541e+02    1.279062e-06    4.376804e+02    1.229903e-08    7.986280e-13    2.200005e-09   -4.083948e-01
    2.643822e+01    2.345093e+02    1.459846e-06    4.975412e+02    1.234611e-08    8.301295e-13    2.298039e-09   -4.033948e-01
    2.643275e+01    2.344616e+02    1.666138e-06    5.654147e+02    1.239671e-08    8.629560e-13    2.400202e-09   -3.983948e-01
    2.642691e+01    2.344107e+02    1.901528e-06    6.423446e+02    1.245091e-08    8.971635e-13    2.506611e-09   -3.933948e-01
    2.642070e+01    2.343565e+02    2.170108e-06    7.295070e+02    1.250882e-08    9.328100e-13    2.617385e-09   -3.883948e-01
    2.641406e+01    2.342988e+02    2.476543e-06    8.282245e+02    1.257052e-08    9.699565e-13    2.732641e-09   -3.833948e-01
    2.640697e+01    2.342373e+02    2.826153e-06    9.399860e+02    1.263610e-08    1.008665e-12    2.852496e-09   -3.783948e-01
    2.639943e+01    2.341719e+02    3.224999e-06    1.066467e+03    1.270566e-08    1.048999e-12    2.977058e-09   -3.733948e-01
    2.639139e+01    2.341023e+02    3.679990e-06    1.209548e+03    1.277927e-08    1.091029e-12    3.106439e-09   -3.683948e-01
    2.638282e+01    2.340282e+02    4.198998e-06    1.371344e+03    1.285703e-08    1.134822e-12    3.240742e-09   -3.633948e-01
    2.637369e+01    2.339495e+02    4.790991e-06    1.554229e+03    1.293902e-08    1.180451e-12    3.380068e-09   -3.583948e-01
    2.636396e+01    2.338657e+02    5.466190e-06    1.760872e+03    1.302530e-08    1.227991e-12    3.524513e-09   -3.533948e-01
    2.635359e+01    2.337766e+02    6.236230e-06    1.994262e+03    1.311596e-08    1.277518e-12    3.674167e-09   -3.483948e-01
    2.634255e+01    2.336819e+02    7.114370e-06    2.257755e+03    1.321106e-08    1.329114e-12    3.829115e-09   -3.433948e-01
    2.633079e+01    2.335814e+02    8.115700e-06    2.555114e+03    1.331067e-08    1.382859e-12    3.989436e-09   -3.383948e-01
    2.631829e+01    2.334747e+02    9.257400e-06    2.890555e+03    1.341484e-08    1.438840e-12    4.155199e-09   -3.333948e-01
    2.630497e+01    2.333614e+02    1.055904e-05    3.268802e+03    1.352364e-08    1.497145e-12    4.326468e-09   -3.283948e-01
    2.629080e+01    2.332412e+02    1.204285e-05    3.695145e+03    1.363710e-08    1.557865e-12    4.503299e-09   -3.233948e-01
    2.627573e+01    2.331138e+02    1.373419e-05    4.175506e+03    1.375526e-08    1.621095e-12    4.685738e-09   -3.183948e-01
    2.625971e+01    2.329789e+02    1.566184e-05    4.716509e+03    1.387817e-08    1.686931e-12    4.873821e-09   -3.133948e-01
    2.624267e+01    2.328359e+02    1.785857e-05    5.325567e+03    1.400584e-08    1.755473e-12    5.067575e-09   -3.083948e-01
    2.622458e+01    2.326847e+02    2.036163e-05    6.010967e+03    1.413829e-08    1.826825e-12    5.267020e-09   -3.033948e-01
    2.620536e+01    2.325248e+02    2.321334e-05    6.781967e+03    1.427553e-08    1.901093e-12    5.472160e-09   -2.983948e-01
    2.618494e+01    2.323557e+02    2.646184e-05    7.648913e+03    1.441757e-08    1.978388e-12    5.682995e-09   -2.933948e-01
    2.616327e+01    2.321771e+02    3.016175e-05    8.623360e+03    1.456438e-08    2.058822e-12    5.899505e-09   -2.883948e-01
    2.614029e+01    2.319889e+02    3.437516e-05    9.718207e+03    1.471598e-08    2.142512e-12    6.121660e-09   -2.833948e-01
    2.611593e+01    2.317904e+02    3.917251e-05    1.094785e+04    1.487231e-08    2.229577e-12    6.349420e-09   -2.783948e-01
    2.609010e+01    2.315814e+02    4.463378e-05    1.232832e+04    1.503335e-08    2.320142e-12    6.582740e-09   -2.733948e-01
    2.606276e+01    2.313619e+02    5.084970e-05    1.387755e+04    1.519904e-08    2.414334e-12    6.821550e-09   -2.683948e-01
    2.603382e+01    2.311309e+02    5.792310e-05    1.561546e+04    1.536934e-08    2.512284e-12    7.065775e-09   -2.633948e-01
    2.600321e+01    2.308888e+02    6.597060e-05    1.756427e+04    1.554417e-08    2.614125e-12    7.315320e-09   -2.583948e-01
    2.597085e+01    2.306353e+02    7.512440e-05    1.974872e+04    1.572347e-08    2.719997e-12    7.570090e-09   -2.533948e-01
    2.593668e+01    2.303701e+02    8.553405e-05    2.219635e+04    1.590714e-08    2.830043e-12    7.829965e-09   -2.483948e-01
    2.590060e+01    2.300931e+02    9.736910e-05    2.493779e+04    1.609509e-08    2.944407e-12    8.094815e-09   -2.433948e-01
    2.586257e+01    2.298045e+02    1.108212e-04    2.800709e+04    1.628721e-08    3.063242e-12    8.364500e-09   -2.383948e-01
    2.582250e+01    2.295042e+02    1.261071e-04    3.144210e+04    1.648338e-08    3.186701e-12    8.638875e-09   -2.333948e-01
    2.578032e+01    2.291927e+02    1.434719e-04    3.528488e+04    1.668348e-08    3.314944e-12    8.917765e-09   -2.283948e-01
    2.573598e+01    2.288702e+02    1.631925e-04    3.958210e+04    1.688738e-08    3.448134e-12    9.201005e-09   -2.233948e-01
    2.568940e+01    2.285373e+02    1.855817e-04    4.438559e+04    1.709493e-08    3.586438e-12    9.488400e-09   -2.183948e-01
    2.564055e+01    2.281947e+02    2.109922e-04    4.975281e+04    1.730598e-08    3.730029e-12    9.779755e-09   -2.133948e-01
    2.558936e+01    2.278431e+02    2.398220e-04    5.574749e+04    1.752037e-08    3.879085e-12    1.007487e-08   -2.083948e-01
    2.553580e+01    2.274838e+02    2.725196e-04    6.244024e+04    1.773792e-08    4.033787e-12    1.037351e-08   -2.033948e-01
    2.547983e+01    2.271181e+02    3.095906e-04    6.990931e+04    1.795847e-08    4.194322e-12    1.067547e-08   -1.983948e-01
    2.542145e+01    2.267478e+02    3.516038e-04    7.824140e+04    1.818183e-08    4.360881e-12    1.098051e-08   -1.933948e-01
    2.536066e+01    2.263748e+02    3.991995e-04    8.753234e+04    1.840781e-08    4.533662e-12    1.128838e-08   -1.883948e-01
    2.529742e+01    2.260013e+02    4.530976e-04    9.788821e+04    1.863622e-08    4.712868e-12    1.159885e-08   -1.833948e-01
    2.523181e+01    2.256304e+02    5.141070e-04    1.094265e+05    1.886685e-08    4.898706e-12    1.191165e-08   -1.783948e-01
    2.516384e+01    2.252647e+02    5.831365e-04    1.222771e+05    1.909951e-08    5.091390e-12    1.222653e-08   -1.733948e-01
    2.509356e+01    2.249081e+02    6.612065e-04    1.365834e+05    1.933399e-08    5.291140e-12    1.254323e-08   -1.683948e-01
    2.502108e+01    2.245647e+02    7.494605e-04    1.525044e+05    1.957008e-08    5.498180e-12    1.286148e-08   -1.633948e-01
    2.494648e+01    2.242391e+02    8.491820e-04    1.702156e+05    1.980756e-08    5.712740e-12    1.318103e-08   -1.583948e-01
    2.486991e+01    2.239366e+02    9.618080e-04    1.899111e+05    2.004622e-08    5.935065e-12    1.350159e-08   -1.533948e-01
    2.479146e+01    2.236628e+02    1.088950e-03    2.118055e+05    2.028585e-08    6.165390e-12    1.382290e-08   -1.483948e-01
    2.471135e+01    2.234243e+02    1.232410e-03    2.361363e+05    2.052623e-08    6.403975e-12    1.414469e-08   -1.433948e-01
    2.462974e+01    2.232280e+02    1.394206e-03    2.631663e+05    2.076714e-08    6.651070e-12    1.446671e-08   -1.383948e-01
    2.454685e+01    2.230818e+02    1.576594e-03    2.931859e+05    2.100839e-08    6.906945e-12    1.478867e-08   -1.333948e-01
    2.446288e+01    2.229939e+02    1.782099e-03    3.265170e+05    2.124974e-08    7.171875e-12    1.511032e-08   -1.283948e-01
    2.437809e+01    2.229736e+02    2.013540e-03    3.635159e+05    2.149100e-08    7.446135e-12    1.543141e-08   -1.233948e-01
    2.429269e+01    2.230302e+02    2.274071e-03    4.045767e+05    2.173196e-08    7.730015e-12    1.575167e-08   -1.183948e-01
    2.420698e+01    2.231744e+02    2.567212e-03    4.501369e+05    2.197242e-08    8.023815e-12    1.607088e-08   -1.133948e-01
    2.412113e+01    2.234168e+02    2.896900e-03    5.006798e+05    2.221218e-08    8.327840e-12    1.638877e-08   -1.083948e-01
    2.403542e+01    2.237689e+02    3.267524e-03    5.567419e+05    2.245105e-08    8.642395e-12    1.670511e-08   -1.033948e-01
    2.395001e+01    2.242421e+02    3.683987e-03    6.189161e+05    2.268884e-08    8.967815e-12    1.701968e-08   -9.839480e-02
    2.386507e+01    2.248486e+02    4.151764e-03    6.878585e+05    2.292537e-08    9.304430e-12    1.733226e-08   -9.339480e-02
    2.378071e+01    2.256005e+02    4.676956e-03    7.642948e+05    2.316047e-08    9.652580e-12    1.764264e-08   -8.839480e-02
    2.369699e+01    2.265099e+02    5.266370e-03    8.490256e+05    2.339397e-08    1.001262e-11    1.795060e-08   -8.339480e-02
    2.361383e+01    2.275884e+02    5.927595e-03    9.429325e+05    2.362570e-08    1.038490e-11    1.825597e-08   -7.839480e-02
    2.353120e+01    2.288477e+02    6.669070e-03    1.046986e+06    2.385551e-08    1.076981e-11    1.855854e-08   -7.339480e-02
    2.344880e+01    2.302987e+02    7.500205e-03    1.162248e+06    2.408326e-08    1.116773e-11    1.885817e-08   -6.839480e-02
    2.336632e+01    2.319508e+02    8.431450e-03    1.289880e+06    2.430880e-08    1.157906e-11    1.915465e-08   -6.339480e-02
    2.328334e+01    2.338131e+02    9.474395e-03    1.431146e+06    2.453200e-08    1.200421e-11    1.944785e-08   -5.839480e-02
    2.319925e+01    2.358928e+02    1.064191e-02    1.587414e+06    2.475275e-08    1.244359e-11    1.973763e-08   -5.339480e-02
    2.311337e+01    2.381952e+02    1.194822e-02    1.760160e+06    2.497092e-08    1.289764e-11    2.002384e-08   -4.839480e-02
    2.302486e+01    2.407239e+02    1.340905e-02    1.950962e+06    2.518641e-08    1.336682e-11    2.030637e-08   -4.339480e-02
    2.293282e+01    2.434803e+02    1.504168e-02    2.161502e+06    2.539911e-08    1.385158e-11    2.058508e-08   -3.839480e-02
    2.283620e+01    2.464630e+02    1.686516e-02    2.393551e+06    2.560894e-08    1.435240e-11    2.085989e-08   -3.339480e-02
    2.273389e+01    2.496681e+02    1.890030e-02    2.648968e+06    2.581582e-08    1.486978e-11    2.113071e-08   -2.839480e-02
    2.262474e+01    2.530889e+02    2.116984e-02    2.929677e+06    2.601966e-08    1.540422e-11    2.139743e-08   -2.339480e-02
    2.250754e+01    2.567153e+02    2.369850e-02    3.237650e+06    2.622039e-08    1.595624e-11    2.165999e-08   -1.839480e-02
    2.238115e+01    2.605348e+02    2.651307e-02    3.574893e+06    2.641798e-08    1.652640e-11    2.191833e-08   -1.339480e-02
    2.224440e+01    2.645313e+02    2.964241e-02    3.943403e+06    2.661234e-08    1.711524e-11    2.217238e-08   -8.394800e-03
    2.209619e+01    2.686856e+02    3.311752e-02    4.345149e+06    2.680345e-08    1.772335e-11    2.242209e-08   -3.394800e-03
    2.193560e+01    2.729763e+02    3.697150e-02    4.782045e+06    2.699125e-08    1.835133e-11    2.266744e-08    1.605200e-03
    2.176176e+01    2.773786e+02    4.123950e-02    5.255889e+06    2.717573e-08    1.899978e-11    2.290839e-08    6.605200e-03
    2.157400e+01    2.818657e+02    4.595863e-02    5.768350e+06    2.735686e-08    1.966936e-11    2.314492e-08    1.160520e-02
    2.137183e+01    2.864088e+02    5.116790e-02    6.320922e+06    2.753461e-08    2.036071e-11    2.337701e-08    1.660520e-02
    2.115493e+01    2.909768e+02    5.690795e-02    6.914872e+06    2.770898e-08    2.107451e-11    2.360466e-08    2.160520e-02
    2.092320e+01    2.955382e+02    6.322100e-02    7.551229e+06    2.787995e-08    2.181149e-11    2.382787e-08    2.660520e-02
    2.067673e+01    3.000600e+02    7.015050e-02    8.230729e+06    2.804752e-08    2.257234e-11    2.404663e-08    3.160520e-02
    2.041585e+01    3.045095e+02    7.774080e-02    8.953797e+06    2.821171e-08    2.335785e-11    2.426099e-08    3.660520e-02
    2.014104e+01    3.088533e+02    8.603705e-02    9.720525e+06    2.837251e-08    2.416879e-11    2.447093e-08    4.160520e-02
    1.985296e+01    3.130599e+02    9.508475e-02    1.053065e+07    2.852995e-08    2.500596e-11    2.467650e-08    4.660520e-02
    1.955245e+01    3.170981e+02    1.049293e-01    1.138356e+07    2.868402e-08    2.587019e-11    2.487772e-08    5.160520e-02
    1.924046e+01    3.209384e+02    1.156160e-01    1.227826e+07    2.883479e-08    2.676235e-11    2.507462e-08    5.660520e-02
    1.891809e+01    3.245536e+02    1.271890e-01    1.321341e+07    2.898224e-08    2.768334e-11    2.526725e-08    6.160520e-02
    1.858647e+01    3.279184e+02    1.396919e-01    1.418735e+07    2.912642e-08    2.863408e-11    2.545565e-08    6.660520e-02
    1.824686e+01    3.310109e+02    1.531665e-01    1.519807e+07    2.926736e-08    2.961553e-11    2.563986e-08    7.160520e-02
    1.790051e+01    3.338114e+02    1.676530e-01    1.624330e+07    2.940509e-08    3.062868e-11    2.581994e-08    7.660520e-02
    1.754870e+01    3.363033e+02    1.831896e-01    1.732050e+07    2.953966e-08    3.167457e-11    2.599595e-08    8.160520e-02
    1.719273e+01    3.384734e+02    1.998120e-01    1.842692e+07    2.967110e-08    3.275426e-11    2.616792e-08    8.660520e-02
    1.683384e+01    3.403117e+02    2.175534e-01    1.955963e+07    2.979947e-08    3.386884e-11    2.633595e-08    9.160520e-02
    1.647325e+01    3.418110e+02    2.364442e-01    2.071557e+07    2.992479e-08    3.501947e-11    2.650007e-08    9.660520e-02
    1.611214e+01    3.429673e+02    2.565120e-01    2.189163e+07    3.004713e-08    3.620733e-11    2.666035e-08    1.016052e-01
    1.575161e+01    3.437797e+02    2.777815e-01    2.308463e+07    3.016653e-08    3.743365e-11    2.681687e-08    1.066052e-01
    1.539269e+01    3.442498e+02    3.002737e-01    2.429139e+07    3.028304e-08    3.869971e-11    2.696969e-08    1.116052e-01
    1.503634e+01    3.443817e+02    3.240072e-01    2.550881e+07    3.039672e-08    4.000682e-11    2.711887e-08    1.166052e-01
    1.468343e+01    3.441821e+02    3.489971e-01    2.673383e+07    3.050762e-08    4.135635e-11    2.726448e-08    1.216052e-01
    1.433477e+01    3.436595e+02    3.752555e-01    2.796357e+07    3.061578e-08    4.274972e-11    2.740661e-08    1.266052e-01
    1.399104e+01    3.428239e+02    4.027917e-01    2.919521e+07    3.072127e-08    4.418842e-11    2.754531e-08    1.316052e-01
    1.365289e+01    3.416876e+02    4.316119e-01    3.042617e+07    3.082414e-08    4.567396e-11    2.768066e-08    1.366052e-01
    1.332086e+01    3.402634e+02    4.617200e-01    3.165403e+07    3.092444e-08    4.720793e-11    2.781273e-08    1.416052e-01
    1.299540e+01    3.385654e+02    4.931169e-01    3.287656e+07    3.102224e-08    4.879196e-11    2.794159e-08    1.466052e-01
    1.267691e+01    3.366084e+02    5.258015e-01    3.409177e+07    3.111759e-08    5.042780e-11    2.806733e-08    1.516052e-01
    1.236572e+01    3.344079e+02    5.597710e-01    3.529788e+07    3.121054e-08    5.211715e-11    2.819000e-08    1.566052e-01
    1.206208e+01    3.319791e+02    5.950195e-01    3.649329e+07    3.130115e-08    5.386190e-11    2.830968e-08    1.616052e-01
    1.176618e+01    3.293381e+02    6.315400e-01    3.767665e+07    3.138949e-08    5.566395e-11    2.842644e-08    1.666052e-01
    1.147817e+01    3.265002e+02    6.693245e-01    3.884683e+07    3.147560e-08    5.752525e-11    2.854035e-08    1.716052e-01
    1.119813e+01    3.234810e+02    7.083630e-01    4.000284e+07    3.155954e-08    5.944790e-11    2.865148e-08    1.766052e-01
    1.092612e+01    3.202959e+02    7.486440e-01    4.114399e+07    3.164136e-08    6.143405e-11    2.875991e-08    1.816052e-01
    1.066213e+01    3.169591e+02    7.901565e-01    4.226965e+07    3.172112e-08    6.348580e-11    2.886569e-08    1.866052e-01
    1.040614e+01    3.134850e+02    8.328870e-01    4.337943e+07    3.179888e-08    6.560560e-11    2.896890e-08    1.916052e-01
    1.015806e+01    3.098870e+02    8.768230e-01    4.447307e+07    3.187469e-08    6.779570e-11    2.906961e-08    1.966052e-01
    9.917826e+00    3.061780e+02    9.219510e-01    4.555045e+07    3.194860e-08    7.005870e-11    2.916788e-08    2.016052e-01
    9.685316e+00    3.023702e+02    9.682560e-01    4.661158e+07    3.202066e-08    7.239710e-11    2.926377e-08    2.066052e-01
    9.460385e+00    2.984750e+02    1.015725e+00    4.765657e+07    3.209093e-08    7.481365e-11    2.935735e-08    2.116052e-01
    9.242894e+00    2.945033e+02    1.064343e+00    4.868565e+07    3.215946e-08    7.731105e-11    2.944869e-08    2.166052e-01
    9.032669e+00    2.904649e+02    1.114096e+00    4.969908e+07    3.222630e-08    7.989225e-11    2.953783e-08    2.216052e-01
    8.829525e+00    2.863690e+02    1.164971e+00    5.069725e+07    3.229150e-08    8.256025e-11    2.962486e-08    2.266052e-01
    8.633287e+00    2.822245e+02    1.216953e+00    5.168058e+07    3.235510e-08    8.531810e-11    2.970981e-08    2.316052e-01
    8.443757e+00    2.780391e+02    1.270030e+00    5.264955e+07    3.241716e-08    8.816915e-11    2.979275e-08    2.366052e-01
    8.260729e+00    2.738198e+02    1.324187e+00    5.360462e+07    3.247772e-08    9.111670e-11    2.987374e-08    2.416052e-01
    8.084011e+00    2.695736e+02    1.379413e+00    5.454639e+07    3.253684e-08    9.416430e-11    2.995283e-08    2.466052e-01
