# sky130 nfet_01v8 gm/ID Processed Lookup Table
# Corner: sf
# Temperature: 25C
# W = 2.0 um
# L = 5.22 um (5220 nm)
# Columns: gm/id [1/V]  gm/gds [V/V]  id/W [A/m]  ft [Hz]  Cgg/W [F/m]  Cgd/W [F/m]  Cgs/W [F/m]  Vov [V]
#         gm/id          gm/gds            id/W              ft           Cgg/W           Cgd/W           Cgs/W             Vov
    2.646144e+01    2.302060e+02    9.430290e-08    3.435929e+01    1.155884e-08    3.654673e-13    8.949745e-10   -5.086797e-01
    2.646006e+01    2.301942e+02    1.076426e-07    3.923279e+01    1.155436e-08    3.790051e-13    9.334095e-10   -5.036797e-01
    2.645858e+01    2.301813e+02    1.228683e-07    4.479011e+01    1.155166e-08    3.930907e-13    9.737120e-10   -4.986797e-01
    2.645701e+01    2.301677e+02    1.402465e-07    5.112587e+01    1.155081e-08    4.077480e-13    1.015967e-09   -4.936797e-01
    2.645533e+01    2.301532e+02    1.600814e-07    5.834744e+01    1.155188e-08    4.230023e-13    1.060261e-09   -4.886797e-01
    2.645353e+01    2.301376e+02    1.827200e-07    6.657679e+01    1.155492e-08    4.388794e-13    1.106685e-09   -4.836797e-01
    2.645160e+01    2.301208e+02    2.085581e-07    7.595226e+01    1.156002e-08    4.554067e-13    1.155331e-09   -4.786797e-01
    2.644956e+01    2.301033e+02    2.380476e-07    8.663095e+01    1.156723e-08    4.726128e-13    1.206296e-09   -4.736797e-01
    2.644738e+01    2.300843e+02    2.717039e-07    9.879066e+01    1.157664e-08    4.905272e-13    1.259679e-09   -4.686797e-01
    2.644502e+01    2.300640e+02    3.101153e-07    1.126332e+02    1.158833e-08    5.091810e-13    1.315581e-09   -4.636797e-01
    2.644254e+01    2.300425e+02    3.539526e-07    1.283873e+02    1.160236e-08    5.286065e-13    1.374103e-09   -4.586797e-01
    2.643987e+01    2.300195e+02    4.039815e-07    1.463117e+02    1.161882e-08    5.488370e-13    1.435353e-09   -4.536797e-01
    2.643703e+01    2.299950e+02    4.610753e-07    1.666995e+02    1.163779e-08    5.699080e-13    1.499436e-09   -4.486797e-01
    2.643398e+01    2.299688e+02    5.262305e-07    1.898823e+02    1.165935e-08    5.918560e-13    1.566462e-09   -4.436797e-01
    2.643075e+01    2.299408e+02    6.005830e-07    2.162354e+02    1.168358e-08    6.147190e-13    1.636545e-09   -4.386797e-01
    2.642728e+01    2.299111e+02    6.854300e-07    2.461827e+02    1.171058e-08    6.385365e-13    1.709793e-09   -4.336797e-01
    2.642361e+01    2.298793e+02    7.822490e-07    2.802034e+02    1.174043e-08    6.633495e-13    1.786323e-09   -4.286797e-01
    2.641966e+01    2.298454e+02    8.927275e-07    3.188390e+02    1.177321e-08    6.892015e-13    1.866250e-09   -4.236797e-01
    2.641546e+01    2.298092e+02    1.018789e-06    3.627006e+02    1.180902e-08    7.161365e-13    1.949690e-09   -4.186797e-01
    2.641097e+01    2.297707e+02    1.162625e-06    4.124780e+02    1.184796e-08    7.442015e-13    2.036758e-09   -4.136797e-01
    2.640619e+01    2.297297e+02    1.326738e-06    4.689491e+02    1.189010e-08    7.734440e-13    2.127573e-09   -4.086797e-01
    2.640108e+01    2.296860e+02    1.513980e-06    5.329911e+02    1.193554e-08    8.039145e-13    2.222251e-09   -4.036797e-01
    2.639564e+01    2.296394e+02    1.727601e-06    6.055928e+02    1.198437e-08    8.356655e-13    2.320906e-09   -3.986797e-01
    2.638983e+01    2.295897e+02    1.971308e-06    6.878675e+02    1.203668e-08    8.687505e-13    2.423656e-09   -3.936797e-01
    2.638364e+01    2.295368e+02    2.249328e-06    7.810692e+02    1.209255e-08    9.032255e-13    2.530614e-09   -3.886797e-01
    2.637704e+01    2.294805e+02    2.566475e-06    8.866091e+02    1.215209e-08    9.391490e-13    2.641893e-09   -3.836797e-01
    2.637000e+01    2.294206e+02    2.928239e-06    1.006074e+03    1.221538e-08    9.765810e-13    2.757602e-09   -3.786797e-01
    2.636249e+01    2.293567e+02    3.340874e-06    1.141249e+03    1.228249e-08    1.015585e-12    2.877849e-09   -3.736797e-01
    2.635449e+01    2.292887e+02    3.811509e-06    1.294140e+03    1.235351e-08    1.056224e-12    3.002739e-09   -3.686797e-01
    2.634596e+01    2.292164e+02    4.348263e-06    1.467000e+03    1.242853e-08    1.098567e-12    3.132372e-09   -3.636797e-01
    2.633688e+01    2.291396e+02    4.960387e-06    1.662361e+03    1.250762e-08    1.142682e-12    3.266847e-09   -3.586797e-01
    2.632720e+01    2.290578e+02    5.658415e-06    1.883061e+03    1.259086e-08    1.188643e-12    3.406254e-09   -3.536797e-01
    2.631690e+01    2.289709e+02    6.454350e-06    2.132290e+03    1.267831e-08    1.236522e-12    3.550680e-09   -3.486797e-01
    2.630591e+01    2.288785e+02    7.361855e-06    2.413618e+03    1.277004e-08    1.286399e-12    3.700207e-09   -3.436797e-01
    2.629423e+01    2.287805e+02    8.396480e-06    2.731054e+03    1.286612e-08    1.338351e-12    3.854910e-09   -3.386797e-01
    2.628178e+01    2.286764e+02    9.575935e-06    3.089087e+03    1.296660e-08    1.392462e-12    4.014856e-09   -3.336797e-01
    2.626855e+01    2.285660e+02    1.092036e-05    3.492745e+03    1.307153e-08    1.448817e-12    4.180109e-09   -3.286797e-01
    2.625446e+01    2.284489e+02    1.245269e-05    3.947661e+03    1.318095e-08    1.507503e-12    4.350718e-09   -3.236797e-01
    2.623948e+01    2.283246e+02    1.419901e-05    4.460133e+03    1.329492e-08    1.568611e-12    4.526731e-09   -3.186797e-01
    2.622355e+01    2.281930e+02    1.618897e-05    5.037216e+03    1.341345e-08    1.632234e-12    4.708181e-09   -3.136797e-01
    2.620662e+01    2.280536e+02    1.845631e-05    5.686794e+03    1.353657e-08    1.698471e-12    4.895097e-09   -3.086797e-01
    2.618864e+01    2.279062e+02    2.103936e-05    6.417682e+03    1.366430e-08    1.767419e-12    5.087495e-09   -3.036797e-01
    2.616953e+01    2.277502e+02    2.398169e-05    7.239732e+03    1.379664e-08    1.839183e-12    5.285380e-09   -2.986797e-01
    2.614925e+01    2.275854e+02    2.733282e-05    8.163944e+03    1.393361e-08    1.913867e-12    5.488745e-09   -2.936797e-01
    2.612772e+01    2.274114e+02    3.114897e-05    9.202610e+03    1.407519e-08    1.991581e-12    5.697585e-09   -2.886797e-01
    2.610489e+01    2.272278e+02    3.549398e-05    1.036945e+04    1.422136e-08    2.072437e-12    5.911860e-09   -2.836797e-01
    2.608069e+01    2.270344e+02    4.044034e-05    1.167975e+04    1.437210e-08    2.156551e-12    6.131540e-09   -2.786797e-01
    2.605505e+01    2.268309e+02    4.607026e-05    1.315059e+04    1.452739e-08    2.244042e-12    6.356575e-09   -2.736797e-01
    2.602788e+01    2.266167e+02    5.247705e-05    1.480098e+04    1.468716e-08    2.335033e-12    6.586905e-09   -2.686797e-01
    2.599915e+01    2.263917e+02    5.976640e-05    1.665214e+04    1.485137e-08    2.429651e-12    6.822445e-09   -2.636797e-01
    2.596875e+01    2.261557e+02    6.805825e-05    1.872766e+04    1.501995e-08    2.528023e-12    7.063120e-09   -2.586797e-01
    2.593660e+01    2.259085e+02    7.748840e-05    2.105384e+04    1.519283e-08    2.630286e-12    7.308825e-09   -2.536797e-01
    2.590266e+01    2.256499e+02    8.821060e-05    2.365992e+04    1.536994e-08    2.736576e-12    7.559450e-09   -2.486797e-01
    2.586684e+01    2.253798e+02    1.003990e-04    2.657846e+04    1.555116e-08    2.847033e-12    7.814880e-09   -2.436797e-01
    2.582906e+01    2.250985e+02    1.142504e-04    2.984564e+04    1.573641e-08    2.961803e-12    8.074970e-09   -2.386797e-01
    2.578928e+01    2.248058e+02    1.299876e-04    3.350164e+04    1.592557e-08    3.081036e-12    8.339575e-09   -2.336797e-01
    2.574739e+01    2.245021e+02    1.478623e-04    3.759116e+04    1.611853e-08    3.204884e-12    8.608540e-09   -2.286797e-01
    2.570337e+01    2.241876e+02    1.681589e-04    4.216374e+04    1.631515e-08    3.333505e-12    8.881700e-09   -2.236797e-01
    2.565712e+01    2.238628e+02    1.911984e-04    4.727441e+04    1.651529e-08    3.467062e-12    9.158870e-09   -2.186797e-01
    2.560859e+01    2.235285e+02    2.173431e-04    5.298422e+04    1.671880e-08    3.605719e-12    9.439860e-09   -2.136797e-01
    2.555778e+01    2.231855e+02    2.470014e-04    5.936083e+04    1.692554e-08    3.749648e-12    9.724475e-09   -2.086797e-01
    2.550459e+01    2.228349e+02    2.806338e-04    6.647919e+04    1.713534e-08    3.899025e-12    1.001251e-08   -2.036797e-01
    2.544903e+01    2.224780e+02    3.187591e-04    7.442242e+04    1.734803e-08    4.054031e-12    1.030374e-08   -1.986797e-01
    2.539105e+01    2.221163e+02    3.619612e-04    8.328240e+04    1.756344e-08    4.214848e-12    1.059794e-08   -1.936797e-01
    2.533067e+01    2.217519e+02    4.108969e-04    9.316100e+04    1.778139e-08    4.381669e-12    1.089488e-08   -1.886797e-01
    2.526789e+01    2.213868e+02    4.663049e-04    1.041708e+05    1.800168e-08    4.554688e-12    1.119434e-08   -1.836797e-01
    2.520273e+01    2.210238e+02    5.290150e-04    1.164364e+05    1.822412e-08    4.734106e-12    1.149605e-08   -1.786797e-01
    2.513520e+01    2.206660e+02    5.999600e-04    1.300957e+05    1.844854e-08    4.920129e-12    1.179978e-08   -1.736797e-01
    2.506540e+01    2.203166e+02    6.801855e-04    1.453009e+05    1.867471e-08    5.112970e-12    1.210527e-08   -1.686797e-01
    2.499341e+01    2.199798e+02    7.708650e-04    1.622206e+05    1.890244e-08    5.312840e-12    1.241227e-08   -1.636797e-01
    2.491930e+01    2.196599e+02    8.733145e-04    1.810410e+05    1.913153e-08    5.519975e-12    1.272053e-08   -1.586797e-01
    2.484321e+01    2.193622e+02    9.890085e-04    2.019682e+05    1.936176e-08    5.734590e-12    1.302978e-08   -1.536797e-01
    2.476526e+01    2.190920e+02    1.119598e-03    2.252296e+05    1.959295e-08    5.956930e-12    1.333977e-08   -1.486797e-01
    2.468565e+01    2.188555e+02    1.266931e-03    2.510773e+05    1.982487e-08    6.187240e-12    1.365023e-08   -1.436797e-01
    2.460453e+01    2.186598e+02    1.433077e-03    2.797898e+05    2.005731e-08    6.425760e-12    1.396092e-08   -1.386797e-01
    2.452212e+01    2.185120e+02    1.620348e-03    3.116753e+05    2.029008e-08    6.672750e-12    1.427157e-08   -1.336797e-01
    2.443864e+01    2.184205e+02    1.831331e-03    3.470751e+05    2.052298e-08    6.928475e-12    1.458194e-08   -1.286797e-01
    2.435432e+01    2.183941e+02    2.068918e-03    3.863670e+05    2.075580e-08    7.193200e-12    1.489178e-08   -1.236797e-01
    2.426940e+01    2.184419e+02    2.336339e-03    4.299688e+05    2.098834e-08    7.467215e-12    1.520084e-08   -1.186797e-01
    2.418412e+01    2.185740e+02    2.637204e-03    4.783440e+05    2.122041e-08    7.750795e-12    1.550889e-08   -1.136797e-01
    2.409872e+01    2.188009e+02    2.975542e-03    5.320053e+05    2.145182e-08    8.044240e-12    1.581569e-08   -1.086797e-01
    2.401344e+01    2.191337e+02    3.355855e-03    5.915213e+05    2.168239e-08    8.347850e-12    1.612102e-08   -1.036797e-01
    2.392845e+01    2.195836e+02    3.783165e-03    6.575209e+05    2.191193e-08    8.661940e-12    1.642465e-08   -9.867970e-02
    2.384394e+01    2.201623e+02    4.263080e-03    7.306993e+05    2.214027e-08    8.986825e-12    1.672638e-08   -9.367970e-02
    2.375999e+01    2.208816e+02    4.801851e-03    8.118258e+05    2.236723e-08    9.322845e-12    1.702599e-08   -8.867970e-02
    2.367670e+01    2.217532e+02    5.406450e-03    9.017496e+05    2.259267e-08    9.670330e-12    1.732330e-08   -8.367970e-02
    2.359401e+01    2.227886e+02    6.084650e-03    1.001406e+06    2.281642e-08    1.002964e-11    1.761811e-08   -7.867970e-02
    2.351182e+01    2.239990e+02    6.845105e-03    1.111823e+06    2.303833e-08    1.040113e-11    1.791025e-08   -7.367970e-02
    2.342994e+01    2.253949e+02    7.697440e-03    1.234128e+06    2.325826e-08    1.078517e-11    1.819955e-08   -6.867970e-02
    2.334802e+01    2.269862e+02    8.652370e-03    1.369556e+06    2.347608e-08    1.118215e-11    1.848584e-08   -6.367970e-02
    2.326565e+01    2.287812e+02    9.721770e-03    1.519446e+06    2.369165e-08    1.159246e-11    1.876898e-08   -5.867970e-02
    2.318227e+01    2.307872e+02    1.091882e-02    1.685254e+06    2.390487e-08    1.201651e-11    1.904883e-08   -5.367970e-02
    2.309718e+01    2.330095e+02    1.225811e-02    1.868547e+06    2.411561e-08    1.245471e-11    1.932526e-08   -4.867970e-02
    2.300958e+01    2.354517e+02    1.375573e-02    2.071006e+06    2.432378e-08    1.290751e-11    1.959813e-08   -4.367970e-02
    2.291856e+01    2.381153e+02    1.542944e-02    2.294420e+06    2.452927e-08    1.337534e-11    1.986736e-08   -3.867970e-02
    2.282310e+01    2.409991e+02    1.729874e-02    2.540680e+06    2.473201e-08    1.385868e-11    2.013282e-08   -3.367970e-02
    2.272211e+01    2.440995e+02    1.938500e-02    2.811766e+06    2.493190e-08    1.435798e-11    2.039444e-08   -2.867970e-02
    2.261442e+01    2.474100e+02    2.171154e-02    3.109733e+06    2.512887e-08    1.487375e-11    2.065212e-08   -2.367970e-02
    2.249886e+01    2.509212e+02    2.430374e-02    3.436695e+06    2.532287e-08    1.540649e-11    2.090579e-08   -1.867970e-02
    2.237424e+01    2.546207e+02    2.718913e-02    3.794794e+06    2.551382e-08    1.595672e-11    2.115540e-08   -1.367970e-02
    2.223943e+01    2.584934e+02    3.039736e-02    4.186183e+06    2.570167e-08    1.652499e-11    2.140089e-08   -8.679700e-03
    2.209332e+01    2.625205e+02    3.396031e-02    4.612976e+06    2.588640e-08    1.711185e-11    2.164221e-08   -3.679700e-03
    2.193495e+01    2.666811e+02    3.791203e-02    5.077232e+06    2.606795e-08    1.771787e-11    2.187932e-08    1.320300e-03
    2.176346e+01    2.709514e+02    4.228871e-02    5.580905e+06    2.624629e-08    1.834366e-11    2.211219e-08    6.320300e-03
    2.157813e+01    2.753051e+02    4.712860e-02    6.125799e+06    2.642140e-08    1.898982e-11    2.234080e-08    1.132030e-02
    2.137846e+01    2.797140e+02    5.247190e-02    6.713543e+06    2.659326e-08    1.965700e-11    2.256514e-08    1.632030e-02
    2.116413e+01    2.841483e+02    5.836055e-02    7.345537e+06    2.676186e-08    2.034586e-11    2.278520e-08    2.132030e-02
    2.093497e+01    2.885768e+02    6.483815e-02    8.022914e+06    2.692719e-08    2.105706e-11    2.300098e-08    2.632030e-02
    2.069110e+01    2.929674e+02    7.194955e-02    8.746511e+06    2.708925e-08    2.179132e-11    2.321247e-08    3.132030e-02
    2.043275e+01    2.972878e+02    7.974075e-02    9.516824e+06    2.724804e-08    2.254936e-11    2.341971e-08    3.632030e-02
    2.016042e+01    3.015057e+02    8.825845e-02    1.033401e+07    2.740357e-08    2.333194e-11    2.362271e-08    4.132030e-02
    1.987472e+01    3.055898e+02    9.754980e-02    1.119782e+07    2.755586e-08    2.413982e-11    2.382147e-08    4.632030e-02
    1.957648e+01    3.095092e+02    1.076619e-01    1.210766e+07    2.770491e-08    2.497383e-11    2.401605e-08    5.132030e-02
    1.926664e+01    3.132357e+02    1.186418e-01    1.306251e+07    2.785075e-08    2.583479e-11    2.420646e-08    5.632030e-02
    1.894625e+01    3.167417e+02    1.305354e-01    1.406100e+07    2.799341e-08    2.672356e-11    2.439275e-08    6.132030e-02
    1.861647e+01    3.200028e+02    1.433882e-01    1.510136e+07    2.813291e-08    2.764105e-11    2.457496e-08    6.632030e-02
    1.827850e+01    3.229970e+02    1.572436e-01    1.618150e+07    2.826928e-08    2.858817e-11    2.475313e-08    7.132030e-02
    1.793361e+01    3.257049e+02    1.721436e-01    1.729901e+07    2.840256e-08    2.956589e-11    2.492731e-08    7.632030e-02
    1.758308e+01    3.281102e+02    1.881280e-01    1.845119e+07    2.853279e-08    3.057518e-11    2.509756e-08    8.132030e-02
    1.722819e+01    3.301997e+02    2.052343e-01    1.963513e+07    2.866000e-08    3.161710e-11    2.526392e-08    8.632030e-02
    1.687020e+01    3.319636e+02    2.234973e-01    2.084769e+07    2.878423e-08    3.269270e-11    2.542647e-08    9.132030e-02
    1.651032e+01    3.333944e+02    2.429489e-01    2.208562e+07    2.890554e-08    3.380307e-11    2.558524e-08    9.632030e-02
    1.614974e+01    3.344885e+02    2.636180e-01    2.334555e+07    2.902396e-08    3.494938e-11    2.574031e-08    1.013203e-01
    1.578956e+01    3.352447e+02    2.855306e-01    2.462409e+07    2.913953e-08    3.613280e-11    2.589174e-08    1.063203e-01
    1.543082e+01    3.356645e+02    3.087091e-01    2.591781e+07    2.925233e-08    3.735456e-11    2.603960e-08    1.113203e-01
    1.507452e+01    3.357523e+02    3.331728e-01    2.722338e+07    2.936238e-08    3.861594e-11    2.618394e-08    1.163203e-01
    1.472149e+01    3.355140e+02    3.589381e-01    2.853746e+07    2.946974e-08    3.991826e-11    2.632484e-08    1.213203e-01
    1.437259e+01    3.349586e+02    3.860177e-01    2.985696e+07    2.957446e-08    4.126289e-11    2.646236e-08    1.263203e-01
    1.402850e+01    3.340958e+02    4.144216e-01    3.117881e+07    2.967661e-08    4.265124e-11    2.659659e-08    1.313203e-01
    1.368988e+01    3.329376e+02    4.441567e-01    3.250022e+07    2.977622e-08    4.408480e-11    2.672756e-08    1.363203e-01
    1.335727e+01    3.314969e+02    4.752271e-01    3.381855e+07    2.987335e-08    4.556511e-11    2.685538e-08    1.413203e-01
    1.303116e+01    3.297876e+02    5.076340e-01    3.513139e+07    2.996806e-08    4.709372e-11    2.698010e-08    1.463203e-01
    1.271194e+01    3.278242e+02    5.413770e-01    3.643652e+07    3.006040e-08    4.867230e-11    2.710178e-08    1.513203e-01
    1.239996e+01    3.256223e+02    5.764520e-01    3.773202e+07    3.015043e-08    5.030255e-11    2.722051e-08    1.563203e-01
    1.209546e+01    3.231970e+02    6.128545e-01    3.901614e+07    3.023819e-08    5.198625e-11    2.733634e-08    1.613203e-01
    1.179867e+01    3.205639e+02    6.505770e-01    4.028738e+07    3.032375e-08    5.372525e-11    2.744935e-08    1.663203e-01
    1.150973e+01    3.177388e+02    6.896110e-01    4.154450e+07    3.040716e-08    5.552145e-11    2.755960e-08    1.713203e-01
    1.122874e+01    3.147371e+02    7.299460e-01    4.278647e+07    3.048846e-08    5.737680e-11    2.766717e-08    1.763203e-01
    1.095575e+01    3.115734e+02    7.715705e-01    4.401238e+07    3.056772e-08    5.929345e-11    2.777212e-08    1.813203e-01
    1.069077e+01    3.082625e+02    8.144730e-01    4.522162e+07    3.064499e-08    6.127340e-11    2.787452e-08    1.863203e-01
    1.043377e+01    3.048185e+02    8.586395e-01    4.641376e+07    3.072032e-08    6.331900e-11    2.797443e-08    1.913203e-01
    1.018470e+01    3.012546e+02    9.040570e-01    4.758843e+07    3.079376e-08    6.543250e-11    2.807191e-08    1.963203e-01
    9.943474e+00    2.975840e+02    9.507100e-01    4.874555e+07    3.086536e-08    6.761630e-11    2.816703e-08    2.013203e-01
    9.709965e+00    2.938183e+02    9.985855e-01    4.988505e+07    3.093518e-08    6.987290e-11    2.825986e-08    2.063203e-01
    9.484063e+00    2.899694e+02    1.047667e+00    5.100710e+07    3.100326e-08    7.220485e-11    2.835045e-08    2.113203e-01
    9.265599e+00    2.860473e+02    1.097942e+00    5.211184e+07    3.106967e-08    7.461485e-11    2.843886e-08    2.163203e-01
    9.054423e+00    2.820625e+02    1.149394e+00    5.319965e+07    3.113442e-08    7.710570e-11    2.852516e-08    2.213203e-01
    8.850357e+00    2.780241e+02    1.202008e+00    5.427092e+07    3.119759e-08    7.968030e-11    2.860940e-08    2.263203e-01
    8.653206e+00    2.739403e+02    1.255771e+00    5.532602e+07    3.125922e-08    8.234170e-11    2.869163e-08    2.313203e-01
    8.462788e+00    2.698192e+02    1.310668e+00    5.636550e+07    3.131936e-08    8.509295e-11    2.877193e-08    2.363203e-01
    8.278902e+00    2.656679e+02    1.366686e+00    5.738990e+07    3.137805e-08    8.793735e-11    2.885033e-08    2.413203e-01
    8.101348e+00    2.614929e+02    1.423810e+00    5.839981e+07    3.143533e-08    9.087825e-11    2.892690e-08    2.463203e-01
