# sky130 nfet_01v8 gm/ID Processed Lookup Table
# Corner: sf
# Temperature: 25C
# W = 2.0 um
# L = 4.86 um (4860 nm)
# Columns: gm/id [1/V]  gm/gds [V/V]  id/W [A/m]  ft [Hz]  Cgg/W [F/m]  Cgd/W [F/m]  Cgs/W [F/m]  Vov [V]
#         gm/id          gm/gds            id/W              ft           Cgg/W           Cgd/W           Cgs/W             Vov
    2.637868e+01    2.200058e+02    1.027460e-07    4.007245e+01    1.076446e-08    3.423468e-13    8.357855e-10   -5.093139e-01
    2.637732e+01    2.199944e+02    1.172313e-07    4.573726e+01    1.076030e-08    3.549969e-13    8.716105e-10   -5.043139e-01
    2.637585e+01    2.199822e+02    1.337580e-07    5.219426e+01    1.075781e-08    3.681575e-13    9.091700e-10   -4.993139e-01
    2.637429e+01    2.199693e+02    1.526134e-07    5.955262e+01    1.075704e-08    3.818510e-13    9.485430e-10   -4.943139e-01
    2.637262e+01    2.199555e+02    1.741253e-07    6.793633e+01    1.075804e-08    3.961007e-13    9.898100e-10   -4.893139e-01
    2.637084e+01    2.199407e+02    1.986678e-07    7.748604e+01    1.076089e-08    4.109307e-13    1.033053e-09   -4.843139e-01
    2.636892e+01    2.199247e+02    2.266673e-07    8.836119e+01    1.076563e-08    4.263666e-13    1.078360e-09   -4.793139e-01
    2.636688e+01    2.199078e+02    2.586104e-07    1.007429e+02    1.077236e-08    4.424347e-13    1.125818e-09   -4.743139e-01
    2.636470e+01    2.198898e+02    2.950521e-07    1.148360e+02    1.078111e-08    4.591625e-13    1.175519e-09   -4.693139e-01
    2.636239e+01    2.198706e+02    3.366250e-07    1.308731e+02    1.079198e-08    4.765789e-13    1.227556e-09   -4.643139e-01
    2.635991e+01    2.198501e+02    3.840511e-07    1.491171e+02    1.080502e-08    4.947139e-13    1.282025e-09   -4.593139e-01
    2.635727e+01    2.198282e+02    4.381532e-07    1.698660e+02    1.082031e-08    5.135985e-13    1.339022e-09   -4.543139e-01
    2.635445e+01    2.198049e+02    4.998699e-07    1.934569e+02    1.083794e-08    5.332655e-13    1.398646e-09   -4.493139e-01
    2.635144e+01    2.197799e+02    5.702715e-07    2.202712e+02    1.085796e-08    5.537490e-13    1.460998e-09   -4.443139e-01
    2.634822e+01    2.197535e+02    6.505785e-07    2.507398e+02    1.088047e-08    5.750835e-13    1.526180e-09   -4.393139e-01
    2.634480e+01    2.197251e+02    7.421820e-07    2.853501e+02    1.090555e-08    5.973065e-13    1.594297e-09   -4.343139e-01
    2.634114e+01    2.196950e+02    8.466685e-07    3.246524e+02    1.093325e-08    6.204560e-13    1.665454e-09   -4.293139e-01
    2.633724e+01    2.196628e+02    9.658470e-07    3.692682e+02    1.096369e-08    6.445720e-13    1.739757e-09   -4.243139e-01
    2.633307e+01    2.196284e+02    1.101779e-06    4.198988e+02    1.099693e-08    6.696960e-13    1.817312e-09   -4.193139e-01
    2.632863e+01    2.195919e+02    1.256815e-06    4.773354e+02    1.103306e-08    6.958700e-13    1.898228e-09   -4.143139e-01
    2.632390e+01    2.195530e+02    1.433633e-06    5.424702e+02    1.107216e-08    7.231400e-13    1.982611e-09   -4.093139e-01
    2.631884e+01    2.195114e+02    1.635288e-06    6.163088e+02    1.111432e-08    7.515520e-13    2.070569e-09   -4.043139e-01
    2.631345e+01    2.194672e+02    1.865259e-06    6.999838e+02    1.115961e-08    7.811535e-13    2.162210e-09   -3.993139e-01
    2.630771e+01    2.194201e+02    2.127511e-06    7.947708e+02    1.120813e-08    8.119960e-13    2.257638e-09   -3.943139e-01
    2.630158e+01    2.193699e+02    2.426564e-06    9.021051e+02    1.125995e-08    8.441305e-13    2.356959e-09   -3.893139e-01
    2.629505e+01    2.193165e+02    2.767565e-06    1.023602e+03    1.131516e-08    8.776110e-13    2.460277e-09   -3.843139e-01
    2.628809e+01    2.192596e+02    3.156380e-06    1.161078e+03    1.137384e-08    9.124940e-13    2.567693e-09   -3.793139e-01
    2.628066e+01    2.191991e+02    3.599690e-06    1.316574e+03    1.143605e-08    9.488370e-13    2.679306e-09   -3.743139e-01
    2.627275e+01    2.191347e+02    4.105107e-06    1.492385e+03    1.150189e-08    9.867000e-13    2.795212e-09   -3.693139e-01
    2.626432e+01    2.190662e+02    4.681294e-06    1.691085e+03    1.157143e-08    1.026146e-12    2.915505e-09   -3.643139e-01
    2.625536e+01    2.189932e+02    5.338120e-06    1.915565e+03    1.164473e-08    1.067239e-12    3.040272e-09   -3.593139e-01
    2.624577e+01    2.189159e+02    6.086830e-06    2.169072e+03    1.172187e-08    1.110044e-12    3.169599e-09   -3.543139e-01
    2.623560e+01    2.188335e+02    6.940200e-06    2.455242e+03    1.180290e-08    1.154633e-12    3.303566e-09   -3.493139e-01
    2.622476e+01    2.187461e+02    7.912800e-06    2.778158e+03    1.188790e-08    1.201076e-12    3.442247e-09   -3.443139e-01
    2.621321e+01    2.186533e+02    9.021200e-06    3.142388e+03    1.197691e-08    1.249447e-12    3.585712e-09   -3.393139e-01
    2.620093e+01    2.185547e+02    1.028424e-05    3.553056e+03    1.206999e-08    1.299822e-12    3.734023e-09   -3.343139e-01
    2.618786e+01    2.184500e+02    1.172338e-05    4.015896e+03    1.216720e-08    1.352279e-12    3.887237e-09   -3.293139e-01
    2.617396e+01    2.183391e+02    1.336301e-05    4.537328e+03    1.226855e-08    1.406902e-12    4.045402e-09   -3.243139e-01
    2.615917e+01    2.182216e+02    1.523086e-05    5.124537e+03    1.237411e-08    1.463773e-12    4.208560e-09   -3.193139e-01
    2.614346e+01    2.180971e+02    1.735847e-05    5.785554e+03    1.248388e-08    1.522978e-12    4.376742e-09   -3.143139e-01
    2.612675e+01    2.179651e+02    1.978168e-05    6.529356e+03    1.259791e-08    1.584608e-12    4.549975e-09   -3.093139e-01
    2.610902e+01    2.178256e+02    2.254123e-05    7.365994e+03    1.271619e-08    1.648756e-12    4.728274e-09   -3.043139e-01
    2.609018e+01    2.176781e+02    2.568340e-05    8.306673e+03    1.283875e-08    1.715515e-12    4.911642e-09   -2.993139e-01
    2.607019e+01    2.175223e+02    2.926072e-05    9.363920e+03    1.296557e-08    1.784985e-12    5.100080e-09   -2.943139e-01
    2.604896e+01    2.173576e+02    3.333288e-05    1.055171e+04    1.309666e-08    1.857266e-12    5.293570e-09   -2.893139e-01
    2.602646e+01    2.171840e+02    3.796761e-05    1.188565e+04    1.323201e-08    1.932463e-12    5.492090e-09   -2.843139e-01
    2.600260e+01    2.170010e+02    4.324177e-05    1.338313e+04    1.337158e-08    2.010682e-12    5.695605e-09   -2.793139e-01
    2.597734e+01    2.168085e+02    4.924251e-05    1.506357e+04    1.351534e-08    2.092034e-12    5.904070e-09   -2.743139e-01
    2.595057e+01    2.166060e+02    5.606870e-05    1.694858e+04    1.366326e-08    2.176633e-12    6.117425e-09   -2.693139e-01
    2.592226e+01    2.163932e+02    6.383235e-05    1.906224e+04    1.381529e-08    2.264594e-12    6.335605e-09   -2.643139e-01
    2.589232e+01    2.161701e+02    7.266045e-05    2.143139e+04    1.397137e-08    2.356040e-12    6.558525e-09   -2.593139e-01
    2.586065e+01    2.159363e+02    8.269680e-05    2.408588e+04    1.413142e-08    2.451094e-12    6.786105e-09   -2.543139e-01
    2.582723e+01    2.156918e+02    9.410405e-05    2.705892e+04    1.429539e-08    2.549882e-12    7.018240e-09   -2.493139e-01
    2.579196e+01    2.154364e+02    1.070665e-04    3.038746e+04    1.446317e-08    2.652535e-12    7.254815e-09   -2.443139e-01
    2.575476e+01    2.151701e+02    1.217923e-04    3.411257e+04    1.463468e-08    2.759189e-12    7.495705e-09   -2.393139e-01
    2.571558e+01    2.148932e+02    1.385171e-04    3.827987e+04    1.480982e-08    2.869980e-12    7.740780e-09   -2.343139e-01
    2.567435e+01    2.146057e+02    1.575070e-04    4.294003e+04    1.498847e-08    2.985052e-12    7.989890e-09   -2.293139e-01
    2.563100e+01    2.143080e+02    1.790623e-04    4.814927e+04    1.517051e-08    3.104550e-12    8.242885e-09   -2.243139e-01
    2.558546e+01    2.140004e+02    2.035224e-04    5.396999e+04    1.535583e-08    3.228624e-12    8.499600e-09   -2.193139e-01
    2.553770e+01    2.136837e+02    2.312699e-04    6.047144e+04    1.554428e-08    3.357429e-12    8.759860e-09   -2.143139e-01
    2.548768e+01    2.133588e+02    2.627360e-04    6.773033e+04    1.573573e-08    3.491122e-12    9.023485e-09   -2.093139e-01
    2.543532e+01    2.130263e+02    2.984069e-04    7.583156e+04    1.593001e-08    3.629866e-12    9.290280e-09   -2.043139e-01
    2.538061e+01    2.126876e+02    3.388301e-04    8.486935e+04    1.612699e-08    3.773828e-12    9.560045e-09   -1.993139e-01
    2.532352e+01    2.123441e+02    3.846217e-04    9.494779e+04    1.632650e-08    3.923180e-12    9.832575e-09   -1.943139e-01
    2.526407e+01    2.119977e+02    4.364746e-04    1.061824e+05    1.652837e-08    4.078098e-12    1.010767e-08   -1.893139e-01
    2.520224e+01    2.116504e+02    4.951678e-04    1.187006e+05    1.673243e-08    4.238764e-12    1.038509e-08   -1.843139e-01
    2.513805e+01    2.113045e+02    5.615770e-04    1.326436e+05    1.693850e-08    4.405362e-12    1.066462e-08   -1.793139e-01
    2.507156e+01    2.109630e+02    6.366840e-04    1.481673e+05    1.714640e-08    4.578083e-12    1.094604e-08   -1.743139e-01
    2.500279e+01    2.106289e+02    7.215925e-04    1.654444e+05    1.735596e-08    4.757126e-12    1.122912e-08   -1.693139e-01
    2.493184e+01    2.103060e+02    8.175385e-04    1.846655e+05    1.756697e-08    4.942691e-12    1.151361e-08   -1.643139e-01
    2.485880e+01    2.099984e+02    9.259085e-04    2.060414e+05    1.777927e-08    5.134985e-12    1.179928e-08   -1.593139e-01
    2.478379e+01    2.097106e+02    1.048256e-03    2.298051e+05    1.799266e-08    5.334220e-12    1.208590e-08   -1.543139e-01
    2.470693e+01    2.094480e+02    1.186319e-03    2.562143e+05    1.820693e-08    5.540615e-12    1.237323e-08   -1.493139e-01
    2.462839e+01    2.092162e+02    1.342044e-03    2.855539e+05    1.842192e-08    5.754395e-12    1.266102e-08   -1.443139e-01
    2.454835e+01    2.090216e+02    1.517610e-03    3.181388e+05    1.863742e-08    5.975795e-12    1.294906e-08   -1.393139e-01
    2.446702e+01    2.088712e+02    1.715449e-03    3.543176e+05    1.885326e-08    6.205045e-12    1.323709e-08   -1.343139e-01
    2.438459e+01    2.087724e+02    1.938287e-03    3.944760e+05    1.906922e-08    6.442395e-12    1.352489e-08   -1.293139e-01
    2.430131e+01    2.087335e+02    2.189164e-03    4.390410e+05    1.928515e-08    6.688095e-12    1.381222e-08   -1.243139e-01
    2.421741e+01    2.087630e+02    2.471479e-03    4.884849e+05    1.950085e-08    6.942400e-12    1.409886e-08   -1.193139e-01
    2.413311e+01    2.088702e+02    2.789028e-03    5.433310e+05    1.971613e-08    7.205575e-12    1.438460e-08   -1.143139e-01
    2.404868e+01    2.090652e+02    3.146050e-03    6.041594e+05    1.993084e-08    7.477900e-12    1.466921e-08   -1.093139e-01
    2.396435e+01    2.093582e+02    3.547276e-03    6.716114e+05    2.014479e-08    7.759655e-12    1.495248e-08   -1.043139e-01
    2.388030e+01    2.097597e+02    3.997989e-03    7.463978e+05    2.035781e-08    8.051120e-12    1.523423e-08   -9.931390e-02
    2.379669e+01    2.102805e+02    4.504080e-03    8.293040e+05    2.056975e-08    8.352605e-12    1.551424e-08   -9.431390e-02
    2.371368e+01    2.109319e+02    5.072120e-03    9.211994e+05    2.078046e-08    8.664410e-12    1.579232e-08   -8.931390e-02
    2.363129e+01    2.117248e+02    5.709445e-03    1.023043e+06    2.098976e-08    8.986845e-12    1.606830e-08   -8.431390e-02
    2.354956e+01    2.126703e+02    6.424210e-03    1.135893e+06    2.119753e-08    9.320250e-12    1.634199e-08   -7.931390e-02
    2.346840e+01    2.137788e+02    7.225510e-03    1.260911e+06    2.140364e-08    9.664945e-12    1.661324e-08   -7.431390e-02
    2.338760e+01    2.150604e+02    8.123475e-03    1.399376e+06    2.160792e-08    1.002129e-11    1.688189e-08   -6.931390e-02
    2.330689e+01    2.165243e+02    9.129345e-03    1.552682e+06    2.181028e-08    1.038962e-11    1.714779e-08   -6.431390e-02
    2.322584e+01    2.181787e+02    1.025563e-02    1.722352e+06    2.201060e-08    1.077032e-11    1.741079e-08   -5.931390e-02
    2.314396e+01    2.200307e+02    1.151616e-02    1.910036e+06    2.220874e-08    1.116376e-11    1.767078e-08   -5.431390e-02
    2.306058e+01    2.220854e+02    1.292629e-02    2.117516e+06    2.240462e-08    1.157033e-11    1.792761e-08   -4.931390e-02
    2.297493e+01    2.243466e+02    1.450296e-02    2.346705e+06    2.259814e-08    1.199044e-11    1.818118e-08   -4.431390e-02
    2.288612e+01    2.268158e+02    1.626486e-02    2.599643e+06    2.278920e-08    1.242448e-11    1.843140e-08   -3.931390e-02
    2.279317e+01    2.294924e+02    1.823254e-02    2.878491e+06    2.297773e-08    1.287290e-11    1.867816e-08   -3.431390e-02
    2.269501e+01    2.323733e+02    2.042849e-02    3.185517e+06    2.316364e-08    1.333615e-11    1.892138e-08   -2.931390e-02
    2.259049e+01    2.354526e+02    2.287735e-02    3.523082e+06    2.334687e-08    1.381465e-11    1.916097e-08   -2.431390e-02
    2.247847e+01    2.387219e+02    2.560590e-02    3.893623e+06    2.352736e-08    1.430890e-11    1.939687e-08   -1.931390e-02
    2.235774e+01    2.421698e+02    2.864323e-02    4.299613e+06    2.370504e-08    1.481938e-11    1.962902e-08   -1.431390e-02
    2.222716e+01    2.457821e+02    3.202074e-02    4.743549e+06    2.387987e-08    1.534658e-11    1.985737e-08   -9.313900e-03
    2.208562e+01    2.495419e+02    3.577219e-02    5.227902e+06    2.405182e-08    1.589102e-11    2.008187e-08   -4.313900e-03
    2.193212e+01    2.534291e+02    3.993369e-02    5.755076e+06    2.422084e-08    1.645324e-11    2.030249e-08    6.861000e-04
    2.176578e+01    2.574217e+02    4.454368e-02    6.327381e+06    2.438690e-08    1.703380e-11    2.051919e-08    5.686100e-03
    2.158584e+01    2.614949e+02    4.964289e-02    6.946966e+06    2.454997e-08    1.763325e-11    2.073196e-08    1.068610e-02
    2.139172e+01    2.656221e+02    5.527415e-02    7.615779e+06    2.471005e-08    1.825221e-11    2.094078e-08    1.568610e-02
    2.118305e+01    2.697749e+02    6.148225e-02    8.335526e+06    2.486711e-08    1.889125e-11    2.114564e-08    2.068610e-02
    2.095965e+01    2.739240e+02    6.831375e-02    9.107621e+06    2.502115e-08    1.955105e-11    2.134654e-08    2.568610e-02
    2.072150e+01    2.780383e+02    7.581680e-02    9.933128e+06    2.517217e-08    2.023221e-11    2.154350e-08    3.068610e-02
    2.046882e+01    2.820875e+02    8.404075e-02    1.081276e+07    2.532016e-08    2.093545e-11    2.173650e-08    3.568610e-02
    2.020202e+01    2.860405e+02    9.303585e-02    1.174679e+07    2.546514e-08    2.166144e-11    2.192558e-08    4.068610e-02
    1.992170e+01    2.898670e+02    1.028529e-01    1.273509e+07    2.560711e-08    2.241091e-11    2.211074e-08    4.568610e-02
    1.962859e+01    2.935378e+02    1.135429e-01    1.377709e+07    2.574610e-08    2.318462e-11    2.229202e-08    5.068610e-02
    1.932359e+01    2.970251e+02    1.251566e-01    1.487174e+07    2.588211e-08    2.398333e-11    2.246945e-08    5.568610e-02
    1.900771e+01    3.003025e+02    1.377442e-01    1.601757e+07    2.601516e-08    2.480784e-11    2.264305e-08    6.068610e-02
    1.868208e+01    3.033465e+02    1.513547e-01    1.721265e+07    2.614530e-08    2.565899e-11    2.281287e-08    6.568610e-02
    1.834789e+01    3.061352e+02    1.660360e-01    1.845468e+07    2.627253e-08    2.653762e-11    2.297894e-08    7.068610e-02
    1.800637e+01    3.086502e+02    1.818338e-01    1.974095e+07    2.639689e-08    2.744464e-11    2.314131e-08    7.568610e-02
    1.765879e+01    3.108754e+02    1.987918e-01    2.106841e+07    2.651842e-08    2.838096e-11    2.330004e-08    8.068610e-02
    1.730642e+01    3.127978e+02    2.169513e-01    2.243374e+07    2.663715e-08    2.934753e-11    2.345516e-08    8.568610e-02
    1.695052e+01    3.144076e+02    2.363506e-01    2.383337e+07    2.675313e-08    3.034536e-11    2.360673e-08    9.068610e-02
    1.659233e+01    3.156976e+02    2.570252e-01    2.526354e+07    2.686638e-08    3.137544e-11    2.375481e-08    9.568610e-02
    1.623303e+01    3.166640e+02    2.790073e-01    2.672036e+07    2.697696e-08    3.243886e-11    2.389944e-08    1.006861e-01
    1.587374e+01    3.173056e+02    3.023257e-01    2.819988e+07    2.708489e-08    3.353671e-11    2.404069e-08    1.056861e-01
    1.551553e+01    3.176238e+02    3.270056e-01    2.969812e+07    2.719024e-08    3.467014e-11    2.417863e-08    1.106861e-01
    1.515939e+01    3.176225e+02    3.530689e-01    3.121113e+07    2.729303e-08    3.584032e-11    2.431329e-08    1.156861e-01
    1.480621e+01    3.173077e+02    3.805342e-01    3.273505e+07    2.739333e-08    3.704847e-11    2.444476e-08    1.206861e-01
    1.445685e+01    3.166880e+02    4.094161e-01    3.426614e+07    2.749118e-08    3.829588e-11    2.457308e-08    1.256861e-01
    1.411202e+01    3.157729e+02    4.397261e-01    3.580084e+07    2.758662e-08    3.958386e-11    2.469834e-08    1.306861e-01
    1.377242e+01    3.145742e+02    4.714726e-01    3.733579e+07    2.767971e-08    4.091377e-11    2.482058e-08    1.356861e-01
    1.343861e+01    3.131041e+02    5.046605e-01    3.886782e+07    2.777049e-08    4.228705e-11    2.493987e-08    1.406861e-01
    1.311110e+01    3.113767e+02    5.392920e-01    4.039404e+07    2.785902e-08    4.370515e-11    2.505627e-08    1.456861e-01
    1.279030e+01    3.094059e+02    5.753670e-01    4.191180e+07    2.794534e-08    4.516961e-11    2.516985e-08    1.506861e-01
    1.247659e+01    3.072070e+02    6.128820e-01    4.341875e+07    2.802951e-08    4.668201e-11    2.528069e-08    1.556861e-01
    1.217025e+01    3.047951e+02    6.518315e-01    4.491277e+07    2.811157e-08    4.824398e-11    2.538882e-08    1.606861e-01
    1.187150e+01    3.021856e+02    6.922085e-01    4.639205e+07    2.819157e-08    4.985726e-11    2.549433e-08    1.656861e-01
    1.158052e+01    2.993937e+02    7.340040e-01    4.785500e+07    2.826957e-08    5.152360e-11    2.559727e-08    1.706861e-01
    1.129742e+01    2.964342e+02    7.772060e-01    4.930031e+07    2.834561e-08    5.324485e-11    2.569771e-08    1.756861e-01
    1.102227e+01    2.933225e+02    8.218035e-01    5.072699e+07    2.841974e-08    5.502290e-11    2.579570e-08    1.806861e-01
    1.075509e+01    2.900725e+02    8.677830e-01    5.213414e+07    2.849201e-08    5.685980e-11    2.589132e-08    1.856861e-01
    1.049588e+01    2.866981e+02    9.151295e-01    5.352117e+07    2.856249e-08    5.875750e-11    2.598461e-08    1.906861e-01
    1.024458e+01    2.832126e+02    9.638290e-01    5.488769e+07    2.863119e-08    6.071820e-11    2.607565e-08    1.956861e-01
    1.000113e+01    2.796285e+02    1.013864e+00    5.623347e+07    2.869818e-08    6.274415e-11    2.616448e-08    2.006861e-01
    9.765424e+00    2.759579e+02    1.065222e+00    5.755848e+07    2.876351e-08    6.483765e-11    2.625117e-08    2.056861e-01
    9.537335e+00    2.722117e+02    1.117883e+00    5.886276e+07    2.882721e-08    6.700105e-11    2.633577e-08    2.106861e-01
    9.316719e+00    2.684006e+02    1.171832e+00    6.014655e+07    2.888935e-08    6.923685e-11    2.641834e-08    2.156861e-01
    9.103421e+00    2.645342e+02    1.227054e+00    6.141018e+07    2.894996e-08    7.154765e-11    2.649894e-08    2.206861e-01
    8.897272e+00    2.606217e+02    1.283531e+00    6.265407e+07    2.900907e-08    7.393620e-11    2.657761e-08    2.256861e-01
    8.698089e+00    2.566712e+02    1.341247e+00    6.387874e+07    2.906676e-08    7.640520e-11    2.665442e-08    2.306861e-01
    8.505687e+00    2.526907e+02    1.400189e+00    6.508476e+07    2.912304e-08    7.895760e-11    2.672941e-08    2.356861e-01
    8.319868e+00    2.486868e+02    1.460338e+00    6.627274e+07    2.917797e-08    8.159645e-11    2.680263e-08    2.406861e-01
    8.140435e+00    2.446661e+02    1.521682e+00    6.744335e+07    2.923159e-08    8.432480e-11    2.687414e-08    2.456861e-01
