# sky130 nfet_01v8 gm/ID Processed Lookup Table
# Corner: sf
# Temperature: 25C
# W = 2.0 um
# L = 5.04 um (5040 nm)
# Columns: gm/id [1/V]  gm/gds [V/V]  id/W [A/m]  ft [Hz]  Cgg/W [F/m]  Cgd/W [F/m]  Cgs/W [F/m]  Vov [V]
#         gm/id          gm/gds            id/W              ft           Cgg/W           Cgd/W           Cgs/W             Vov
    2.642149e+01    2.251970e+02    9.834590e-08    3.705144e+01    1.116166e-08    3.539013e-13    8.653875e-10   -5.089853e-01
    2.642011e+01    2.251854e+02    1.122350e-07    4.229827e+01    1.115734e-08    3.669951e-13    9.025180e-10   -5.039853e-01
    2.641864e+01    2.251729e+02    1.280847e-07    4.828015e+01    1.115473e-08    3.806180e-13    9.414490e-10   -4.989853e-01
    2.641708e+01    2.251596e+02    1.461716e-07    5.509854e+01    1.115393e-08    3.947932e-13    9.822635e-10   -4.939853e-01
    2.641540e+01    2.251454e+02    1.668112e-07    6.286866e+01    1.115497e-08    4.095450e-13    1.025044e-09   -4.889853e-01
    2.641361e+01    2.251302e+02    1.903634e-07    7.172136e+01    1.115791e-08    4.248984e-13    1.069878e-09   -4.839853e-01
    2.641169e+01    2.251139e+02    2.172390e-07    8.180500e+01    1.116283e-08    4.408797e-13    1.116855e-09   -4.789853e-01
    2.640965e+01    2.250966e+02    2.479065e-07    9.328791e+01    1.116980e-08    4.575166e-13    1.166068e-09   -4.739853e-01
    2.640747e+01    2.250781e+02    2.829002e-07    1.063608e+02    1.117889e-08    4.748375e-13    1.217610e-09   -4.689853e-01
    2.640513e+01    2.250583e+02    3.228301e-07    1.212401e+02    1.119016e-08    4.928723e-13    1.271580e-09   -4.639853e-01
    2.640265e+01    2.250373e+02    3.683913e-07    1.381706e+02    1.120369e-08    5.116520e-13    1.328076e-09   -4.589853e-01
    2.640000e+01    2.250149e+02    4.203771e-07    1.574297e+02    1.121957e-08    5.312095e-13    1.387199e-09   -4.539853e-01
    2.639716e+01    2.249909e+02    4.796925e-07    1.793314e+02    1.123787e-08    5.515785e-13    1.449053e-09   -4.489853e-01
    2.639414e+01    2.249654e+02    5.473690e-07    2.042307e+02    1.125867e-08    5.727935e-13    1.513743e-09   -4.439853e-01
    2.639092e+01    2.249382e+02    6.245840e-07    2.325295e+02    1.128204e-08    5.948920e-13    1.581376e-09   -4.389853e-01
    2.638746e+01    2.249090e+02    7.126800e-07    2.646816e+02    1.130807e-08    6.179120e-13    1.652060e-09   -4.339853e-01
    2.638379e+01    2.248780e+02    8.131865e-07    3.012000e+02    1.133685e-08    6.418930e-13    1.725904e-09   -4.289853e-01
    2.637988e+01    2.248451e+02    9.278495e-07    3.426642e+02    1.136846e-08    6.668765e-13    1.803019e-09   -4.239853e-01
    2.637569e+01    2.248098e+02    1.058659e-06    3.897279e+02    1.140299e-08    6.929055e-13    1.883517e-09   -4.189853e-01
    2.637122e+01    2.247723e+02    1.207885e-06    4.431290e+02    1.144052e-08    7.200250e-13    1.967510e-09   -4.139853e-01
    2.636646e+01    2.247322e+02    1.378113e-06    5.036998e+02    1.148114e-08    7.482810e-13    2.055110e-09   -4.089853e-01
    2.636138e+01    2.246895e+02    1.572293e-06    5.723781e+02    1.152494e-08    7.777215e-13    2.146428e-09   -4.039853e-01
    2.635596e+01    2.246441e+02    1.793786e-06    6.502213e+02    1.157200e-08    8.083975e-13    2.241576e-09   -3.989853e-01
    2.635018e+01    2.245957e+02    2.046424e-06    7.384193e+02    1.162241e-08    8.403605e-13    2.340666e-09   -3.939853e-01
    2.634403e+01    2.245442e+02    2.334574e-06    8.383125e+02    1.167627e-08    8.736650e-13    2.443806e-09   -3.889853e-01
    2.633745e+01    2.244892e+02    2.663214e-06    9.514086e+02    1.173364e-08    9.083665e-13    2.551105e-09   -3.839853e-01
    2.633046e+01    2.244309e+02    3.038012e-06    1.079404e+03    1.179462e-08    9.445235e-13    2.662668e-09   -3.789853e-01
    2.632298e+01    2.243685e+02    3.465432e-06    1.224205e+03    1.185929e-08    9.821960e-13    2.778599e-09   -3.739853e-01
    2.631503e+01    2.243023e+02    3.952833e-06    1.387954e+03    1.192772e-08    1.021447e-12    2.898998e-09   -3.689853e-01
    2.630655e+01    2.242320e+02    4.508600e-06    1.573058e+03    1.199999e-08    1.062340e-12    3.023961e-09   -3.639853e-01
    2.629751e+01    2.241571e+02    5.142285e-06    1.782219e+03    1.207619e-08    1.104944e-12    3.153582e-09   -3.589853e-01
    2.628790e+01    2.240774e+02    5.864755e-06    2.018468e+03    1.215638e-08    1.149327e-12    3.287949e-09   -3.539853e-01
    2.627766e+01    2.239928e+02    6.688400e-06    2.285207e+03    1.224062e-08    1.195561e-12    3.427147e-09   -3.489853e-01
    2.626673e+01    2.239029e+02    7.627320e-06    2.586252e+03    1.232898e-08    1.243719e-12    3.571252e-09   -3.439853e-01
    2.625512e+01    2.238074e+02    8.697550e-06    2.925875e+03    1.242154e-08    1.293880e-12    3.720336e-09   -3.389853e-01
    2.624275e+01    2.237060e+02    9.917355e-06    3.308869e+03    1.251832e-08    1.346122e-12    3.874465e-09   -3.339853e-01
    2.622960e+01    2.235984e+02    1.130751e-05    3.740597e+03    1.261938e-08    1.400528e-12    4.033699e-09   -3.289853e-01
    2.621560e+01    2.234843e+02    1.289166e-05    4.227064e+03    1.272478e-08    1.457180e-12    4.198087e-09   -3.239853e-01
    2.620072e+01    2.233634e+02    1.469669e-05    4.774993e+03    1.283453e-08    1.516169e-12    4.367672e-09   -3.189853e-01
    2.618490e+01    2.232353e+02    1.675315e-05    5.391900e+03    1.294868e-08    1.577583e-12    4.542490e-09   -3.139853e-01
    2.616808e+01    2.230996e+02    1.909581e-05    6.086194e+03    1.306726e-08    1.641515e-12    4.722565e-09   -3.089853e-01
    2.615022e+01    2.229561e+02    2.176418e-05    6.867274e+03    1.319026e-08    1.708062e-12    4.907913e-09   -3.039853e-01
    2.613123e+01    2.228041e+02    2.480312e-05    7.745627e+03    1.331772e-08    1.777322e-12    5.098540e-09   -2.989853e-01
    2.611108e+01    2.226437e+02    2.826363e-05    8.732996e+03    1.344961e-08    1.849398e-12    5.294445e-09   -2.939853e-01
    2.608972e+01    2.224745e+02    3.220361e-05    9.842472e+03    1.358595e-08    1.924394e-12    5.495605e-09   -2.889853e-01
    2.606705e+01    2.222958e+02    3.668878e-05    1.108865e+04    1.372671e-08    2.002419e-12    5.702005e-09   -2.839853e-01
    2.604300e+01    2.221075e+02    4.179374e-05    1.248785e+04    1.387187e-08    2.083585e-12    5.913605e-09   -2.789853e-01
    2.601754e+01    2.219092e+02    4.760313e-05    1.405824e+04    1.402139e-08    2.168005e-12    6.130355e-09   -2.739853e-01
    2.599057e+01    2.217009e+02    5.421295e-05    1.582008e+04    1.417524e-08    2.255798e-12    6.352195e-09   -2.689853e-01
    2.596204e+01    2.214819e+02    6.173195e-05    1.779595e+04    1.433335e-08    2.347086e-12    6.579055e-09   -2.639853e-01
    2.593185e+01    2.212522e+02    7.028350e-05    2.001099e+04    1.449568e-08    2.441994e-12    6.810855e-09   -2.589853e-01
    2.589995e+01    2.210116e+02    8.000725e-05    2.249318e+04    1.466215e-08    2.540650e-12    7.047500e-09   -2.539853e-01
    2.586626e+01    2.207599e+02    9.106135e-05    2.527366e+04    1.483269e-08    2.643187e-12    7.288880e-09   -2.489853e-01
    2.583071e+01    2.204971e+02    1.036248e-04    2.838708e+04    1.500719e-08    2.749741e-12    7.534880e-09   -2.439853e-01
    2.579321e+01    2.202232e+02    1.179001e-04    3.187195e+04    1.518557e-08    2.860450e-12    7.785370e-09   -2.389853e-01
    2.575372e+01    2.199383e+02    1.341161e-04    3.577104e+04    1.536772e-08    2.975460e-12    8.040210e-09   -2.339853e-01
    2.571216e+01    2.196425e+02    1.525315e-04    4.013187e+04    1.555353e-08    3.094918e-12    8.299250e-09   -2.289853e-01
    2.566846e+01    2.193363e+02    1.734386e-04    4.500721e+04    1.574286e-08    3.218976e-12    8.562325e-09   -2.239853e-01
    2.562257e+01    2.190202e+02    1.971672e-04    5.045561e+04    1.593559e-08    3.347788e-12    8.829270e-09   -2.189853e-01
    2.557440e+01    2.186944e+02    2.240895e-04    5.654191e+04    1.613157e-08    3.481517e-12    9.099895e-09   -2.139853e-01
    2.552395e+01    2.183601e+02    2.546252e-04    6.333818e+04    1.633066e-08    3.620325e-12    9.374015e-09   -2.089853e-01
    2.547118e+01    2.180186e+02    2.892471e-04    7.092418e+04    1.653270e-08    3.764383e-12    9.651430e-09   -2.039853e-01
    2.541603e+01    2.176706e+02    3.284880e-04    7.938815e+04    1.673754e-08    3.913864e-12    9.931925e-09   -1.989853e-01
    2.535849e+01    2.173179e+02    3.729475e-04    8.882795e+04    1.694500e-08    4.068946e-12    1.021530e-08   -1.939853e-01
    2.529856e+01    2.169623e+02    4.233000e-04    9.935183e+04    1.715490e-08    4.229812e-12    1.050131e-08   -1.889853e-01
    2.523623e+01    2.166059e+02    4.803040e-04    1.110795e+05    1.736708e-08    4.396651e-12    1.078975e-08   -1.839853e-01
    2.517153e+01    2.162513e+02    5.448115e-04    1.241435e+05    1.758134e-08    4.569655e-12    1.108038e-08   -1.789853e-01
    2.510452e+01    2.159015e+02    6.177790e-04    1.386903e+05    1.779750e-08    4.749024e-12    1.137295e-08   -1.739853e-01
    2.503523e+01    2.155596e+02    7.002805e-04    1.548819e+05    1.801537e-08    4.934961e-12    1.166723e-08   -1.689853e-01
    2.496373e+01    2.152297e+02    7.935205e-04    1.728973e+05    1.823474e-08    5.127675e-12    1.196298e-08   -1.639853e-01
    2.489014e+01    2.149158e+02    8.988490e-04    1.929345e+05    1.845543e-08    5.327385e-12    1.225995e-08   -1.589853e-01
    2.481457e+01    2.146230e+02    1.017778e-03    2.152124e+05    1.867725e-08    5.534305e-12    1.255789e-08   -1.539853e-01
    2.473716e+01    2.143564e+02    1.152003e-03    2.399730e+05    1.889997e-08    5.748670e-12    1.285654e-08   -1.489853e-01
    2.465806e+01    2.141222e+02    1.303419e-03    2.674837e+05    1.912343e-08    5.970710e-12    1.315568e-08   -1.439853e-01
    2.457747e+01    2.139270e+02    1.474148e-03    2.980408e+05    1.934741e-08    6.200665e-12    1.345503e-08   -1.389853e-01
    2.449558e+01    2.137779e+02    1.666563e-03    3.319715e+05    1.957171e-08    6.438780e-12    1.375438e-08   -1.339853e-01
    2.441261e+01    2.136828e+02    1.883317e-03    3.696383e+05    1.979615e-08    6.685310e-12    1.405346e-08   -1.289853e-01
    2.432878e+01    2.136499e+02    2.127374e-03    4.114423e+05    2.002052e-08    6.940520e-12    1.435205e-08   -1.239853e-01
    2.424437e+01    2.136889e+02    2.402047e-03    4.578281e+05    2.024463e-08    7.204670e-12    1.464991e-08   -1.189853e-01
    2.415956e+01    2.138086e+02    2.711037e-03    5.092868e+05    2.046832e-08    7.478045e-12    1.494680e-08   -1.139853e-01
    2.407464e+01    2.140198e+02    3.058476e-03    5.663640e+05    2.069138e-08    7.760920e-12    1.524251e-08   -1.089853e-01
    2.398981e+01    2.143329e+02    3.448977e-03    6.296623e+05    2.091364e-08    8.053595e-12    1.553681e-08   -1.039853e-01
    2.390527e+01    2.147588e+02    3.887691e-03    6.998501e+05    2.113491e-08    8.356365e-12    1.582950e-08   -9.898530e-02
    2.382121e+01    2.153090e+02    4.380361e-03    7.776659e+05    2.135506e-08    8.669545e-12    1.612036e-08   -9.398530e-02
    2.373771e+01    2.159947e+02    4.933399e-03    8.639262e+05    2.157390e-08    8.993450e-12    1.640922e-08   -8.898530e-02
    2.365487e+01    2.168275e+02    5.553950e-03    9.595333e+05    2.179127e-08    9.328405e-12    1.669586e-08   -8.398530e-02
    2.357264e+01    2.178186e+02    6.249980e-03    1.065480e+06    2.200703e-08    9.674750e-12    1.698012e-08   -7.898530e-02
    2.349096e+01    2.189788e+02    7.030350e-03    1.182860e+06    2.222103e-08    1.003283e-11    1.726181e-08   -7.398530e-02
    2.340960e+01    2.203184e+02    7.904940e-03    1.312872e+06    2.243315e-08    1.040301e-11    1.754079e-08   -6.898530e-02
    2.332826e+01    2.218468e+02    8.884720e-03    1.456826e+06    2.264324e-08    1.078567e-11    1.781688e-08   -6.398530e-02
    2.324655e+01    2.235725e+02    9.981865e-03    1.616150e+06    2.285119e-08    1.118116e-11    1.808996e-08   -5.898530e-02
    2.316389e+01    2.255025e+02    1.120989e-02    1.792391e+06    2.305687e-08    1.158989e-11    1.835988e-08   -5.398530e-02
    2.307963e+01    2.276423e+02    1.258375e-02    1.987221e+06    2.326018e-08    1.201227e-11    1.862651e-08   -4.898530e-02
    2.299299e+01    2.299954e+02    1.411996e-02    2.202429e+06    2.346103e-08    1.244871e-11    1.888974e-08   -4.398530e-02
    2.290305e+01    2.325632e+02    1.583671e-02    2.439924e+06    2.365931e-08    1.289964e-11    1.914946e-08   -3.898530e-02
    2.280881e+01    2.353451e+02    1.775402e-02    2.701727e+06    2.385493e-08    1.336550e-11    1.940558e-08   -3.398530e-02
    2.270920e+01    2.383374e+02    1.989384e-02    2.989953e+06    2.404784e-08    1.384676e-11    1.965799e-08   -2.898530e-02
    2.260305e+01    2.415341e+02    2.228009e-02    3.306803e+06    2.423795e-08    1.434388e-11    1.990663e-08   -2.398530e-02
    2.248922e+01    2.449263e+02    2.493887e-02    3.654544e+06    2.442519e-08    1.485736e-11    2.015143e-08   -1.898530e-02
    2.236648e+01    2.485021e+02    2.789844e-02    4.035477e+06    2.460951e-08    1.538771e-11    2.039231e-08   -1.398530e-02
    2.223372e+01    2.522466e+02    3.118932e-02    4.451912e+06    2.479086e-08    1.593542e-11    2.062923e-08   -8.985300e-03
    2.208983e+01    2.561422e+02    3.484430e-02    4.906137e+06    2.496919e-08    1.650106e-11    2.086214e-08   -3.985300e-03
    2.193382e+01    2.601684e+02    3.889843e-02    5.400375e+06    2.514447e-08    1.708516e-11    2.109100e-08    1.014700e-03
    2.176481e+01    2.643021e+02    4.338900e-02    5.936740e+06    2.531667e-08    1.768831e-11    2.131579e-08    6.014700e-03
    2.158209e+01    2.685179e+02    4.835546e-02    6.517206e+06    2.548577e-08    1.831111e-11    2.153649e-08    1.101470e-02
    2.138512e+01    2.727883e+02    5.383925e-02    7.143550e+06    2.565174e-08    1.895416e-11    2.175307e-08    1.601470e-02
    2.117351e+01    2.770843e+02    5.988380e-02    7.817312e+06    2.581458e-08    1.961809e-11    2.196553e-08    2.101470e-02
    2.094713e+01    2.813753e+02    6.653405e-02    8.539756e+06    2.597426e-08    2.030357e-11    2.217387e-08    2.601470e-02
    2.070601e+01    2.856302e+02    7.383645e-02    9.311823e+06    2.613080e-08    2.101126e-11    2.237810e-08    3.101470e-02
    2.045040e+01    2.898171e+02    8.183865e-02    1.013411e+07    2.628420e-08    2.174187e-11    2.257822e-08    3.601470e-02
    2.018072e+01    2.939048e+02    9.058905e-02    1.100683e+07    2.643445e-08    2.249614e-11    2.277426e-08    4.101470e-02
    1.989761e+01    2.978622e+02    1.001365e-01    1.192979e+07    2.658158e-08    2.327479e-11    2.296622e-08    4.601470e-02
    1.960183e+01    3.016592e+02    1.105302e-01    1.290239e+07    2.672560e-08    2.407862e-11    2.315415e-08    5.101470e-02
    1.929431e+01    3.052678e+02    1.218186e-01    1.392360e+07    2.686653e-08    2.490843e-11    2.333807e-08    5.601470e-02
    1.897608e+01    3.086614e+02    1.340501e-01    1.499199e+07    2.700439e-08    2.576505e-11    2.351802e-08    6.101470e-02
    1.864828e+01    3.118155e+02    1.472716e-01    1.610574e+07    2.713921e-08    2.664933e-11    2.369404e-08    6.601470e-02
    1.831212e+01    3.147083e+02    1.615286e-01    1.726263e+07    2.727101e-08    2.756218e-11    2.386616e-08    7.101470e-02
    1.796884e+01    3.173211e+02    1.768651e-01    1.846011e+07    2.739983e-08    2.850451e-11    2.403444e-08    7.601470e-02
    1.761971e+01    3.196374e+02    1.933227e-01    1.969533e+07    2.752571e-08    2.947729e-11    2.419893e-08    8.101470e-02
    1.726602e+01    3.216444e+02    2.109407e-01    2.096515e+07    2.764869e-08    3.048150e-11    2.435967e-08    8.601470e-02
    1.690901e+01    3.233319e+02    2.297554e-01    2.226626e+07    2.776879e-08    3.151817e-11    2.451673e-08    9.101470e-02
    1.654993e+01    3.246930e+02    2.498008e-01    2.359515e+07    2.788606e-08    3.258837e-11    2.467016e-08    9.601470e-02
    1.618994e+01    3.257238e+02    2.711070e-01    2.494820e+07    2.800057e-08    3.369320e-11    2.482001e-08    1.010147e-01
    1.583018e+01    3.264228e+02    2.937013e-01    2.632176e+07    2.811233e-08    3.483379e-11    2.496635e-08    1.060147e-01
    1.547168e+01    3.267920e+02    3.176078e-01    2.771215e+07    2.822140e-08    3.601134e-11    2.510925e-08    1.110147e-01
    1.511542e+01    3.268350e+02    3.428468e-01    2.911571e+07    2.832782e-08    3.722708e-11    2.524875e-08    1.160147e-01
    1.476233e+01    3.265586e+02    3.694357e-01    3.052894e+07    2.843165e-08    3.848227e-11    2.538494e-08    1.210147e-01
    1.441317e+01    3.259705e+02    3.973882e-01    3.194833e+07    2.853294e-08    3.977823e-11    2.551787e-08    1.260147e-01
    1.406872e+01    3.250812e+02    4.267150e-01    3.337068e+07    2.863173e-08    4.111635e-11    2.564760e-08    1.310147e-01
    1.372962e+01    3.239021e+02    4.574236e-01    3.479289e+07    2.872808e-08    4.249804e-11    2.577421e-08    1.360147e-01
    1.339642e+01    3.224461e+02    4.895185e-01    3.621206e+07    2.882204e-08    4.392477e-11    2.589777e-08    1.410147e-01
    1.306962e+01    3.207266e+02    5.230015e-01    3.762555e+07    2.891366e-08    4.539807e-11    2.601833e-08    1.460147e-01
    1.274964e+01    3.187587e+02    5.578720e-01    3.903100e+07    2.900299e-08    4.691953e-11    2.613596e-08    1.510147e-01
    1.243680e+01    3.165571e+02    5.941270e-01    4.042622e+07    2.909009e-08    4.849079e-11    2.625074e-08    1.560147e-01
    1.213142e+01    3.141373e+02    6.317605e-01    4.180934e+07    2.917500e-08    5.011360e-11    2.636273e-08    1.610147e-01
    1.183368e+01    3.115147e+02    6.707655e-01    4.317868e+07    2.925778e-08    5.178965e-11    2.647198e-08    1.660147e-01
    1.154375e+01    3.087046e+02    7.111335e-01    4.453285e+07    2.933848e-08    5.352085e-11    2.657858e-08    1.710147e-01
    1.126173e+01    3.057226e+02    7.528535e-01    4.587068e+07    2.941715e-08    5.530910e-11    2.668259e-08    1.760147e-01
    1.098771e+01    3.025834e+02    7.959135e-01    4.719127e+07    2.949385e-08    5.715635e-11    2.678406e-08    1.810147e-01
    1.072166e+01    2.993013e+02    8.403015e-01    4.849381e+07    2.956863e-08    5.906470e-11    2.688307e-08    1.860147e-01
    1.046359e+01    2.958903e+02    8.860035e-01    4.977782e+07    2.964152e-08    6.103625e-11    2.697966e-08    1.910147e-01
    1.021346e+01    2.923640e+02    9.330045e-01    5.104298e+07    2.971260e-08    6.307325e-11    2.707393e-08    1.960147e-01
    9.971150e+00    2.887347e+02    9.812905e-01    5.228904e+07    2.978190e-08    6.517805e-11    2.716591e-08    2.010147e-01
    9.736585e+00    2.850147e+02    1.030846e+00    5.351601e+07    2.984947e-08    6.735300e-11    2.725566e-08    2.060147e-01
    9.509626e+00    2.812151e+02    1.081655e+00    5.472400e+07    2.991537e-08    6.960055e-11    2.734326e-08    2.110147e-01
    9.290131e+00    2.773467e+02    1.133702e+00    5.591321e+07    2.997963e-08    7.192335e-11    2.742875e-08    2.160147e-01
    9.077935e+00    2.734191e+02    1.186972e+00    5.708396e+07    3.004231e-08    7.432410e-11    2.751220e-08    2.210147e-01
    8.872865e+00    2.694416e+02    1.241449e+00    5.823667e+07    3.010346e-08    7.680555e-11    2.759366e-08    2.260147e-01
    8.674739e+00    2.654224e+02    1.297119e+00    5.937178e+07    3.016312e-08    7.937060e-11    2.767318e-08    2.310147e-01
    8.483370e+00    2.613696e+02    1.353966e+00    6.048987e+07    3.022132e-08    8.202235e-11    2.775082e-08    2.360147e-01
    8.298554e+00    2.572899e+02    1.411976e+00    6.159147e+07    3.027814e-08    8.476380e-11    2.782663e-08    2.410147e-01
    8.120097e+00    2.531901e+02    1.471135e+00    6.267727e+07    3.033358e-08    8.759835e-11    2.790067e-08    2.460147e-01
