# sky130 nfet_01v8 gm/ID Processed Lookup Table
# Corner: sf
# Temperature: 25C
# W = 2.0 um
# L = 1.08 um (1080 nm)
# Columns: gm/id [1/V]  gm/gds [V/V]  id/W [A/m]  ft [Hz]  Cgg/W [F/m]  Cgd/W [F/m]  Cgs/W [F/m]  Vov [V]
#         gm/id          gm/gds            id/W              ft           Cgg/W           Cgd/W           Cgs/W             Vov
    2.868893e+01    1.596820e+02    7.179570e-08    1.468463e+02    2.232389e-09    3.273265e-14    8.269320e-11   -5.694191e-01
    2.868821e+01    1.596780e+02    8.286955e-08    1.698993e+02    2.227035e-09    3.395394e-14    8.585490e-11   -5.644191e-01
    2.868744e+01    1.596737e+02    9.565105e-08    1.965522e+02    2.221896e-09    3.522406e-14    8.917970e-11   -5.594191e-01
    2.868660e+01    1.596691e+02    1.104035e-07    2.273634e+02    2.216978e-09    3.654524e-14    9.267720e-11   -5.544191e-01
    2.868571e+01    1.596641e+02    1.274307e-07    2.629770e+02    2.212290e-09    3.791981e-14    9.635760e-11   -5.494191e-01
    2.868475e+01    1.596588e+02    1.470833e-07    3.041356e+02    2.207839e-09    3.935021e-14    1.002317e-10   -5.444191e-01
    2.868372e+01    1.596531e+02    1.697658e-07    3.516960e+02    2.203630e-09    4.083903e-14    1.043108e-10   -5.394191e-01
    2.868261e+01    1.596469e+02    1.959454e-07    4.066453e+02    2.199673e-09    4.238897e-14    1.086067e-10   -5.344191e-01
    2.868143e+01    1.596403e+02    2.261608e-07    4.701219e+02    2.195977e-09    4.400288e-14    1.131323e-10   -5.294191e-01
    2.868014e+01    1.596332e+02    2.610339e-07    5.434365e+02    2.192550e-09    4.568372e-14    1.179007e-10   -5.244191e-01
    2.867879e+01    1.596257e+02    3.012823e-07    6.280995e+02    2.189405e-09    4.743466e-14    1.229257e-10   -5.194191e-01
    2.867731e+01    1.596174e+02    3.477340e-07    7.258495e+02    2.186548e-09    4.925898e-14    1.282221e-10   -5.144191e-01
    2.867573e+01    1.596086e+02    4.013446e-07    8.386884e+02    2.183994e-09    5.116015e-14    1.338051e-10   -5.094191e-01
    2.867403e+01    1.595992e+02    4.632167e-07    9.689193e+02    2.181753e-09    5.314175e-14    1.396908e-10   -5.044191e-01
    2.867220e+01    1.595891e+02    5.346225e-07    1.119192e+03    2.179837e-09    5.520770e-14    1.458961e-10   -4.994191e-01
    2.867026e+01    1.595782e+02    6.170295e-07    1.292553e+03    2.178258e-09    5.736190e-14    1.524386e-10   -4.944191e-01
    2.866815e+01    1.595666e+02    7.121320e-07    1.492503e+03    2.177033e-09    5.960865e-14    1.593365e-10   -4.894191e-01
    2.866590e+01    1.595541e+02    8.218830e-07    1.723067e+03    2.176174e-09    6.195230e-14    1.666091e-10   -4.844191e-01
    2.866346e+01    1.595406e+02    9.485380e-07    1.988865e+03    2.175696e-09    6.439750e-14    1.742764e-10   -4.794191e-01
    2.866087e+01    1.595261e+02    1.094697e-06    2.295204e+03    2.175614e-09    6.694915e-14    1.823593e-10   -4.744191e-01
    2.865807e+01    1.595106e+02    1.263360e-06    2.648170e+03    2.175947e-09    6.961230e-14    1.908788e-10   -4.694191e-01
    2.865506e+01    1.594939e+02    1.457989e-06    3.054747e+03    2.176709e-09    7.239230e-14    1.998576e-10   -4.644191e-01
    2.865183e+01    1.594760e+02    1.682575e-06    3.522938e+03    2.177919e-09    7.529475e-14    2.093191e-10   -4.594191e-01
    2.864838e+01    1.594569e+02    1.941723e-06    4.061922e+03    2.179595e-09    7.832555e-14    2.192874e-10   -4.544191e-01
    2.864465e+01    1.594362e+02    2.240745e-06    4.682197e+03    2.181757e-09    8.149090e-14    2.297871e-10   -4.494191e-01
    2.864065e+01    1.594140e+02    2.585766e-06    5.395792e+03    2.184424e-09    8.479715e-14    2.408439e-10   -4.444191e-01
    2.863636e+01    1.593903e+02    2.983850e-06    6.216470e+03    2.187616e-09    8.825105e-14    2.524841e-10   -4.394191e-01
    2.863176e+01    1.593648e+02    3.443143e-06    7.159960e+03    2.191355e-09    9.185975e-14    2.647346e-10   -4.344191e-01
    2.862683e+01    1.593375e+02    3.973039e-06    8.244245e+03    2.195661e-09    9.563060e-14    2.776232e-10   -4.294191e-01
    2.862153e+01    1.593082e+02    4.584369e-06    9.489862e+03    2.200557e-09    9.957135e-14    2.911782e-10   -4.244191e-01
    2.861584e+01    1.592768e+02    5.289620e-06    1.092025e+04    2.206066e-09    1.036900e-13    3.054284e-10   -4.194191e-01
    2.860975e+01    1.592430e+02    6.103180e-06    1.256216e+04    2.212209e-09    1.079951e-13    3.204033e-10   -4.144191e-01
    2.860321e+01    1.592069e+02    7.041650e-06    1.444607e+04    2.219012e-09    1.124953e-13    3.361325e-10   -4.094191e-01
    2.859619e+01    1.591682e+02    8.124150e-06    1.660673e+04    2.226497e-09    1.172000e-13    3.526466e-10   -4.044191e-01
    2.858865e+01    1.591266e+02    9.372725e-06    1.908370e+04    2.234689e-09    1.221187e-13    3.699759e-10   -3.994191e-01
    2.858058e+01    1.590821e+02    1.081276e-05    2.192199e+04    2.243611e-09    1.272615e-13    3.881511e-10   -3.944191e-01
    2.857192e+01    1.590344e+02    1.247353e-05    2.517282e+04    2.253290e-09    1.326388e-13    4.072031e-10   -3.894191e-01
    2.856263e+01    1.589832e+02    1.438873e-05    2.889434e+04    2.263747e-09    1.382614e-13    4.271628e-10   -3.844191e-01
    2.855268e+01    1.589285e+02    1.659720e-05    3.315266e+04    2.275010e-09    1.441407e-13    4.480609e-10   -3.794191e-01
    2.854200e+01    1.588698e+02    1.914365e-05    3.802279e+04    2.287100e-09    1.502884e-13    4.699279e-10   -3.744191e-01
    2.853057e+01    1.588070e+02    2.207957e-05    4.358979e+04    2.300045e-09    1.567169e-13    4.927941e-10   -3.694191e-01
    2.851831e+01    1.587397e+02    2.546424e-05    4.995012e+04    2.313865e-09    1.634389e-13    5.166890e-10   -3.644191e-01
    2.850518e+01    1.586678e+02    2.936590e-05    5.721307e+04    2.328585e-09    1.704676e-13    5.416415e-10   -3.594191e-01
    2.849113e+01    1.585908e+02    3.386308e-05    6.550227e+04    2.344229e-09    1.778168e-13    5.676805e-10   -3.544191e-01
    2.847606e+01    1.585085e+02    3.904613e-05    7.495763e+04    2.360816e-09    1.855009e-13    5.948330e-10   -3.494191e-01
    2.845994e+01    1.584205e+02    4.501899e-05    8.573737e+04    2.378371e-09    1.935344e-13    6.231250e-10   -3.444191e-01
    2.844269e+01    1.583264e+02    5.190115e-05    9.802024e+04    2.396912e-09    2.019329e-13    6.525820e-10   -3.394191e-01
    2.842421e+01    1.582258e+02    5.983010e-05    1.120080e+05    2.416459e-09    2.107122e-13    6.832270e-10   -3.344191e-01
    2.840446e+01    1.581184e+02    6.896375e-05    1.279283e+05    2.437030e-09    2.198889e-13    7.150830e-10   -3.294191e-01
    2.838332e+01    1.580039e+02    7.948365e-05    1.460380e+05    2.458642e-09    2.294799e-13    7.481690e-10   -3.244191e-01
    2.836073e+01    1.578815e+02    9.159825e-05    1.666263e+05    2.481311e-09    2.395029e-13    7.825045e-10   -3.194191e-01
    2.833659e+01    1.577511e+02    1.055470e-04    1.900191e+05    2.505049e-09    2.499761e-13    8.181055e-10   -3.144191e-01
    2.831080e+01    1.576121e+02    1.216047e-04    2.165830e+05    2.529869e-09    2.609183e-13    8.549860e-10   -3.094191e-01
    2.828326e+01    1.574641e+02    1.400866e-04    2.467304e+05    2.555781e-09    2.723491e-13    8.931575e-10   -3.044191e-01
    2.825386e+01    1.573065e+02    1.613547e-04    2.809246e+05    2.582793e-09    2.842884e-13    9.326290e-10   -2.994191e-01
    2.822250e+01    1.571389e+02    1.858234e-04    3.196861e+05    2.610912e-09    2.967570e-13    9.734075e-10   -2.944191e-01
    2.818906e+01    1.569606e+02    2.139680e-04    3.635988e+05    2.640140e-09    3.097761e-13    1.015497e-09   -2.894191e-01
    2.815342e+01    1.567714e+02    2.463328e-04    4.133179e+05    2.670480e-09    3.233678e-13    1.058897e-09   -2.844191e-01
    2.811546e+01    1.565706e+02    2.835409e-04    4.695774e+05    2.701930e-09    3.375549e-13    1.103605e-09   -2.794191e-01
    2.807504e+01    1.563575e+02    3.263054e-04    5.331989e+05    2.734486e-09    3.523605e-13    1.149616e-09   -2.744191e-01
    2.803207e+01    1.561320e+02    3.754415e-04    6.051027e+05    2.768143e-09    3.678086e-13    1.196922e-09   -2.694191e-01
    2.798638e+01    1.558934e+02    4.318810e-04    6.863166e+05    2.802892e-09    3.839240e-13    1.245510e-09   -2.644191e-01
    2.793786e+01    1.556413e+02    4.966879e-04    7.779898e+05    2.838722e-09    4.007320e-13    1.295364e-09   -2.594191e-01
    2.788635e+01    1.553752e+02    5.710770e-04    8.814046e+05    2.875618e-09    4.182587e-13    1.346466e-09   -2.544191e-01
    2.783175e+01    1.550948e+02    6.564330e-04    9.979912e+05    2.913562e-09    4.365308e-13    1.398793e-09   -2.494191e-01
    2.777391e+01    1.547997e+02    7.543345e-04    1.129343e+06    2.952537e-09    4.555759e-13    1.452318e-09   -2.444191e-01
    2.771270e+01    1.544897e+02    8.665795e-04    1.277235e+06    2.992517e-09    4.754222e-13    1.507015e-09   -2.394191e-01
    2.764800e+01    1.541646e+02    9.952130e-04    1.443640e+06    3.033480e-09    4.960988e-13    1.562848e-09   -2.344191e-01
    2.757967e+01    1.538242e+02    1.142561e-03    1.630751e+06    3.075396e-09    5.176350e-13    1.619783e-09   -2.294191e-01
    2.750761e+01    1.534686e+02    1.311265e-03    1.841004e+06    3.118234e-09    5.400620e-13    1.677779e-09   -2.244191e-01
    2.743171e+01    1.530980e+02    1.504322e-03    2.077099e+06    3.161962e-09    5.634105e-13    1.736796e-09   -2.194191e-01
    2.735190e+01    1.527126e+02    1.725131e-03    2.342030e+06    3.206543e-09    5.877130e-13    1.796787e-09   -2.144191e-01
    2.726805e+01    1.523129e+02    1.977541e-03    2.639109e+06    3.251940e-09    6.130015e-13    1.857704e-09   -2.094191e-01
    2.718016e+01    1.518997e+02    2.265911e-03    2.972004e+06    3.298112e-09    6.393110e-13    1.919496e-09   -2.044191e-01
    2.708813e+01    1.514737e+02    2.595162e-03    3.344764e+06    3.345017e-09    6.666745e-13    1.982111e-09   -1.994191e-01
    2.699195e+01    1.510360e+02    2.970859e-03    3.761858e+06    3.392609e-09    6.951285e-13    2.045491e-09   -1.944191e-01
    2.689163e+01    1.505881e+02    3.399273e-03    4.228227e+06    3.440845e-09    7.247085e-13    2.109579e-09   -1.894191e-01
    2.678719e+01    1.501315e+02    3.887477e-03    4.749309e+06    3.489673e-09    7.554520e-13    2.174314e-09   -1.844191e-01
    2.667869e+01    1.496685e+02    4.443431e-03    5.331099e+06    3.539047e-09    7.873970e-13    2.239637e-09   -1.794191e-01
    2.656619e+01    1.492010e+02    5.076085e-03    5.980195e+06    3.588914e-09    8.205820e-13    2.305482e-09   -1.744191e-01
    2.644983e+01    1.487320e+02    5.795500e-03    6.703866e+06    3.639223e-09    8.550470e-13    2.371787e-09   -1.694191e-01
    2.632971e+01    1.482641e+02    6.612970e-03    7.510097e+06    3.689922e-09    8.908325e-13    2.438485e-09   -1.644191e-01
    2.620607e+01    1.478011e+02    7.541140e-03    8.407685e+06    3.740956e-09    9.279810e-13    2.505510e-09   -1.594191e-01
    2.607907e+01    1.473463e+02    8.594200e-03    9.406283e+06    3.792273e-09    9.665350e-13    2.572798e-09   -1.544191e-01
    2.594896e+01    1.469042e+02    9.788020e-03    1.051652e+07    3.843820e-09    1.006539e-12    2.640280e-09   -1.494191e-01
    2.581601e+01    1.464788e+02    1.114034e-02    1.175006e+07    3.895540e-09    1.048036e-12    2.707890e-09   -1.444191e-01
    2.568050e+01    1.460750e+02    1.267099e-02    1.311973e+07    3.947380e-09    1.091074e-12    2.775563e-09   -1.394191e-01
    2.554270e+01    1.456977e+02    1.440210e-02    1.463963e+07    3.999288e-09    1.135699e-12    2.843232e-09   -1.344191e-01
    2.540294e+01    1.453520e+02    1.635835e-02    1.632522e+07    4.051209e-09    1.181961e-12    2.910834e-09   -1.294191e-01
    2.526150e+01    1.450432e+02    1.856727e-02    1.819348e+07    4.103094e-09    1.229907e-12    2.978304e-09   -1.244191e-01
    2.511865e+01    1.447766e+02    2.105949e-02    2.026306e+07    4.154887e-09    1.279590e-12    3.045580e-09   -1.194191e-01
    2.497467e+01    1.445574e+02    2.386911e-02    2.255437e+07    4.206542e-09    1.331061e-12    3.112600e-09   -1.144191e-01
    2.482974e+01    1.443907e+02    2.703403e-02    2.508977e+07    4.258009e-09    1.384374e-12    3.179307e-09   -1.094191e-01
    2.468403e+01    1.442811e+02    3.059636e-02    2.789366e+07    4.309239e-09    1.439584e-12    3.245642e-09   -1.044191e-01
    2.453759e+01    1.442326e+02    3.460283e-02    3.099264e+07    4.360187e-09    1.496747e-12    3.311550e-09   -9.941910e-02
    2.439043e+01    1.442490e+02    3.910521e-02    3.441566e+07    4.410808e-09    1.555920e-12    3.376978e-09   -9.441910e-02
    2.424245e+01    1.443330e+02    4.416084e-02    3.819406e+07    4.461061e-09    1.617164e-12    3.441874e-09   -8.941910e-02
    2.409344e+01    1.444865e+02    4.983306e-02    4.236166e+07    4.510904e-09    1.680539e-12    3.506190e-09   -8.441910e-02
    2.394305e+01    1.447099e+02    5.619180e-02    4.695471e+07    4.560299e-09    1.746108e-12    3.569880e-09   -7.941910e-02
    2.379085e+01    1.450028e+02    6.331400e-02    5.201199e+07    4.609209e-09    1.813935e-12    3.632901e-09   -7.441910e-02
    2.363629e+01    1.453631e+02    7.128425e-02    5.757459e+07    4.657599e-09    1.884086e-12    3.695212e-09   -6.941910e-02
    2.347867e+01    1.457874e+02    8.019525e-02    6.368574e+07    4.705438e-09    1.956630e-12    3.756773e-09   -6.441910e-02
    2.331725e+01    1.462706e+02    9.014825e-02    7.039064e+07    4.752693e-09    2.031635e-12    3.817551e-09   -5.941910e-02
    2.315115e+01    1.468061e+02    1.012537e-01    7.773596e+07    4.799339e-09    2.109175e-12    3.877511e-09   -5.441910e-02
    2.297950e+01    1.473856e+02    1.136312e-01    8.576952e+07    4.845348e-09    2.189322e-12    3.936626e-09   -4.941910e-02
    2.280133e+01    1.479996e+02    1.274103e-01    9.453967e+07    4.890698e-09    2.272154e-12    3.994865e-09   -4.441910e-02
    2.261572e+01    1.486367e+02    1.427306e-01    1.040946e+08    4.935365e-09    2.357749e-12    4.052205e-09   -3.941910e-02
    2.242176e+01    1.492846e+02    1.597414e-01    1.144817e+08    4.979331e-09    2.446187e-12    4.108626e-09   -3.441910e-02
    2.221859e+01    1.499299e+02    1.786022e-01    1.257467e+08    5.022580e-09    2.537551e-12    4.164105e-09   -2.941910e-02
    2.200547e+01    1.505583e+02    1.994822e-01    1.379329e+08    5.065090e-09    2.631928e-12    4.218627e-09   -2.441910e-02
    2.178174e+01    1.511549e+02    2.225603e-01    1.510798e+08    5.106860e-09    2.729405e-12    4.272179e-09   -1.941910e-02
    2.154692e+01    1.517047e+02    2.480237e-01    1.652233e+08    5.147865e-09    2.830074e-12    4.324746e-09   -1.441910e-02
    2.130063e+01    1.521924e+02    2.760682e-01    1.803932e+08    5.188105e-09    2.934029e-12    4.376321e-09   -9.419100e-03
    2.104274e+01    1.526037e+02    3.068966e-01    1.966141e+08    5.227570e-09    3.041365e-12    4.426894e-09   -4.419100e-03
    2.077325e+01    1.529245e+02    3.407183e-01    2.139036e+08    5.266255e-09    3.152184e-12    4.476463e-09    5.809000e-04
    2.049232e+01    1.531415e+02    3.777470e-01    2.322715e+08    5.304155e-09    3.266587e-12    4.525023e-09    5.580900e-03
    2.020034e+01    1.532432e+02    4.182004e-01    2.517208e+08    5.341265e-09    3.384682e-12    4.572573e-09    1.058090e-02
    1.989780e+01    1.532190e+02    4.622983e-01    2.722452e+08    5.377585e-09    3.506578e-12    4.619113e-09    1.558090e-02
    1.958538e+01    1.530602e+02    5.102610e-01    2.938305e+08    5.413120e-09    3.632388e-12    4.664645e-09    2.058090e-02
    1.926388e+01    1.527599e+02    5.623075e-01    3.164543e+08    5.447870e-09    3.762230e-12    4.709175e-09    2.558090e-02
    1.893419e+01    1.523128e+02    6.186545e-01    3.400865e+08    5.481830e-09    3.896223e-12    4.752706e-09    3.058090e-02
    1.859729e+01    1.517156e+02    6.795145e-01    3.646883e+08    5.515015e-09    4.034493e-12    4.795247e-09    3.558090e-02
    1.825425e+01    1.509671e+02    7.450935e-01    3.902141e+08    5.547430e-09    4.177170e-12    4.836805e-09    4.058090e-02
    1.790613e+01    1.500674e+02    8.155910e-01    4.166122e+08    5.579075e-09    4.324385e-12    4.877389e-09    4.558090e-02
    1.755407e+01    1.490189e+02    8.911965e-01    4.438250e+08    5.609960e-09    4.476277e-12    4.917011e-09    5.058090e-02
    1.719919e+01    1.478251e+02    9.720905e-01    4.717897e+08    5.640095e-09    4.632988e-12    4.955682e-09    5.558090e-02
    1.684256e+01    1.464911e+02    1.058442e+00    5.004400e+08    5.669485e-09    4.794665e-12    4.993415e-09    6.058090e-02
    1.648526e+01    1.450235e+02    1.150410e+00    5.297060e+08    5.698145e-09    4.961461e-12    5.030220e-09    6.558090e-02
    1.612830e+01    1.434295e+02    1.248136e+00    5.595171e+08    5.726080e-09    5.133530e-12    5.066120e-09    7.058090e-02
    1.577265e+01    1.417177e+02    1.351755e+00    5.898002e+08    5.753310e-09    5.311045e-12    5.101120e-09    7.558090e-02
    1.541922e+01    1.398969e+02    1.461381e+00    6.204833e+08    5.779840e-09    5.494160e-12    5.135235e-09    8.058090e-02
    1.506883e+01    1.379767e+02    1.577120e+00    6.514952e+08    5.805680e-09    5.683060e-12    5.168490e-09    8.558090e-02
    1.472224e+01    1.359669e+02    1.699062e+00    6.827660e+08    5.830845e-09    5.877920e-12    5.200895e-09    9.058090e-02
    1.438015e+01    1.338776e+02    1.827284e+00    7.142274e+08    5.855350e-09    6.078930e-12    5.232470e-09    9.558090e-02
    1.404316e+01    1.317187e+02    1.961847e+00    7.458149e+08    5.879210e-09    6.286280e-12    5.263225e-09    1.005809e-01
    1.371180e+01    1.295001e+02    2.102804e+00    7.774681e+08    5.902430e-09    6.500170e-12    5.293190e-09    1.055809e-01
    1.338656e+01    1.272316e+02    2.250190e+00    8.091289e+08    5.925030e-09    6.720810e-12    5.322370e-09    1.105809e-01
    1.306781e+01    1.249223e+02    2.404033e+00    8.407435e+08    5.947025e-09    6.948415e-12    5.350785e-09    1.155809e-01
    1.275588e+01    1.225813e+02    2.564348e+00    8.722636e+08    5.968425e-09    7.183205e-12    5.378455e-09    1.205809e-01
    1.245105e+01    1.202169e+02    2.731138e+00    9.036452e+08    5.989240e-09    7.425410e-12    5.405400e-09    1.255809e-01
    1.215351e+01    1.178372e+02    2.904400e+00    9.348466e+08    6.009495e-09    7.675265e-12    5.431635e-09    1.305809e-01
    1.186343e+01    1.154494e+02    3.084119e+00    9.658335e+08    6.029195e-09    7.933025e-12    5.457180e-09    1.355809e-01
    1.158091e+01    1.130603e+02    3.270274e+00    9.965732e+08    6.048360e-09    8.198940e-12    5.482045e-09    1.405809e-01
    1.130601e+01    1.106763e+02    3.462836e+00    1.027040e+09    6.067000e-09    8.473280e-12    5.506260e-09    1.455809e-01
    1.103874e+01    1.083029e+02    3.661770e+00    1.057210e+09    6.085125e-09    8.756310e-12    5.529830e-09    1.505809e-01
    1.077911e+01    1.059453e+02    3.867034e+00    1.087063e+09    6.102760e-09    9.048325e-12    5.552775e-09    1.555809e-01
    1.052705e+01    1.036080e+02    4.078585e+00    1.116585e+09    6.119905e-09    9.349615e-12    5.575120e-09    1.605809e-01
    1.028250e+01    1.012952e+02    4.296372e+00    1.145761e+09    6.136585e-09    9.660490e-12    5.596870e-09    1.655809e-01
    1.004537e+01    9.901016e+01    4.520341e+00    1.174583e+09    6.152810e-09    9.981260e-12    5.618050e-09    1.705809e-01
    9.815524e+00    9.675614e+01    4.750438e+00    1.203044e+09    6.168590e-09    1.031226e-11    5.638675e-09    1.755809e-01
    9.592840e+00    9.453569e+01    4.986602e+00    1.231138e+09    6.183940e-09    1.065382e-11    5.658755e-09    1.805809e-01
    9.377165e+00    9.235109e+01    5.228775e+00    1.258865e+09    6.198870e-09    1.100632e-11    5.678310e-09    1.855809e-01
