# sky130 nfet_01v8 gm/ID Processed Lookup Table
# Corner: sf
# Temperature: 25C
# W = 2.0 um
# L = 4.68 um (4680 nm)
# Columns: gm/id [1/V]  gm/gds [V/V]  id/W [A/m]  ft [Hz]  Cgg/W [F/m]  Cgd/W [F/m]  Cgs/W [F/m]  Vov [V]
#         gm/id          gm/gds            id/W              ft           Cgg/W           Cgd/W           Cgs/W             Vov
    2.633271e+01    2.146234e+02    1.075519e-07    4.347811e+01    1.036724e-08    3.308046e-13    8.061675e-10   -5.096680e-01
    2.633135e+01    2.146122e+02    1.226866e-07    4.961287e+01    1.036326e-08    3.430113e-13    8.406865e-10   -5.046680e-01
    2.632989e+01    2.146004e+02    1.399502e-07    5.660394e+01    1.036087e-08    3.557101e-13    8.768735e-10   -4.996680e-01
    2.632833e+01    2.145877e+02    1.596417e-07    6.456910e+01    1.036013e-08    3.689222e-13    9.148040e-10   -4.946680e-01
    2.632666e+01    2.145743e+02    1.821026e-07    7.364206e+01    1.036110e-08    3.826703e-13    9.545565e-10   -4.896680e-01
    2.632489e+01    2.145599e+02    2.077217e-07    8.397449e+01    1.036385e-08    3.969774e-13    9.962080e-10   -4.846680e-01
    2.632298e+01    2.145444e+02    2.369428e-07    9.573834e+01    1.036843e-08    4.118682e-13    1.039843e-09   -4.796680e-01
    2.632096e+01    2.145280e+02    2.702719e-07    1.091287e+02    1.037489e-08    4.273681e-13    1.085547e-09   -4.746680e-01
    2.631879e+01    2.145104e+02    3.082860e-07    1.243666e+02    1.038332e-08    4.435034e-13    1.133406e-09   -4.696680e-01
    2.631647e+01    2.144917e+02    3.516429e-07    1.417021e+02    1.039378e-08    4.603019e-13    1.183510e-09   -4.646680e-01
    2.631401e+01    2.144717e+02    4.010926e-07    1.614189e+02    1.040633e-08    4.777924e-13    1.235949e-09   -4.596680e-01
    2.631138e+01    2.144505e+02    4.574904e-07    1.838378e+02    1.042104e-08    4.960049e-13    1.290818e-09   -4.546680e-01
    2.630858e+01    2.144278e+02    5.218110e-07    2.093216e+02    1.043799e-08    5.149710e-13    1.348210e-09   -4.496680e-01
    2.630557e+01    2.144035e+02    5.951665e-07    2.382808e+02    1.045724e-08    5.347225e-13    1.408223e-09   -4.446680e-01
    2.630237e+01    2.143777e+02    6.788235e-07    2.711794e+02    1.047889e-08    5.552940e-13    1.470954e-09   -4.396680e-01
    2.629897e+01    2.143502e+02    7.742265e-07    3.085416e+02    1.050299e-08    5.767210e-13    1.536504e-09   -4.346680e-01
    2.629532e+01    2.143208e+02    8.830225e-07    3.509595e+02    1.052964e-08    5.990400e-13    1.604973e-09   -4.296680e-01
    2.629143e+01    2.142895e+02    1.007088e-06    3.991013e+02    1.055890e-08    6.222890e-13    1.676462e-09   -4.246680e-01
    2.628729e+01    2.142562e+02    1.148560e-06    4.537214e+02    1.059085e-08    6.465080e-13    1.751073e-09   -4.196680e-01
    2.628288e+01    2.142207e+02    1.309879e-06    5.156702e+02    1.062557e-08    6.717385e-13    1.828910e-09   -4.146680e-01
    2.627817e+01    2.141828e+02    1.493822e-06    5.859066e+02    1.066315e-08    6.980230e-13    1.910076e-09   -4.096680e-01
    2.627314e+01    2.141424e+02    1.703553e-06    6.655110e+02    1.070367e-08    7.254065e-13    1.994673e-09   -4.046680e-01
    2.626778e+01    2.140995e+02    1.942680e-06    7.557005e+02    1.074720e-08    7.539355e-13    2.082804e-09   -3.996680e-01
    2.626208e+01    2.140537e+02    2.215312e-06    8.578457e+02    1.079382e-08    7.836575e-13    2.174569e-09   -3.946680e-01
    2.625597e+01    2.140049e+02    2.526130e-06    9.734872e+02    1.084361e-08    8.146235e-13    2.270071e-09   -3.896680e-01
    2.624948e+01    2.139529e+02    2.880467e-06    1.104360e+03    1.089665e-08    8.468840e-13    2.369407e-09   -3.846680e-01
    2.624256e+01    2.138977e+02    3.284396e-06    1.252414e+03    1.095302e-08    8.804940e-13    2.472674e-09   -3.796680e-01
    2.623519e+01    2.138389e+02    3.744834e-06    1.419840e+03    1.101279e-08    9.155085e-13    2.579968e-09   -3.746680e-01
    2.622733e+01    2.137764e+02    4.269658e-06    1.609100e+03    1.107604e-08    9.519855e-13    2.691381e-09   -3.696680e-01
    2.621896e+01    2.137099e+02    4.867837e-06    1.822956e+03    1.114282e-08    9.899840e-13    2.807000e-09   -3.646680e-01
    2.621004e+01    2.136391e+02    5.549580e-06    2.064511e+03    1.121323e-08    1.029567e-12    2.926912e-09   -3.596680e-01
    2.620054e+01    2.135640e+02    6.326510e-06    2.337244e+03    1.128732e-08    1.070798e-12    3.051197e-09   -3.546680e-01
    2.619041e+01    2.134840e+02    7.211860e-06    2.645056e+03    1.136515e-08    1.113744e-12    3.179933e-09   -3.496680e-01
    2.617965e+01    2.133991e+02    8.220675e-06    2.992323e+03    1.144677e-08    1.158472e-12    3.313190e-09   -3.446680e-01
    2.616819e+01    2.133090e+02    9.370085e-06    3.383945e+03    1.153225e-08    1.205054e-12    3.451034e-09   -3.396680e-01
    2.615599e+01    2.132133e+02    1.067958e-05    3.825410e+03    1.162163e-08    1.253563e-12    3.593526e-09   -3.346680e-01
    2.614302e+01    2.131118e+02    1.217130e-05    4.322864e+03    1.171497e-08    1.304076e-12    3.740719e-09   -3.296680e-01
    2.612921e+01    2.130042e+02    1.387047e-05    4.883185e+03    1.181230e-08    1.356669e-12    3.892661e-09   -3.246680e-01
    2.611454e+01    2.128901e+02    1.580572e-05    5.514069e+03    1.191364e-08    1.411424e-12    4.049389e-09   -3.196680e-01
    2.609895e+01    2.127693e+02    1.800961e-05    6.224115e+03    1.201904e-08    1.468423e-12    4.210937e-09   -3.146680e-01
    2.608237e+01    2.126414e+02    2.051917e-05    7.022948e+03    1.212851e-08    1.527754e-12    4.377327e-09   -3.096680e-01
    2.606475e+01    2.125059e+02    2.337641e-05    7.921306e+03    1.224207e-08    1.589504e-12    4.548574e-09   -3.046680e-01
    2.604608e+01    2.123629e+02    2.662911e-05    8.931212e+03    1.235972e-08    1.653765e-12    4.724685e-09   -2.996680e-01
    2.602622e+01    2.122116e+02    3.033148e-05    1.006604e+04    1.248149e-08    1.720631e-12    4.905655e-09   -2.946680e-01
    2.600517e+01    2.120520e+02    3.454509e-05    1.134078e+04    1.260733e-08    1.790200e-12    5.091470e-09   -2.896680e-01
    2.598285e+01    2.118836e+02    3.933977e-05    1.277212e+04    1.273726e-08    1.862571e-12    5.282110e-09   -2.846680e-01
    2.595919e+01    2.117062e+02    4.479478e-05    1.437866e+04    1.287124e-08    1.937846e-12    5.477540e-09   -2.796680e-01
    2.593413e+01    2.115194e+02    5.100000e-05    1.618117e+04    1.300925e-08    2.016133e-12    5.677720e-09   -2.746680e-01
    2.590759e+01    2.113230e+02    5.805730e-05    1.820276e+04    1.315124e-08    2.097540e-12    5.882590e-09   -2.696680e-01
    2.587950e+01    2.111166e+02    6.608215e-05    2.046920e+04    1.329718e-08    2.182180e-12    6.092085e-09   -2.646680e-01
    2.584979e+01    2.109001e+02    7.520540e-05    2.300916e+04    1.344700e-08    2.270167e-12    6.306135e-09   -2.596680e-01
    2.581841e+01    2.106734e+02    8.557505e-05    2.585458e+04    1.360064e-08    2.361621e-12    6.524650e-09   -2.546680e-01
    2.578526e+01    2.104363e+02    9.735890e-05    2.904095e+04    1.375804e-08    2.456664e-12    6.747535e-09   -2.496680e-01
    2.575029e+01    2.101885e+02    1.107465e-04    3.260777e+04    1.391909e-08    2.555422e-12    6.974680e-09   -2.446680e-01
    2.571341e+01    2.099303e+02    1.259523e-04    3.659892e+04    1.408374e-08    2.658023e-12    7.205970e-09   -2.396680e-01
    2.567456e+01    2.096615e+02    1.432189e-04    4.106314e+04    1.425186e-08    2.764601e-12    7.441280e-09   -2.346680e-01
    2.563369e+01    2.093827e+02    1.628201e-04    4.605458e+04    1.442336e-08    2.875291e-12    7.680460e-09   -2.296680e-01
    2.559071e+01    2.090938e+02    1.850651e-04    5.163333e+04    1.459812e-08    2.990235e-12    7.923375e-09   -2.246680e-01
    2.554557e+01    2.087952e+02    2.103030e-04    5.786602e+04    1.477603e-08    3.109575e-12    8.169860e-09   -2.196680e-01
    2.549822e+01    2.084878e+02    2.389274e-04    6.482661e+04    1.495694e-08    3.233461e-12    8.419755e-09   -2.146680e-01
    2.544862e+01    2.081721e+02    2.713822e-04    7.259699e+04    1.514074e-08    3.362044e-12    8.672880e-09   -2.096680e-01
    2.539672e+01    2.078493e+02    3.081672e-04    8.126798e+04    1.532727e-08    3.495481e-12    8.929055e-09   -2.046680e-01
    2.534248e+01    2.075202e+02    3.498454e-04    9.093998e+04    1.551639e-08    3.633931e-12    9.188090e-09   -1.996680e-01
    2.528589e+01    2.071862e+02    3.970504e-04    1.017243e+05    1.570794e-08    3.777560e-12    9.449785e-09   -1.946680e-01
    2.522694e+01    2.068493e+02    4.504947e-04    1.137441e+05    1.590177e-08    3.926536e-12    9.713940e-09   -1.896680e-01
    2.516563e+01    2.065113e+02    5.109790e-04    1.271356e+05    1.609770e-08    4.081035e-12    9.980345e-09   -1.846680e-01
    2.510199e+01    2.061744e+02    5.794030e-04    1.420493e+05    1.629559e-08    4.241235e-12    1.024879e-08   -1.796680e-01
    2.503605e+01    2.058416e+02    6.567770e-04    1.586519e+05    1.649523e-08    4.407318e-12    1.051905e-08   -1.746680e-01
    2.496784e+01    2.055156e+02    7.442340e-04    1.771274e+05    1.669648e-08    4.579474e-12    1.079091e-08   -1.696680e-01
    2.489747e+01    2.051999e+02    8.430445e-04    1.976793e+05    1.689914e-08    4.757896e-12    1.106415e-08   -1.646680e-01
    2.482502e+01    2.048988e+02    9.546325e-04    2.205326e+05    1.710304e-08    4.942784e-12    1.133853e-08   -1.596680e-01
    2.475060e+01    2.046164e+02    1.080594e-03    2.459357e+05    1.730800e-08    5.134340e-12    1.161383e-08   -1.546680e-01
    2.467433e+01    2.043579e+02    1.222716e-03    2.741638e+05    1.751382e-08    5.332780e-12    1.188983e-08   -1.496680e-01
    2.459639e+01    2.041287e+02    1.382996e-03    3.055204e+05    1.772034e-08    5.538310e-12    1.216629e-08   -1.446680e-01
    2.451694e+01    2.039349e+02    1.563670e-03    3.403416e+05    1.792737e-08    5.751165e-12    1.244299e-08   -1.396680e-01
    2.443619e+01    2.037832e+02    1.767240e-03    3.789991e+05    1.813472e-08    5.971560e-12    1.271970e-08   -1.346680e-01
    2.435435e+01    2.036807e+02    1.996500e-03    4.219042e+05    1.834223e-08    6.199740e-12    1.299620e-08   -1.296680e-01
    2.427164e+01    2.036355e+02    2.254573e-03    4.695121e+05    1.854970e-08    6.435940e-12    1.327228e-08   -1.246680e-01
    2.418827e+01    2.036555e+02    2.544950e-03    5.223261e+05    1.875697e-08    6.680415e-12    1.354771e-08   -1.196680e-01
    2.410455e+01    2.037502e+02    2.871525e-03    5.809047e+05    1.896386e-08    6.933410e-12    1.382229e-08   -1.146680e-01
    2.402065e+01    2.039288e+02    3.238649e-03    6.458654e+05    1.917021e-08    7.195195e-12    1.409580e-08   -1.096680e-01
    2.393683e+01    2.042011e+02    3.651177e-03    7.178920e+05    1.937584e-08    7.466040e-12    1.436805e-08   -1.046680e-01
    2.385328e+01    2.045774e+02    4.114531e-03    7.977419e+05    1.958060e-08    7.746220e-12    1.463883e-08   -9.966800e-02
    2.377017e+01    2.050682e+02    4.634755e-03    8.862525e+05    1.978435e-08    8.036025e-12    1.490798e-08   -9.466800e-02
    2.368766e+01    2.056845e+02    5.218590e-03    9.843510e+05    1.998691e-08    8.335745e-12    1.517529e-08   -8.966800e-02
    2.360579e+01    2.064367e+02    5.873560e-03    1.093059e+06    2.018815e-08    8.645685e-12    1.544059e-08   -8.466800e-02
    2.352458e+01    2.073352e+02    6.608035e-03    1.213504e+06    2.038793e-08    8.966160e-12    1.570373e-08   -7.966800e-02
    2.344396e+01    2.083908e+02    7.431350e-03    1.346928e+06    2.058612e-08    9.297490e-12    1.596453e-08   -7.466800e-02
    2.336375e+01    2.096128e+02    8.353885e-03    1.494692e+06    2.078258e-08    9.640005e-12    1.622285e-08   -6.966800e-02
    2.328367e+01    2.110102e+02    9.387185e-03    1.658285e+06    2.097721e-08    9.994050e-12    1.647854e-08   -6.466800e-02
    2.320335e+01    2.125914e+02    1.054407e-02    1.839334e+06    2.116988e-08    1.035998e-11    1.673147e-08   -5.966800e-02
    2.312227e+01    2.143629e+02    1.183875e-02    2.039601e+06    2.136049e-08    1.073814e-11    1.698151e-08   -5.466800e-02
    2.303981e+01    2.163300e+02    1.328697e-02    2.260993e+06    2.154893e-08    1.112893e-11    1.722854e-08   -4.966800e-02
    2.295520e+01    2.184965e+02    1.490613e-02    2.505555e+06    2.173511e-08    1.153272e-11    1.747247e-08   -4.466800e-02
    2.286759e+01    2.208641e+02    1.671540e-02    2.775476e+06    2.191895e-08    1.194992e-11    1.771317e-08   -3.966800e-02
    2.277599e+01    2.234323e+02    1.873590e-02    3.073070e+06    2.210037e-08    1.238092e-11    1.795057e-08   -3.466800e-02
    2.267937e+01    2.261982e+02    2.099075e-02    3.400775e+06    2.227929e-08    1.282617e-11    1.818458e-08   -2.966800e-02
    2.257658e+01    2.291564e+02    2.350527e-02    3.761127e+06    2.245564e-08    1.328609e-11    1.841512e-08   -2.466800e-02
    2.246648e+01    2.322990e+02    2.630701e-02    4.156754e+06    2.262937e-08    1.376113e-11    1.864212e-08   -1.966800e-02
    2.234786e+01    2.356149e+02    2.942590e-02    4.590323e+06    2.280041e-08    1.425177e-11    1.886553e-08   -1.466800e-02
    2.221959e+01    2.390907e+02    3.289426e-02    5.064532e+06    2.296873e-08    1.475849e-11    1.908531e-08   -9.668000e-03
    2.208055e+01    2.427100e+02    3.674688e-02    5.582061e+06    2.313428e-08    1.528178e-11    1.930139e-08   -4.668000e-03
    2.192974e+01    2.464538e+02    4.102100e-02    6.145532e+06    2.329703e-08    1.582215e-11    1.951376e-08    3.320000e-04
    2.176623e+01    2.503005e+02    4.575630e-02    6.757451e+06    2.345694e-08    1.638014e-11    1.972237e-08    5.332000e-03
    2.158926e+01    2.542263e+02    5.099480e-02    7.420179e+06    2.361399e-08    1.695630e-11    1.992721e-08    1.033200e-02
    2.139823e+01    2.582055e+02    5.678080e-02    8.135864e+06    2.376817e-08    1.755120e-11    2.012827e-08    1.533200e-02
    2.119270e+01    2.622105e+02    6.316070e-02    8.906396e+06    2.391946e-08    1.816541e-11    2.032553e-08    2.033200e-02
    2.097248e+01    2.662127e+02    7.018265e-02    9.733353e+06    2.406785e-08    1.879955e-11    2.051899e-08    2.533200e-02
    2.073754e+01    2.701821e+02    7.789660e-02    1.061796e+07    2.421334e-08    1.945425e-11    2.070866e-08    3.033200e-02
    2.048804e+01    2.740889e+02    8.635375e-02    1.156104e+07    2.435593e-08    2.013014e-11    2.089454e-08    3.533200e-02
    2.022435e+01    2.779028e+02    9.560635e-02    1.256299e+07    2.449563e-08    2.082792e-11    2.107665e-08    4.033200e-02
    1.994706e+01    2.815945e+02    1.057072e-01    1.362373e+07    2.463244e-08    2.154827e-11    2.125501e-08    4.533200e-02
    1.965684e+01    2.851349e+02    1.167095e-01    1.474271e+07    2.476638e-08    2.229189e-11    2.142964e-08    5.033200e-02
    1.935458e+01    2.884970e+02    1.286662e-01    1.591890e+07    2.489747e-08    2.305956e-11    2.160056e-08    5.533200e-02
    1.904128e+01    2.916552e+02    1.416297e-01    1.715078e+07    2.502573e-08    2.385203e-11    2.176782e-08    6.033200e-02
    1.871803e+01    2.945857e+02    1.556512e-01    1.843634e+07    2.515117e-08    2.467009e-11    2.193144e-08    6.533200e-02
    1.838600e+01    2.972677e+02    1.707809e-01    1.977314e+07    2.527382e-08    2.551458e-11    2.209146e-08    7.033200e-02
    1.804642e+01    2.996824e+02    1.870667e-01    2.115832e+07    2.539373e-08    2.638634e-11    2.224793e-08    7.533200e-02
    1.770056e+01    3.018143e+02    2.045546e-01    2.258865e+07    2.551092e-08    2.728627e-11    2.240088e-08    8.033200e-02
    1.734967e+01    3.036505e+02    2.232880e-01    2.406057e+07    2.562541e-08    2.821528e-11    2.255038e-08    8.533200e-02
    1.699502e+01    3.051810e+02    2.433073e-01    2.557025e+07    2.573724e-08    2.917433e-11    2.269646e-08    9.033200e-02
    1.663783e+01    3.063991e+02    2.646500e-01    2.711363e+07    2.584647e-08    3.016439e-11    2.283918e-08    9.533200e-02
    1.627931e+01    3.073006e+02    2.873502e-01    2.868654e+07    2.595311e-08    3.118648e-11    2.297859e-08    1.003320e-01
    1.592058e+01    3.078842e+02    3.114383e-01    3.028468e+07    2.605722e-08    3.224168e-11    2.311475e-08    1.053320e-01
    1.556273e+01    3.081516e+02    3.369413e-01    3.190374e+07    2.615884e-08    3.333107e-11    2.324772e-08    1.103320e-01
    1.520673e+01    3.081062e+02    3.638826e-01    3.353942e+07    2.625801e-08    3.445578e-11    2.337754e-08    1.153320e-01
    1.485353e+01    3.077543e+02    3.922819e-01    3.518753e+07    2.635477e-08    3.561699e-11    2.350429e-08    1.203320e-01
    1.450395e+01    3.071035e+02    4.221551e-01    3.684395e+07    2.644918e-08    3.681594e-11    2.362801e-08    1.253320e-01
    1.415877e+01    3.061643e+02    4.535146e-01    3.850485e+07    2.654127e-08    3.805389e-11    2.374877e-08    1.303320e-01
    1.381866e+01    3.049474e+02    4.863696e-01    4.016645e+07    2.663109e-08    3.933214e-11    2.386664e-08    1.353320e-01
    1.348420e+01    3.034655e+02    5.207260e-01    4.182534e+07    2.671870e-08    4.065207e-11    2.398167e-08    1.403320e-01
    1.315595e+01    3.017321e+02    5.565860e-01    4.347832e+07    2.680413e-08    4.201509e-11    2.409391e-08    1.453320e-01
    1.283431e+01    2.997612e+02    5.939495e-01    4.512244e+07    2.688744e-08    4.342267e-11    2.420345e-08    1.503320e-01
    1.251966e+01    2.975676e+02    6.328135e-01    4.675509e+07    2.696867e-08    4.487633e-11    2.431033e-08    1.553320e-01
    1.221230e+01    2.951664e+02    6.731735e-01    4.837393e+07    2.704788e-08    4.637765e-11    2.441461e-08    1.603320e-01
    1.191248e+01    2.925729e+02    7.150210e-01    4.997693e+07    2.712510e-08    4.792828e-11    2.451637e-08    1.653320e-01
    1.162037e+01    2.898021e+02    7.583465e-01    5.156235e+07    2.720039e-08    4.952991e-11    2.461564e-08    1.703320e-01
    1.133611e+01    2.868691e+02    8.031395e-01    5.312872e+07    2.727380e-08    5.118430e-11    2.471252e-08    1.753320e-01
    1.105976e+01    2.837883e+02    8.493870e-01    5.467485e+07    2.734537e-08    5.289335e-11    2.480703e-08    1.803320e-01
    1.079137e+01    2.805742e+02    8.970750e-01    5.619979e+07    2.741515e-08    5.465890e-11    2.489925e-08    1.853320e-01
    1.053092e+01    2.772403e+02    9.461885e-01    5.770285e+07    2.748319e-08    5.648295e-11    2.498924e-08    1.903320e-01
    1.027839e+01    2.737996e+02    9.967120e-01    5.918352e+07    2.754953e-08    5.836755e-11    2.507705e-08    1.953320e-01
    1.003370e+01    2.702648e+02    1.048629e+00    6.064158e+07    2.761421e-08    6.031485e-11    2.516273e-08    2.003320e-01
    9.796760e+00    2.666476e+02    1.101923e+00    6.207691e+07    2.767729e-08    6.232705e-11    2.524635e-08    2.053320e-01
    9.567443e+00    2.629591e+02    1.156576e+00    6.348958e+07    2.773881e-08    6.440650e-11    2.532796e-08    2.103320e-01
    9.345622e+00    2.592096e+02    1.212572e+00    6.487981e+07    2.779881e-08    6.655550e-11    2.540761e-08    2.153320e-01
    9.131135e+00    2.554088e+02    1.269893e+00    6.624794e+07    2.785733e-08    6.877665e-11    2.548535e-08    2.203320e-01
    8.923819e+00    2.515656e+02    1.328521e+00    6.759441e+07    2.791443e-08    7.107250e-11    2.556124e-08    2.253320e-01
    8.723493e+00    2.476883e+02    1.388442e+00    6.891974e+07    2.797013e-08    7.344570e-11    2.563533e-08    2.303320e-01
    8.529973e+00    2.437843e+02    1.449636e+00    7.022458e+07    2.802449e-08    7.589905e-11    2.570767e-08    2.353320e-01
    8.343068e+00    2.398609e+02    1.512090e+00    7.150963e+07    2.807754e-08    7.843550e-11    2.577830e-08    2.403320e-01
    8.162577e+00    2.359239e+02    1.575786e+00    7.277554e+07    2.812932e-08    8.105805e-11    2.584728e-08    2.453320e-01
